neutron_powder_diffraction_0037
R_wp: 3.733
Temperature (K): 578.182
Counts: 83201.00
Wavelength (Ã…): 2.52098
COMMENTS
Test file for demonstrating the .xyy file format in Reel1.0
END OF HEADER
   tth       Y_obs     Y_calc      Y_res    Background    Phase_1_Nuc    Phase_1_Mag    Phase_2_Nuc    Phase_2_Mag
  9.970    702.000    696.903      5.097    695.334    696.403    695.834    695.334    695.334
 10.070    724.546    696.053     28.493    694.391    695.546    694.897    694.391    694.391
 10.170    735.468    695.218     40.250    693.453    694.706    693.964    693.453    693.453
 10.270    731.000    694.402     36.598    692.518    693.885    693.035    692.518    692.518
 10.370    732.000    693.607     38.393    691.588    693.084    692.110    691.588    691.588
 10.470    743.951    692.838     51.113    690.662    692.309    691.189    690.662    690.662
 10.570    673.499    692.098    -18.599    689.740    691.563    690.273    689.740    689.740
 10.670    711.000    691.394     19.606    688.821    690.853    689.361    688.821    688.821
 10.770    720.000    690.734     29.266    687.907    690.187    688.453    687.907    687.907
 10.870    701.000    690.128     10.872    686.997    689.576    687.549    686.997    686.997
 10.970    684.000    689.592     -5.592    686.092    689.033    686.649    686.092    686.092
 11.070    696.000    689.145      6.855    685.190    688.580    685.753    685.190    685.190
 11.170    670.653    688.817    -18.165    684.292    688.245    684.862    684.292    684.292
 11.270    702.000    688.650     13.350    683.398    688.071    683.975    683.398    683.398
 11.370    737.000    688.715     48.285    682.508    688.128    683.091    682.508    682.508
 11.470    723.000    689.148     33.852    681.623    688.554    682.213    681.623    681.623
 11.570    679.000    690.237    -11.237    680.741    689.635    681.338    680.741    680.741
 11.670    783.000    692.619     90.381    679.864    692.008    680.467    679.864    679.864
 11.770    727.000    697.536     29.464    678.990    696.915    679.601    678.990    678.990
 11.870    719.449    706.926     12.523    678.121    706.292    678.739    678.121    678.121
 11.970    804.000    722.884     81.116    677.255    722.233    677.880    677.255    677.255
 12.070    788.000    746.066     41.934    676.394    745.393    677.026    676.394    676.394
 12.170    729.334    772.884    -43.550    675.536    772.188    676.177    675.536    675.536
 12.270    789.678    792.949     -3.271    674.683    792.234    675.331    674.683    674.683
 12.370    785.000    793.735     -8.735    673.834    793.011    674.489    673.834    673.834
 12.470    830.000    773.968     56.032    672.988    773.246    673.652    672.988    672.988
 12.570    729.000    745.519    -16.519    672.147    744.805    672.819    672.147    672.147
 12.670    762.000    719.776     42.224    671.309    719.068    671.990    671.309    671.309
 12.770    698.000    701.139     -3.139    670.476    700.433    671.165    670.476    670.476
 12.870    685.000    689.314     -4.314    669.647    688.606    670.344    669.647    669.647
 12.970    609.000    682.265    -73.265    668.821    681.552    669.527    668.821    668.821
 13.070    646.994    677.966    -30.972    668.000    677.246    668.715    668.000    668.000
 13.170    654.000    675.081    -21.081    667.183    674.353    667.907    667.183    667.183
 13.270    698.758    672.909     25.849    666.369    672.172    667.102    666.369    666.369
 13.370    677.000    671.128      5.872    665.560    670.383    666.302    665.560    665.560
 13.470    656.000    669.600    -13.600    664.754    668.846    665.507    664.754    664.754
 13.570    679.735    668.329     11.406    663.953    667.565    664.715    663.953    663.953
 13.670    658.000    667.132     -9.132    663.155    666.358    663.928    663.155    663.155
 13.770    698.827    665.983     32.845    662.362    665.199    663.144    662.362    662.362
 13.870    677.000    664.901     12.099    661.572    664.107    662.365    661.572    661.572
 13.970    708.000    663.883     44.117    660.787    663.078    661.590    660.787    660.787
 14.070    666.000    662.926      3.074    660.005    662.110    660.820    660.005    660.005
 14.170    705.000    661.985     43.015    659.227    661.158    660.053    659.227    659.227
 14.270    618.000    661.072    -43.072    658.453    660.234    659.291    658.453    658.453
 14.370    642.000    660.185    -18.185    657.683    659.335    658.532    657.683    657.683
 14.470    668.000    659.320      8.680    656.917    658.458    657.778    656.917    656.917
 14.570    703.705    658.473     45.232    656.155    657.600    657.028    656.155    656.155
 14.670    654.000    657.643     -3.643    655.397    656.758    656.282    655.397    655.397
 14.770    607.145    656.828    -49.683    654.643    655.930    655.541    654.643    654.643
 14.870    679.369    656.025     23.344    653.893    655.115    654.803    653.893    653.893
 14.970    651.000    655.235     -4.235    653.146    654.311    654.070    653.146    653.146
 15.070    606.000    654.455    -48.455    652.404    653.517    653.341    652.404    652.404
 15.170    655.000    653.684      1.316    651.665    652.733    652.616    651.665    651.665
 15.270    682.000    652.923     29.077    650.931    651.958    651.895    650.931    650.931
 15.370    682.000    652.170     29.830    650.200    651.191    651.178    650.200    650.200
 15.470    657.660    651.425      6.234    649.473    650.432    650.466    649.473    649.473
 15.570    644.288    650.688     -6.400    648.750    649.680    649.758    648.750    648.750
 15.670    620.000    649.959    -29.959    648.030    648.935    649.054    648.030    648.030
 15.770    614.000    649.240    -35.240    647.315    648.200    648.354    647.315    647.315
 15.870    604.000    648.524    -44.524    646.604    647.468    647.659    646.604    646.604
 15.970    644.000    647.813     -3.813    645.896    646.741    646.968    645.896    645.896
 16.070    650.000    647.109      2.891    645.192    646.020    646.281    645.192    645.192
 16.170    607.000    646.410    -39.410    644.492    645.305    645.598    644.492    644.492
 16.270    612.000    645.718    -33.718    643.796    644.595    644.919    643.796    643.796
 16.370    625.632    645.033    -19.401    643.104    643.892    644.245    643.104    643.104
 16.470    619.000    644.357    -25.357    642.415    643.197    643.575    642.415    642.415
 16.570    630.000    643.682    -13.682    641.731    642.503    642.909    641.731    641.731
 16.670    605.000    643.011    -38.011    641.050    641.813    642.248    641.050    641.050
 16.770    609.000    642.346    -33.346    640.373    641.128    641.591    640.373    640.373
 16.870    653.725    641.686     12.039    639.700    640.448    640.938    639.700    639.700
 16.970    646.000    641.031      4.969    639.030    639.772    640.289    639.030    639.030
 17.070    668.161    640.381     27.779    638.365    639.101    639.645    638.365    638.365
 17.170    629.751    639.737     -9.986    637.703    638.434    639.005    637.703    637.703
 17.270    630.000    639.102     -9.102    637.045    637.777    638.370    637.045    637.045
 17.370    635.000    638.524     -3.524    636.390    637.175    637.740    636.390    636.390
 17.470    646.948    637.928      9.020    635.740    636.553    637.114    635.740    635.740
 17.570    622.000    637.311    -15.311    635.093    635.912    636.492    635.093    635.093
 17.670    629.789    636.692     -6.903    634.450    635.268    635.874    634.450    634.450
 17.770    589.000    636.080    -47.080    633.811    634.631    635.260    633.811    633.811
 17.870    617.766    635.498    -17.732    633.175    634.022    634.651    633.175    633.175
 17.970    628.071    634.898     -6.827    632.543    633.395    634.046    632.543    632.543
 18.070    591.000    634.299    -43.299    631.915    632.768    633.446    631.915    631.915
 18.170    630.000    633.705     -3.705    631.291    632.145    632.851    631.291    631.291
 18.270    612.748    633.116    -20.368    630.670    631.526    632.259    630.670    630.670
 18.370    609.000    632.532    -23.532    630.053    630.912    631.673    630.053    630.053
 18.470    635.000    631.953      3.047    629.440    630.302    631.091    629.440    629.440
 18.570    635.000    631.379      3.621    628.830    629.695    630.514    628.830    628.830
 18.670    637.000    630.810      6.190    628.224    629.093    629.941    628.224    628.224
 18.770    649.000    630.247     18.753    627.622    628.497    629.373    627.622    627.622
 18.870    678.445    629.699     48.745    627.024    627.913    628.810    627.024    627.024
 18.970    645.000    629.148     15.852    626.429    627.326    628.251    626.429    626.429
 19.070    626.000    628.600     -2.600    625.838    626.740    627.698    625.838    625.838
 19.170    593.816    628.057    -34.242    625.250    626.159    627.149    625.250    625.250
 19.270    592.000    627.520    -35.520    624.666    625.582    626.604    624.666    624.666
 19.370    601.000    626.990    -25.990    624.086    625.011    626.065    624.086    624.086
 19.470    608.000    626.464    -18.464    623.509    624.442    625.531    623.509    623.509
 19.570    585.000    625.944    -40.944    622.936    623.878    625.002    622.936    622.936
 19.670    618.000    625.448     -7.448    622.367    623.332    624.483    622.367    622.367
 19.770    654.000    624.992     29.008    621.801    622.815    623.978    621.801    621.801
 19.870    594.000    624.495    -30.495    621.239    622.269    623.465    621.239    621.239
 19.970    607.000    624.020    -17.020    620.680    621.743    622.957    620.680    620.680
 20.070    580.000    623.533    -43.533    620.125    621.204    622.454    620.125    620.125
 20.170    635.959    623.050     12.909    619.574    620.667    621.957    619.574    619.574
 20.270    585.000    622.576    -37.576    619.026    620.136    621.466    619.026    619.026
 20.370    602.000    622.131    -20.131    618.482    619.622    620.991    618.482    618.482
 20.470    607.000    621.693    -14.693    617.941    619.117    620.517    617.941    617.941
 20.570    588.000    621.268    -33.268    617.404    618.629    620.043    617.404    617.404
 20.670    634.000    620.850     13.150    616.870    618.146    619.574    616.870    616.870
 20.770    563.000    620.414    -57.414    616.340    617.643    619.111    616.340    616.340
 20.870    606.764    620.030    -13.266    615.813    617.189    618.655    615.813    615.813
 20.970    619.000    619.638     -0.638    615.290    616.724    618.204    615.290    615.290
 21.070    612.835    619.221     -6.386    614.771    616.232    617.760    614.771    614.771
 21.170    578.717    618.808    -40.090    614.255    615.741    617.322    614.255    614.255
 21.270    593.228    618.410    -25.182    613.742    615.258    616.894    613.742    613.742
 21.370    598.000    618.015    -20.015    613.233    614.777    616.471    613.233    613.233
 21.470    606.000    617.627    -11.627    612.728    614.301    616.053    612.728    612.728
 21.570    614.000    617.249     -3.249    612.226    613.831    615.643    612.226    612.226
 21.670    617.519    616.879      0.640    611.727    613.366    615.240    611.727    611.727
 21.770    594.000    616.524    -22.524    611.232    612.911    614.844    611.232    611.232
 21.870    638.239    616.177     22.062    610.740    612.461    614.456    610.740    610.740
 21.970    661.757    615.836     45.921    610.252    612.011    614.076    610.252    610.252
 22.070    637.000    615.506     21.494    609.767    611.568    613.705    609.767    609.767
 22.170    611.000    615.188     -4.188    609.285    611.131    613.342    609.285    609.285
 22.270    581.377    614.883    -33.506    608.807    610.702    612.988    608.807    608.807
 22.370    564.000    614.591    -50.591    608.333    610.280    612.644    608.333    608.333
 22.470    658.329    614.315     44.014    607.862    609.868    612.309    607.862    607.862
 22.570    581.000    614.054    -33.054    607.394    609.464    611.984    607.394    607.394
 22.670    582.512    613.811    -31.300    606.929    609.071    611.670    606.929    606.929
 22.770    620.000    613.589      6.411    606.468    608.691    611.367    606.468    606.468
 22.870    560.000    613.388    -53.388    606.011    608.323    611.075    606.011    606.011
 22.970    597.000    613.208    -16.208    605.556    607.969    610.795    605.556    605.556
 23.070    639.882    613.057     26.825    605.105    607.633    610.530    605.105    605.105
 23.170    645.000    612.936     32.064    604.658    607.317    610.277    604.658    604.658
 23.270    570.000    612.844    -42.844    604.213    607.020    610.038    604.213    604.213
 23.370    660.571    612.791     47.780    603.772    606.750    609.813    603.772    603.772
 23.470    641.000    612.783     28.217    603.335    606.514    609.605    603.335    603.335
 23.570    655.217    612.829     42.387    602.900    606.318    609.413    602.900    602.900
 23.670    623.000    612.942     10.058    602.469    606.173    609.239    602.469    602.469
 23.770    606.000    613.137     -7.137    602.041    606.094    609.085    602.041    602.041
 23.870    605.000    613.435     -8.435    601.617    606.103    608.951    601.617    601.617
 23.970    613.000    613.871     -0.871    601.196    606.230    608.838    601.196    601.196
 24.070    622.000    614.500      7.500    600.778    606.530    608.749    600.778    600.778
 24.170    598.261    615.431    -17.170    600.363    607.111    608.686    600.363    600.363
 24.270    661.000    616.899     44.101    599.952    608.205    608.650    599.952    599.952
 24.370    611.000    619.397     -8.397    599.543    610.303    608.643    599.543    599.543
 24.470    643.000    623.830     19.170    599.138    614.308    608.668    599.138    599.138
 24.570    625.087    631.499     -6.412    598.737    621.521    608.729    598.737    598.737
 24.670    670.000    643.656     26.344    598.338    633.187    608.828    598.338    598.338
 24.770    647.000    660.371    -13.371    597.943    649.378    608.969    597.943    597.943
 24.870    640.106    678.751    -38.645    597.550    667.192    609.156    597.550    597.550
 24.970    663.946    691.590    -27.643    597.161    679.412    609.394    597.161    597.161
 25.070    737.800    691.327     46.473    596.776    678.470    609.688    596.776    596.776
 25.170    685.083    678.438      6.645    596.393    664.833    610.044    596.393    596.393
 25.270    676.000    660.751     15.249    596.013    646.327    610.470    596.013    596.013
 25.370    649.000    645.128      3.872    595.637    629.813    610.973    595.637    595.637
 25.470    591.480    634.175    -42.695    595.264    617.887    611.565    595.264    595.264
 25.570    618.082    627.689     -9.607    594.894    610.336    612.255    594.894    594.894
 25.670    643.176    624.411     18.765    594.527    605.886    613.056    594.527    594.527
 25.770    624.000    623.082      0.918    594.163    603.262    613.986    594.163    594.163
 25.870    573.785    622.857    -49.072    593.802    601.600    615.061    593.802    593.802
 25.970    634.000    623.297     10.703    593.444    600.438    616.304    593.444    593.444
 26.070    634.000    624.208      9.792    593.090    599.558    617.741    593.090    593.090
 26.170    649.225    625.526     23.699    592.738    598.859    619.405    592.738    592.738
 26.270    658.662    627.239     31.423    592.390    598.294    621.334    592.390    592.390
 26.370    634.000    629.369      4.631    592.044    597.834    623.578    592.044    592.044
 26.470    663.142    631.960     31.182    591.702    597.465    626.195    591.702    591.702
 26.570    622.892    635.078    -12.185    591.363    597.176    629.262    591.363    591.363
 26.670    600.783    638.817    -38.034    591.026    596.965    632.876    591.026    591.026
 26.770    592.000    643.301    -51.301    590.693    596.832    637.159    590.693    590.693
 26.870    631.000    648.690    -17.690    590.363    596.781    642.268    590.363    590.363
 26.970    688.000    655.211     32.789    590.035    596.824    648.417    590.035    590.035
 27.070    640.000    663.171    -23.171    589.711    596.981    655.895    589.711    589.711
 27.170    642.301    672.975    -30.674    589.390    597.266    665.092    589.390    589.390
 27.270    727.299    685.214     42.085    589.071    597.718    676.558    589.071    589.071
 27.370    709.730    700.735      8.995    588.756    598.389    691.090    588.756    588.756
 27.470    710.000    720.831    -10.831    588.443    599.359    709.900    588.443    588.443
 27.570    764.000    747.765     16.235    588.134    600.767    735.114    588.134    588.134
 27.670    845.000    786.783     58.217    587.827    602.932    771.652    587.827    587.827
 27.770    835.000    853.315    -18.315    587.523    606.794    834.001    587.523    587.523
 27.870   1008.000    992.658     15.342    587.222    615.103    964.692    587.222    587.222
 27.970   1255.000   1313.150    -58.150    586.924    634.428   1265.461    586.924    586.924
 28.070   1924.000   1997.437    -73.437    586.629    675.848   1907.852    586.629    586.629
 28.170   3298.128   3207.157     90.972    586.337    749.177   3043.713    586.337    586.337
 28.270   4639.000   4839.698   -200.698    586.048    848.249   4576.720    586.048    586.048
 28.370   6377.755   6300.867     76.887    585.761    937.179   5948.736    585.761    585.761
 28.470   6840.000   6716.182    123.818    585.478    963.252   6337.998    585.478    585.478
 28.570   6148.000   5809.206    338.794    585.197    910.350   5483.929    585.197    585.197
 28.670   4259.836   4351.923    -92.088    584.919    826.489   4110.342    584.919    584.919
 28.770   3201.496   3259.953    -58.457    584.644    768.896   3075.670    584.644    584.644
 28.870   2786.000   2921.496   -135.496    584.372    762.267   2743.512    584.372    584.372
 28.970   3285.000   3204.000     81.000    584.102    797.096   2990.914    584.102    584.102
 29.070   3661.000   3657.253      3.747    583.835    840.076   3401.017    583.835    583.835
 29.170   3661.237   3759.941    -98.704    583.571    850.672   3492.994    583.571    583.571
 29.270   3309.000   3295.082     13.918    583.310    812.216   3066.408    583.310    583.310
 29.370   2463.354   2526.251    -62.897    583.052    747.640   2361.875    583.052    583.052
 29.470   1790.000   1806.121    -16.121    582.796    687.009   1702.056    582.796    582.796
 29.570   1371.637   1299.431     72.206    582.543    644.352   1237.706    582.543    582.543
 29.670    996.919   1006.339     -9.420    582.293    619.724    968.949    582.293    582.293
 29.770    916.000    856.589     59.411    582.045    607.204    831.448    582.045    582.045
 29.870    837.000    781.541     55.459    581.800    601.002    762.348    581.800    581.800
 29.970    827.000    739.926     87.074    581.558    597.642    723.847    581.558    581.558
 30.070    753.000    713.104     39.896    581.319    595.567    698.858    581.319    581.319
 30.170    687.776    693.881     -6.105    581.082    594.195    680.768    581.082    581.082
 30.270    722.000    679.473     42.527    580.848    593.335    666.984    580.848    580.848
 30.370    685.000    668.687     16.313    580.616    592.981    656.319    580.616    580.616
 30.470    735.000    661.175     73.825    580.387    593.327    648.231    580.387    580.387
 30.570    660.000    657.453      2.547    580.161    594.903    642.703    580.161    580.161
 30.670    669.992    659.089     10.903    579.937    598.730    640.283    579.937    579.937
 30.770    704.172    668.401     35.772    579.716    606.177    641.917    579.716    579.716
 30.870    695.876    687.017      8.859    579.498    618.213    648.264    579.498    579.498
 30.970    737.000    713.224     23.776    579.282    633.998    658.452    579.282    579.282
 31.070    729.905    738.916     -9.011    579.069    649.260    668.653    579.069    579.069
 31.170    758.000    749.406      8.594    578.858    656.203    671.986    578.858    578.858
 31.270    724.000    735.128    -11.128    578.650    649.751    663.963    578.650    578.650
 31.370    697.019    704.371     -7.351    578.444    634.358    648.412    578.444    578.444
 31.470    624.447    671.722    -47.276    578.241    617.837    632.098    578.241    578.241
 31.570    641.000    645.753     -4.753    578.041    604.785    618.992    578.041    578.041
 31.670    696.000    628.462     67.538    577.843    596.285    610.010    577.843    577.843
 31.770    603.000    618.190    -15.190    577.647    591.466    604.365    577.647    577.647
 31.870    678.000    612.320     65.680    577.454    588.941    600.828    577.454    577.454
 31.970    664.000    608.800     55.200    577.263    587.625    598.434    577.263    577.263
 32.070    643.000    606.466     36.534    577.075    586.906    596.632    577.075    577.075
 32.170    628.000    604.784     23.216    576.890    586.506    595.164    576.890    576.890
 32.270    605.000    603.530      1.470    576.706    586.315    593.919    576.706    576.706
 32.370    655.000    602.612     52.388    576.526    586.291    592.844    576.526    576.526
 32.470    590.041    601.990    -11.948    576.347    586.421    591.913    576.347    576.347
 32.570    617.000    601.647     15.353    576.171    586.707    591.108    576.171    576.171
 32.670    608.000    601.586      6.414    575.998    587.161    590.421    575.998    575.998
 32.770    638.000    601.828     36.172    575.826    587.805    589.847    575.826    575.826
 32.870    643.000    602.409     40.591    575.658    588.677    589.387    575.658    575.658
 32.970    669.000    603.391     65.609    575.491    589.830    589.049    575.491    575.491
 33.070    623.000    604.864     18.136    575.327    591.340    588.849    575.327    575.327
 33.170    630.000    606.972     23.028    575.165    593.324    588.811    575.165    575.165
 33.270    619.826    609.955      9.871    575.006    595.975    588.982    575.006    575.006
 33.370    630.000    614.281     15.719    574.849    599.668    589.458    574.849    574.849
 33.470    652.000    620.970     31.030    574.694    605.213    590.446    574.694    574.694
 33.570    669.663    632.257     37.406    574.542    614.382    592.409    574.542    574.542
 33.670    666.000    652.574     13.426    574.391    630.690    596.263    574.391    574.391
 33.770    702.488    689.225     13.264    574.244    659.928    603.521    574.244    574.244
 33.870    732.000    751.320    -19.320    574.098    709.318    616.069    574.098    574.098
 33.970    791.805    845.425    -53.620    573.955    784.065    635.269    573.955    573.955
 34.070   1016.000    967.690     48.310    573.813    881.121    660.321    573.813    573.813
 34.170   1098.000   1093.991      4.009    573.675    981.370    686.225    573.675    573.675
 34.270   1169.000   1176.363     -7.363    573.538   1046.799    703.038    573.538    573.538
 34.370   1192.354   1169.906     22.448    573.403   1041.815    701.451    573.403    573.403
 34.470   1078.000   1078.669     -0.669    573.271    969.618    682.301    573.271    573.271
 34.570    909.799    950.340    -40.541    573.141    868.003    655.471    573.141    573.141
 34.670    827.000    830.167     -3.167    573.013    772.838    630.341    573.013    573.013
 34.770    726.000    739.353    -13.353    572.887    700.934    611.306    572.887    572.887
 34.870    685.119    680.037      5.083    572.764    653.989    598.812    572.764    572.764
 34.970    664.000    645.038     18.962    572.642    626.311    591.368    572.642    572.642
 35.070    686.000    625.342     60.658    572.523    610.756    587.107    572.523    572.523
 35.170    653.000    613.997     39.003    572.406    601.814    584.587    572.406    572.406
 35.270    606.637    606.883     -0.246    572.291    596.219    582.954    572.291    572.291
 35.370    693.000    601.948     91.052    572.178    592.342    581.782    572.178    572.178
 35.470    601.000    598.256      2.744    572.067    589.443    580.878    572.067    572.067
 35.570    637.000    595.369     41.631    571.958    587.175    580.152    571.958    571.958
 35.670    636.399    593.057     43.343    571.851    585.352    579.555    571.851    571.851
 35.770    576.000    591.175    -15.175    571.747    583.862    579.059    571.747    571.747
 35.870    638.537    589.629     48.909    571.644    582.626    578.645    571.644    571.644
 35.970    581.000    588.348     -7.348    571.543    581.591    578.299    571.543    571.543
 36.070    584.483    587.284     -2.801    571.445    580.715    578.013    571.445    571.445
 36.170    608.514    586.400     22.114    571.348    579.968    577.780    571.348    571.348
 36.270    581.524    585.671     -4.147    571.254    579.327    577.597    571.254    571.254
 36.370    543.357    585.077    -41.720    571.161    578.775    577.462    571.161    571.161
 36.470    575.000    584.607     -9.607    571.070    578.298    577.378    571.070    571.070
 36.570    568.000    584.253    -16.253    570.982    577.888    577.346    570.982    570.982
 36.670    610.429    584.014     26.415    570.895    577.537    577.371    570.895    570.895
 36.770    606.518    583.894     22.624    570.810    577.241    577.463    570.810    570.810
 36.870    581.550    583.905     -2.355    570.727    576.999    577.632    570.727    570.727
 36.970    545.927    584.065    -38.137    570.646    576.815    577.895    570.646    570.646
 37.070    587.000    584.410      2.590    570.567    576.699    578.278    570.567    570.567
 37.170    598.000    585.009     12.991    570.490    576.680    578.818    570.490    570.490
 37.270    589.567    585.989      3.578    570.415    576.818    579.585    570.415    570.415
 37.370    571.263    587.594    -16.332    570.341    577.222    580.713    570.341    570.341
 37.470    543.000    590.271    -47.271    570.270    578.055    582.485    570.270    570.270
 37.570    617.000    594.778     22.222    570.200    579.508    585.469    570.200    570.200
 37.670    606.000    602.260      3.740    570.132    581.710    590.680    570.132    570.132
 37.770    645.000    614.147     30.853    570.066    584.585    599.624    570.066    570.066
 37.870    667.000    631.665     35.335    570.002    587.664    613.997    570.002    570.002
 37.970    687.000    654.904     32.096    569.939    589.984    634.852    569.939    569.939
 38.070    646.000    681.873    -35.873    569.879    590.503    661.239    569.879    569.879
 38.170    739.000    707.781     31.219    569.820    589.010    688.580    569.820    569.820
 38.270    739.000    724.510     14.490    569.762    586.287    707.976    569.762    569.762
 38.370    679.000    723.695    -44.695    569.707    583.258    710.139    569.707    569.707
 38.470    675.103    704.555    -29.452    569.653    580.499    693.708    569.653    569.653
 38.570    675.000    675.609     -0.609    569.602    578.296    666.916    569.602    569.602
 38.670    649.000    646.637      2.363    569.551    576.710    639.479    569.551    569.551
 38.770    602.000    623.124    -21.124    569.503    575.648    616.981    569.503    569.503
 38.870    619.956    606.514     13.443    569.456    574.962    601.009    569.456    569.456
 38.970    640.247    595.915     44.332    569.411    574.520    590.806    569.411    569.411
 39.070    547.394    589.574    -42.180    569.367    574.227    584.715    569.367    569.367
 39.170    575.380    585.833    -10.453    569.326    574.022    581.136    569.326    569.326
 39.270    580.384    583.526     -3.142    569.286    573.872    578.940    569.286    569.286
 39.370    583.396    581.982      1.414    569.247    573.757    577.472    569.247    569.247
 39.470    597.000    580.861     16.139    569.210    573.667    576.404    569.210    569.210
 39.570    604.256    580.000     24.256    569.175    573.598    575.576    569.175    569.175
 39.670    591.000    579.316     11.684    569.141    573.546    574.911    569.141    569.141
 39.770    578.000    578.763     -0.763    569.109    573.508    574.364    569.109    569.109
 39.870    585.000    578.312      6.688    569.079    573.483    573.908    569.079    569.079
 39.970    607.000    577.943     29.057    569.050    573.471    573.521    569.050    569.050
 40.070    558.204    577.640    -19.435    569.022    573.471    573.191    569.022    569.022
 40.170    576.000    577.390     -1.390    568.996    573.479    572.907    568.996    568.996
 40.270    602.347    577.187     25.161    568.972    573.499    572.660    568.972    568.972
 40.370    552.000    577.028    -25.028    568.949    573.534    572.443    568.949    568.949
 40.470    597.000    576.907     20.093    568.928    573.582    572.253    568.928    568.928
 40.570    529.000    576.820    -47.820    568.908    573.644    572.084    568.908    568.908
 40.670    563.000    576.766    -13.766    568.890    573.721    571.935    568.890    568.890
 40.770    569.000    576.743     -7.743    568.873    573.814    571.802    568.873    568.873
 40.870    532.000    576.751    -44.751    568.858    573.926    571.683    568.858    568.858
 40.970    592.216    576.792     15.424    568.844    574.059    571.577    568.844    568.844
 41.070    569.000    576.868     -7.868    568.831    574.216    571.483    568.831    568.831
 41.170    560.000    576.981    -16.981    568.820    574.402    571.399    568.820    568.820
 41.270    573.000    577.136     -4.136    568.811    574.622    571.326    568.811    568.811
 41.370    572.727    577.340     -4.614    568.802    574.883    571.261    568.802    568.802
 41.470    563.405    577.603    -14.197    568.795    575.194    571.205    568.795    568.795
 41.570    519.000    577.935    -58.935    568.790    575.568    571.158    568.790    568.790
 41.670    606.149    578.354     27.795    568.786    576.021    571.120    568.786    568.786
 41.770    588.000    578.888      9.112    568.783    576.581    571.092    568.783    568.783
 41.870    555.000    579.580    -24.580    568.782    577.290    571.074    568.782    568.782
 41.970    594.526    580.515     14.011    568.782    578.228    571.071    568.782    568.782
 42.070    559.000    581.860    -22.860    568.783    579.558    571.087    568.783    568.783
 42.170    554.589    583.942    -29.352    568.785    581.595    571.136    568.785    568.785
 42.270    552.000    587.347    -35.347    568.789    584.902    571.239    568.789    568.789
 42.370    570.000    592.986    -22.986    568.794    590.355    571.432    568.794    568.794
 42.470    569.000    602.019    -33.019    568.801    599.069    571.760    568.801    568.801
 42.570    587.418    615.508    -28.090    568.808    612.069    572.264    568.808    568.808
 42.670    661.314    633.777     27.537    568.817    629.663    572.955    568.817    568.817
 42.770    631.356    655.520    -24.164    568.827    650.598    573.783    568.827    568.827
 42.870    619.000    676.854    -57.854    568.839    671.139    574.598    568.839    568.839
 42.970    665.000    691.227    -26.227    568.851    684.985    575.147    568.851    568.851
 43.070    652.000    692.426    -40.426    568.865    686.158    575.190    568.865    568.865
 43.170    651.000    679.842    -28.842    568.880    674.072    574.702    568.880    568.880
 43.270    607.000    659.150    -52.150    568.896    654.185    573.904    568.896    568.896
 43.370    625.000    637.215    -12.215    568.913    633.101    573.060    568.913    568.913
 43.470    612.680    618.376     -5.696    568.932    614.992    572.338    568.932    568.932
 43.570    581.880    604.261    -22.381    568.952    601.426    571.801    568.952    568.952
 43.670    603.000    594.727      8.273    568.972    592.265    571.444    568.972    568.972
 43.770    572.000    588.768    -16.768    568.994    586.542    571.226    568.994    568.994
 43.870    572.000    585.206    -13.206    569.017    583.124    571.104    569.017    569.017
 43.970    559.000    583.082    -24.082    569.041    581.086    571.040    569.041    569.041
 44.070    567.000    581.761    -14.761    569.066    579.821    571.009    569.066    569.066
 44.170    595.176    580.885     14.291    569.093    578.982    570.997    569.093    569.093
 44.270    569.813    580.268    -10.456    569.120    578.392    570.998    569.120    569.120
 44.370    615.000    579.819     35.181    569.148    577.962    571.007    569.148    569.148
 44.470    605.000    579.489     25.511    569.178    577.645    571.023    569.178    569.178
 44.570    608.000    579.250     28.750    569.208    577.413    571.045    569.208    569.208
 44.670    569.000    579.082    -10.082    569.239    577.249    571.073    569.239    569.239
 44.770    603.000    578.973     24.027    569.272    577.141    571.104    569.272    569.272
 44.870    606.217    578.913     27.304    569.305    577.079    571.140    569.305    569.305
 44.970    544.000    578.895    -34.895    569.340    577.055    571.180    569.340    569.340
 45.070    619.701    578.914     40.786    569.375    577.065    571.224    569.375    569.375
 45.170    598.182    578.966     19.216    569.411    577.106    571.272    569.411    569.411
 45.270    580.751    579.048      1.703    569.449    577.173    571.324    569.449    569.449
 45.370    531.089    579.157    -48.069    569.487    577.265    571.379    569.487    569.487
 45.470    591.000    579.293     11.707    569.526    577.381    571.438    569.526    569.526
 45.570    562.000    579.455    -17.455    569.566    577.519    571.501    569.566    569.566
 45.670    596.000    579.642     16.358    569.607    577.680    571.569    569.607    569.607
 45.770    588.000    579.855      8.145    569.649    577.863    571.640    569.649    569.649
 45.870    586.000    580.094      5.906    569.692    578.068    571.717    569.692    569.692
 45.970    563.000    580.361    -17.361    569.735    578.298    571.797    569.735    569.735
 46.070    619.000    580.657     38.343    569.780    578.553    571.883    569.780    569.780
 46.170    553.000    580.986    -27.986    569.825    578.835    571.975    569.825    569.825
 46.270    588.000    581.349      6.651    569.871    579.146    572.072    569.871    569.871
 46.370    598.000    581.751     16.249    569.918    579.491    572.176    569.918    569.918
 46.470    576.000    582.196     -6.196    569.966    579.873    572.288    569.966    569.966
 46.570    590.000    582.692      7.308    570.014    580.298    572.407    570.014    570.014
 46.670    589.000    583.246      5.754    570.063    580.772    572.536    570.063    570.063
 46.770    598.721    583.869     14.852    570.113    581.306    572.675    570.113    570.113
 46.870    588.000    584.576      3.424    570.164    581.911    572.827    570.164    570.164
 46.970    572.006    585.389    -13.383    570.216    582.609    572.993    570.216    570.216
 47.070    598.000    586.345     11.655    570.268    583.431    573.179    570.268    570.268
 47.170    587.152    587.514     -0.362    570.321    584.441    573.392    570.321    570.321
 47.270    610.000    589.026     20.974    570.375    585.752    573.645    570.375    570.375
 47.370    580.000    591.116    -11.116    570.430    587.578    573.962    570.430    570.430
 47.470    585.000    594.177     -9.177    570.485    590.269    574.385    570.485    570.485
 47.570    609.751    598.777     10.974    570.541    594.336    574.971    570.541    570.541
 47.670    573.421    605.601    -32.180    570.597    600.392    575.791    570.597    570.597
 47.770    622.000    615.254      6.746    570.654    608.979    576.907    570.654    570.654
 47.870    617.571    627.929    -10.358    570.712    620.271    578.339    570.712    570.712
 47.970    654.000    642.991     11.009    570.771    633.695    580.026    570.771    570.771
 48.070    664.000    658.520      5.480    570.830    647.524    581.775    570.830    570.830
 48.170    641.111    671.050    -29.938    570.889    658.642    583.240    570.889    570.889
 48.270    626.650    676.469    -49.819    570.950    663.353    584.007    570.950    570.950
 48.370    669.000    672.916     -3.916    571.011    659.980    583.893    571.011    571.011
 48.470    647.489    662.680    -15.191    571.072    650.575    583.132    571.072    571.072
 48.570    709.000    650.008     58.992    571.134    638.946    582.161    571.134    571.134
 48.670    600.908    638.287    -37.378    571.197    628.131    581.327    571.197    571.197
 48.770    633.000    629.342      3.658    571.260    619.759    580.824    571.260    571.260
 48.870    625.000    623.777      1.223    571.324    614.362    580.725    571.324    571.324
 48.970    611.327    621.437    -10.110    571.388    611.785    581.030    571.388    571.388
 49.070    572.012    621.835    -49.823    571.453    611.570    581.709    571.453    571.453
 49.170    614.590    624.489     -9.899    571.518    613.255    582.745    571.518    571.518
 49.270    635.000    629.170      5.830    571.584    616.586    584.161    571.584    571.584
 49.370    643.000    636.115      6.885    571.650    621.682    586.075    571.650    571.650
 49.470    619.000    646.447    -27.447    571.717    629.348    588.807    571.717    571.717
 49.570    623.000    663.118    -40.118    571.784    641.761    593.127    571.784    571.784
 49.670    698.000    692.729      5.271    571.851    663.827    600.730    571.851    571.851
 49.770    739.000    748.120     -9.120    571.919    705.104    614.894    571.919    571.919
 49.870    810.000    850.430    -40.430    571.988    781.362    640.984    571.988    571.988
 49.970    996.852   1027.770    -30.918    572.057    913.545    686.164    572.057    572.057
 50.070   1376.974   1306.858     70.116    572.126   1121.412    757.400    572.126    572.126
 50.170   1587.000   1695.735   -108.735    572.196   1411.041    856.669    572.196    572.196
 50.270   2098.000   2164.183    -66.183    572.266   1759.959    976.248    572.266    572.266
 50.370   2617.000   2630.500    -13.500    572.336   2107.355   1095.272    572.336    572.336
 50.470   2875.000   2968.625    -93.625    572.407   2359.380   1181.538    572.407    572.407
 50.570   3094.838   3055.123     39.715    572.478   2424.123   1203.492    572.478    572.478
 50.670   2918.000   2852.461     65.539    572.550   2273.636   1151.496    572.550    572.550
 50.770   2470.000   2443.868     26.132    572.621   1969.931   1046.731    572.621    572.621
 50.870   1942.000   1965.348    -23.348    572.693   1614.374    923.841    572.693    572.693
 50.970   1466.836   1528.287    -61.451    572.766   1290.023    811.175    572.766    572.766
 51.070   1206.000   1192.093     13.907    572.839   1041.214    723.824    572.839    572.839
 51.170    955.060    968.213    -13.152    572.912    876.492    664.704    572.912    572.912
 51.270    780.000    837.493    -57.493    572.985    781.475    629.052    572.985    572.985
 51.370    781.306    769.708     11.597    573.058    733.320    609.484    573.058    573.058
 51.470    801.000    737.025     63.975    573.132    710.705    599.485    573.132    573.132
 51.570    724.319    719.593      4.726    573.206    698.103    594.726    573.206    573.206
 51.670    694.000    706.431    -12.431    573.280    686.850    592.888    573.280    573.280
 51.770    706.756    693.926     12.830    573.355    674.378    592.923    573.355    573.355
 51.870    662.287    682.424    -20.136    573.429    661.516    594.351    573.429    573.429
 51.970    678.000    673.042      4.958    573.504    649.779    596.774    573.504    573.504
 52.070    737.000    666.223     70.777    573.579    640.199    599.605    573.579    573.579
 52.170    613.376    661.490    -48.114    573.655    633.175    601.966    573.655    573.655
 52.270    711.000    657.758     53.242    573.730    628.633    602.849    573.730    573.730
 52.370    682.513    654.091     28.422    573.806    626.239    601.651    573.806    573.806
 52.470    685.000    650.369     34.631    573.881    625.618    598.627    573.881    573.881
 52.570    660.000    647.195     12.805    573.957    626.501    594.646    573.957    573.957
 52.670    677.000    645.420     31.580    574.033    628.844    590.605    574.033    574.033
 52.770    668.000    645.939     22.061    574.109    632.926    587.119    574.109    574.109
 52.870    686.745    649.806     36.939    574.185    639.509    584.480    574.185    574.185
 52.970    690.000    658.529     31.471    574.262    650.056    582.731    574.262    574.262
 53.070    722.000    674.424     47.576    574.338    666.976    581.781    574.338    574.338
 53.170    711.000    700.825     10.175    574.414    693.724    581.508    574.414    574.414
 53.270    750.000    741.852      8.148    574.491    734.510    581.823    574.491    574.491
 53.370    767.000    801.476    -34.476    574.567    793.374    582.655    574.567    574.567
 53.470    899.617    881.899     17.717    574.644    872.576    583.949    574.644    574.644
 53.570   1020.000    981.569     38.431    574.721    970.512    585.756    574.721    574.721
 53.670   1178.000   1092.448     85.552    574.797   1079.392    587.831    574.797    574.797
 53.770   1228.000   1198.201     29.799    574.874   1183.224    589.832    574.874    574.874
 53.870   1258.000   1274.416    -16.416    574.950   1258.084    591.271    574.950    574.950
 53.970   1272.000   1296.569    -24.569    575.027   1279.935    591.660    575.027    575.027
 54.070   1201.255   1256.124    -54.869    575.104   1240.408    590.828    575.104    575.104
 54.170   1146.000   1168.124    -22.124    575.180   1154.247    589.069    575.180    575.180
 54.270   1105.000   1058.935     46.065    575.257   1047.303    586.903    575.257    575.257
 54.370    877.000    950.994    -73.994    575.333    941.569    584.770    575.333    575.333
 54.470    815.378    857.771    -42.393    575.410    850.254    582.936    575.410    575.410
 54.570    755.000    784.892    -29.892    575.486    778.875    581.510    575.486    575.486
 54.670    704.000    732.459    -28.459    575.562    727.531    580.495    575.562    575.562
 54.770    660.000    697.342    -37.342    575.638    693.156    579.826    575.638    575.638
 54.870    626.050    675.197    -49.147    575.714    671.493    579.419    575.714    575.714
 54.970    661.000    661.899     -0.899    575.790    658.499    579.190    575.790    575.790
 55.070    717.000    654.257     62.743    575.866    651.046    579.077    575.866    575.866
 55.170    633.000    650.140    -17.140    575.942    647.044    579.038    575.942    575.942
 55.270    661.000    648.287     12.713    576.018    645.258    579.046    576.018    576.018
 55.370    614.722    648.026    -33.304    576.093    645.030    579.088    576.093    576.093
 55.470    688.000    649.046     38.954    576.168    646.055    579.158    576.168    576.168
 55.570    655.000    651.241      3.759    576.243    648.230    579.253    576.243    576.243
 55.670    607.271    654.644    -47.373    576.318    651.587    579.373    576.318    576.318
 55.770    638.000    659.413    -21.413    576.393    656.283    579.521    576.393    576.393
 55.870    616.000    665.895    -49.895    576.468    662.657    579.703    576.468    576.468
 55.970    711.899    674.778     37.121    576.542    671.387    579.930    576.542    576.542
 56.070    706.000    687.399     18.601    576.616    683.785    580.226    576.616    576.616
 56.170    712.000    706.258      5.742    576.690    702.308    580.633    576.690    576.690
 56.270    740.000    735.730      4.270    576.763    731.256    581.227    576.763    576.763
 56.370    738.000    782.811    -44.811    576.837    777.502    582.129    576.837    576.837
 56.470    806.425    857.446    -51.021    576.910    850.819    583.510    576.910    576.910
 56.570    923.000    971.792    -48.792    576.983    963.152    585.581    576.983    576.983
 56.670   1146.000   1137.735      8.265    577.055   1126.184    588.547    577.055    577.055
 56.770   1288.439   1362.524    -74.084    577.128   1347.041    592.534    577.128    577.128
 56.870   1666.180   1643.158     23.022    577.200   1622.777    597.490    577.200    577.200
 56.970   1982.000   1960.766     21.234    577.271   1934.851    603.091    577.271    577.271
 57.070   2282.000   2276.171      5.829    577.343   2244.769    608.663    577.343    577.343
 57.170   2529.000   2529.653     -0.653    577.414   2493.844    613.179    577.414    577.414
 57.270   2706.380   2654.490     51.890    577.485   2616.501    615.491    577.485    577.485
 57.370   2555.389   2610.959    -55.570    577.555   2573.686    614.915    577.555    577.555
 57.470   2324.648   2414.613    -89.965    577.625   2380.656    611.722    577.625    577.625
 57.570   2091.000   2123.813    -32.813    577.695   2094.747    606.924    577.695    577.695
 57.670   1783.078   1804.003    -20.926    577.764   1780.270    601.658    577.764    577.764
 57.770   1470.000   1504.729    -34.729    577.833   1485.908    596.793    577.833    577.833
 57.870   1218.000   1254.550    -36.550    577.901   1239.705    592.857    577.901    577.901
 57.970   1081.070   1063.934     17.135    577.970   1051.885    590.099    577.970    577.970
 58.070    874.000    930.574    -56.574    578.037    920.049    588.615    578.037    578.037
 58.170    828.095    845.348    -17.252    578.105    834.998    588.485    578.105    578.105
 58.270    815.000    797.630     17.370    578.172    785.906    589.910    578.172    578.172
 58.370    776.000    778.780     -2.780    578.238    763.764    593.254    578.238    578.238
 58.470    794.000    783.522     10.478    578.304    762.810    599.003    578.304    578.304
 58.570    822.639    809.507     13.132    578.370    780.287    607.564    578.370    578.370
 58.670    825.702    855.753    -30.050    578.435    815.179    618.970    578.435    578.435
 58.770    931.000    920.692     10.308    578.500    866.582    632.560    578.500    578.500
 58.870    926.000   1000.390    -74.390    578.564    932.125    646.772    578.564    578.564
 58.970   1110.941   1087.425     23.516    578.627   1006.825    659.171    578.627    578.627
 59.070   1129.000   1171.364    -42.364    578.691   1083.059    666.947    578.691    578.691
 59.170   1140.000   1241.810   -101.810    578.753   1152.460    668.071    578.753    578.753
 59.270   1266.545   1292.021    -25.476    578.816   1208.346    662.478    578.816    578.816
 59.370   1315.129   1318.905     -3.775    578.877   1245.762    652.027    578.877    578.877
 59.470   1368.452   1320.838     47.615    578.938   1260.491    639.309    578.938    578.938
 59.570   1328.812   1298.994     29.818    578.999   1251.430    626.596    578.999    578.999
 59.670   1352.000   1261.032     90.968    579.059   1224.685    615.436    579.059    579.059
 59.770   1269.000   1220.325     48.675    579.119   1192.855    606.599    579.119    579.119
 59.870   1240.000   1190.543     49.457    579.178   1169.524    600.176    579.178    579.178
 59.970   1251.706   1181.345     70.361    579.236   1164.729    595.791    579.236    579.236
 60.070   1173.120   1197.811    -24.691    579.294   1184.111    592.885    579.294    579.294
 60.170   1269.269   1241.841     27.427    579.351   1230.083    590.950    579.351    579.351
 60.270   1391.000   1312.098     78.902    579.408   1301.661    589.635    579.408    579.408
 60.370   1441.380   1401.267     40.113    579.464   1391.740    588.736    579.464    579.464
 60.470   1482.000   1493.456    -11.456    579.519   1484.545    588.143    579.519    579.519
 60.570   1596.000   1564.768     31.232    579.574   1556.258    587.788    579.574    579.574
 60.670   1585.000   1589.496     -4.496    579.628   1581.215    587.632    579.628    579.628
 60.770   1527.000   1552.483    -25.483    579.682   1544.282    587.648    579.682    579.682
 60.870   1511.000   1458.608     52.392    579.734   1450.339    587.823    579.734    579.734
 60.970   1302.000   1328.675    -26.675    579.787   1320.178    588.156    579.787    579.787
 61.070   1226.814   1187.371     39.443    579.838   1178.462    588.662    579.838    579.838
 61.170   1009.000   1054.796    -45.796    579.889   1045.250    589.380    579.889    579.889
 61.270    937.000    943.802     -6.802    579.939    933.305    590.400    579.939    579.939
 61.370    896.000    860.426     35.574    579.989    848.497    591.889    579.989    579.989
 61.470    832.284    805.719     26.566    580.038    791.583    594.147    580.038    580.038
 61.570    789.100    778.205     10.895    580.086    760.601    597.657    580.086    580.086
 61.670    795.303    776.232     19.071    580.133    753.188    603.134    580.133    580.133
 61.770    803.473    799.503      3.971    580.180    768.107    611.514    580.180    580.180
 61.870    846.000    849.357     -3.357    580.226    805.645    623.852    580.226    580.226
 61.970    894.000    927.767    -33.767    580.271    866.838    641.084    580.271    580.271
 62.070   1010.313   1035.350    -25.037    580.316    951.843    663.669    580.316    580.316
 62.170   1079.000   1168.952    -89.952    580.360   1057.945    691.174    580.360    580.360
 62.270   1321.000   1319.456      1.544    580.403   1177.744    721.886    580.403    580.403
 62.370   1423.000   1470.333    -47.333    580.445   1297.954    752.569    580.445    580.445
 62.470   1606.000   1597.810      8.190    580.487   1399.517    778.518    580.487    580.487
 62.570   1634.215   1674.888    -40.674    580.527   1460.801    794.371    580.527    580.527
 62.670   1667.000   1681.350    -14.350    580.567   1465.600    796.112    580.567    580.567
 62.770   1573.000   1615.027    -42.027    580.607   1412.160    783.315    580.607    580.607
 62.870   1537.234   1493.271     43.963    580.645   1314.357    759.445    580.645    580.645
 62.970   1317.000   1342.760    -25.760    580.683   1193.540    729.827    580.683    580.683
 63.070   1155.000   1188.321    -33.321    580.719   1069.580    699.413    580.719    580.719
 63.170   1078.000   1047.737     30.263    580.755    956.709    671.754    580.755    580.755
 63.270    960.316    931.022     29.294    580.790    862.940    648.854    580.790    580.790
 63.370    838.000    841.489     -3.489    580.825    790.923    631.377    580.825    580.825
 63.470    803.289    777.593     25.696    580.858    739.417    619.022    580.858    580.858
 63.570    740.093    735.051      5.042    580.891    704.989    610.941    580.891    580.891
 63.670    730.000    708.774     21.226    580.923    683.559    606.124    580.923    580.923
 63.770    734.575    694.287     40.288    580.953    671.536    603.689    580.953    580.953
 63.870    716.000    688.434     27.566    580.983    666.370    603.030    580.983    580.983
 63.970    697.000    689.612      7.388    581.013    666.723    603.880    581.013    581.013
 64.070    703.000    697.735      5.265    581.041    672.407    606.343    581.041    581.041
 64.170    686.000    714.029    -28.029    581.068    684.163    610.901    581.068    581.068
 64.270    741.995    740.709      1.286    581.095    703.354    618.404    581.095    581.095
 64.370    896.000    780.511    115.489    581.120    731.548    630.022    581.120    581.120
 64.470    858.000    836.006     21.994    581.145    769.977    647.090    581.145    581.145
 64.570    885.000    908.677    -23.677    581.169    818.902    670.834    581.169    581.169
 64.670    938.829    997.840    -59.011    581.192    876.948    701.944    581.192    581.192
 64.770   1121.000   1099.539     21.461    581.214    940.486    740.096    581.214    581.214
 64.870   1248.000   1205.641     42.359    581.235   1003.204    783.474    581.235    581.235
 64.970   1343.000   1303.716     39.284    581.255   1056.319    828.436    581.255    581.255
 65.070   1408.000   1378.777     29.223    581.274   1090.421    869.410    581.274    581.274
 65.170   1435.000   1417.395     17.605    581.292   1099.078    899.401    581.292    581.292
 65.270   1441.670   1412.426     29.244    581.309   1081.769    911.787    581.309    581.309
 65.370   1344.000   1365.817    -21.817    581.325   1043.654    903.347    581.325    581.325
 65.470   1220.022   1287.995    -67.972    581.341    993.014    876.221    581.341    581.341
 65.570   1233.000   1193.653     39.347    581.355    938.354    836.591    581.355    581.355
 65.670   1085.000   1096.559    -11.559    581.368    886.286    791.609    581.368    581.368
 65.770   1044.000   1006.485     37.515    581.381    840.627    747.231    581.381    581.381
 65.870    867.170    928.597    -61.427    581.392    802.501    707.495    581.392    581.392
 65.970    860.000    864.328     -4.328    581.402    771.190    674.556    581.402    581.402
 66.070    750.000    812.931    -62.931    581.412    745.366    648.995    581.412    581.412
 66.170    737.000    772.855    -35.855    581.420    724.021    630.271    581.420    581.420
 66.270    696.000    742.379    -46.379    581.427    706.611    617.208    581.427    581.427
 66.370    726.000    719.775      6.225    581.433    692.788    608.429    581.433    581.433
 66.470    689.000    703.446    -14.446    581.439    682.233    602.657    581.439    581.439
 66.570    703.000    692.074     10.926    581.443    674.649    598.869    581.443    581.443
 66.670    695.640    684.671     10.970    581.446    669.781    596.335    581.446    581.446
 66.770    616.000    680.554    -64.554    581.448    667.426    594.574    581.448    581.448
 66.870    700.281    679.310     20.971    581.449    667.461    593.295    581.449    581.449
 66.970    678.796    680.792     -1.996    581.449    669.904    592.333    581.449    581.449
 67.070    711.000    685.199     25.801    581.448    675.040    591.603    581.448    581.448
 67.170    727.000    693.223     33.777    581.446    683.597    591.068    581.446    581.446
 67.270    723.797    706.276     17.521    581.443    696.986    590.727    581.443    581.443
 67.370    692.000    726.747    -34.747    581.439    717.570    590.609    581.439    581.439
 67.470    796.596    758.258     38.338    581.433    748.909    590.773    581.433    581.433
 67.570    775.792    805.773    -29.981    581.427    795.879    591.306    581.427    581.427
 67.670    912.115    875.398     36.717    581.419    864.474    592.324    581.419    581.419
 67.770    943.000    973.703    -30.703    581.411    961.139    593.948    581.411    581.411
 67.870   1073.545   1106.446    -32.900    581.401   1091.525    596.288    581.401    581.401
 67.970   1239.000   1276.778    -37.778    581.390   1258.730    599.401    581.390    581.390
 68.070   1438.000   1483.182    -45.182    581.378   1461.269    603.255    581.378    581.378
 68.170   1646.658   1717.494    -70.836    581.365   1691.150    607.683    581.365    581.365
 68.270   2018.343   1963.355     54.988    581.351   1932.341    612.359    581.351    581.351
 68.370   2137.000   2195.457    -58.457    581.336   2160.040    616.780    581.336    581.336
 68.470   2446.974   2380.927     66.047    581.319   2342.030    620.291    581.319    581.319
 68.570   2449.000   2485.661    -36.661    581.302   2444.879    622.215    581.302    581.302
 68.670   2509.000   2486.686     22.314    581.283   2446.059    622.096    581.283    581.283
 68.770   2468.000   2383.739     84.261    581.263   2345.302    619.925    581.263    581.263
 68.870   2251.561   2199.425     52.137    581.242   2164.757    616.151    581.242    581.242
 68.970   2043.000   1967.769     75.231    581.220   1937.779    611.446    581.220    581.220
 69.070   1791.641   1721.761     69.880    581.197   1696.708    606.464    581.197    581.197
 69.170   1540.000   1486.881     53.119    581.172   1466.528    601.708    581.172    581.172
 69.270   1294.000   1279.657     14.343    581.147   1263.445    597.507    581.147    581.147
 69.370   1110.374   1108.393      1.980    581.120   1095.604    594.024    581.120    581.120
 69.470    993.000    974.714     18.286    581.092    964.599    591.292    581.092    581.092
 69.570    910.000    875.524     34.476    581.063    867.400    589.247    581.063    581.063
 69.670    834.000    805.081     28.919    581.032    798.378    587.777    581.032    581.032
 69.770    844.000    756.789     87.211    581.001    751.068    586.750    581.001    581.001
 69.870    732.833    724.482      8.351    580.968    719.425    586.044    580.968    580.968
 69.970    728.695    703.107     25.588    580.934    698.498    585.555    580.934    580.934
 70.070    679.000    688.923     -9.923    580.899    684.617    585.212    580.899    580.899
 70.170    626.335    679.383    -53.047    580.863    675.281    584.968    580.863    580.863
 70.270    635.464    672.860    -37.396    580.825    668.899    584.788    580.825    580.825
 70.370    676.433    668.383      8.050    580.787    664.517    584.653    580.787    580.787
 70.470    743.000    665.404     77.596    580.747    661.599    584.550    580.747    580.747
 70.570    699.000    663.641     35.359    580.706    659.867    584.477    580.706    580.706
 70.670    707.280    662.982     44.298    580.663    659.211    584.430    580.663    580.663
 70.770    645.000    663.452    -18.452    580.620    659.654    584.412    580.620    580.620
 70.870    676.000    665.217     10.783    580.575    661.357    584.427    580.575    580.575
 70.970    687.000    668.635     18.365    580.529    664.669    584.485    580.529    580.529
 71.070    688.000    674.347     13.653    580.482    670.211    584.605    580.482    580.482
 71.170    676.596    683.396     -6.800    580.433    678.998    584.814    580.433    580.433
 71.270    701.524    697.376      4.148    580.383    692.581    585.155    580.383    580.383
 71.370    763.000    718.559     44.441    580.332    713.170    585.690    580.332    580.332
 71.470    773.000    749.944     23.056    580.280    743.683    586.498    580.280    580.280
 71.570    767.000    795.152    -28.152    580.227    787.641    587.678    580.227    580.227
 71.670    832.000    858.079    -26.079    580.172    848.835    589.335    580.172    580.172
 71.770    905.875    942.264    -36.389    580.116    930.708    591.563    580.116    580.116
 71.870   1030.423   1049.994    -19.571    580.059   1035.486    594.425    580.059    580.059
 71.970   1198.548   1181.257     17.291    580.000   1163.157    597.922    580.000    580.000
 72.070   1335.000   1332.701      2.299    579.941   1310.459    601.964    579.941    579.941
 72.170   1540.278   1496.749     43.529    579.880   1470.021    606.352    579.880    579.880
 72.270   1593.273   1660.997    -67.724    579.817   1629.773    610.756    579.817    579.817
 72.370   1781.000   1808.178    -27.178    579.754   1772.912    614.715    579.754    579.754
 72.470   1972.000   1917.713     54.287    579.689   1879.416    617.681    579.689    579.689
 72.570   2027.987   1970.359     57.627    579.623   1930.553    619.143    579.623    579.623
 72.670   2037.275   1955.479     81.796    579.555   1915.967    618.818    579.555    579.555
 72.770   1925.000   1876.197     48.803    579.487   1838.689    616.791    579.487    579.487
 72.870   1725.000   1747.713    -22.713    579.417   1713.504    613.467    579.417    579.417
 72.970   1585.000   1590.510     -5.510    579.346   1560.348    609.392    579.346    579.346
 73.070   1423.000   1424.021     -1.021    579.273   1398.135    605.077    579.273    579.273
 73.170   1259.525   1263.468     -3.943    579.199   1241.693    600.919    579.199    579.199
 73.270   1184.938   1119.131     65.807    579.124   1101.043    597.175    579.124    579.124
 73.370   1022.000    996.674     25.326    579.048    981.716    593.982    579.048    579.048
 73.470    900.504    897.898      2.606    578.970    885.477    591.375    578.970    578.970
 73.570    793.000    821.717    -28.717    578.892    811.270    589.326    578.892    578.892
 73.670    779.000    765.233     13.767    578.811    756.260    587.774    578.811    578.811
 73.770    707.000    724.727    -17.727    578.730    716.803    586.645    578.730    578.730
 73.870    700.000    696.438      3.562    578.647    689.209    585.869    578.647    578.647
 73.970    714.533    677.065     37.468    578.563    670.232    585.389    578.563    578.563
 74.070    694.000    663.995     30.005    578.477    657.299    585.169    578.477    578.477
 74.170    617.000    655.337    -38.337    578.391    648.536    585.189    578.391    578.391
 74.270    684.874    649.818     35.056    578.303    642.676    585.444    578.303    578.303
 74.370    697.750    646.628     51.122    578.213    638.907    585.937    578.213    578.213
 74.470    597.809    645.263    -47.454    578.123    636.720    586.672    578.123    578.123
 74.570    694.826    645.382     49.444    578.031    635.784    587.639    578.031    578.031
 74.670    636.000    646.701    -10.701    577.938    635.841    588.813    577.938    577.938
 74.770    597.353    648.917    -51.565    577.843    636.638    590.143    577.843    577.843
 74.870    614.219    651.660    -37.440    577.747    637.886    591.547    577.747    577.747
 74.970    694.000    654.462     39.538    577.650    639.231    592.912    577.650    577.650
 75.070    664.000    656.775      7.225    577.552    640.263    594.099    577.552    577.552
 75.170    708.502    658.047     50.454    577.452    640.570    594.968    577.452    577.452
 75.270    612.339    657.884    -45.546    577.351    639.853    595.422    577.351    577.351
 75.370    681.796    656.232     25.564    577.248    638.055    595.464    577.248    577.248
 75.470    734.000    653.435     80.565    577.145    635.403    595.212    577.145    577.145
 75.570    644.000    650.139     -6.139    577.040    632.330    594.878    577.040    577.040
 75.670    715.000    647.122     67.878    576.933    629.353    594.726    576.933    576.933
 75.770    713.000    645.196     67.804    576.826    626.994    595.045    576.826    576.826
 75.870    671.000    645.182     25.818    576.717    625.759    596.149    576.717    576.717
 75.970    638.000    647.908     -9.908    576.606    626.137    598.378    576.606    576.606
 76.070    659.000    654.209      4.791    576.495    628.601    602.094    576.495    576.495
 76.170    615.000    664.884    -49.884    576.382    633.590    607.658    576.382    576.382
 76.270    615.000    680.616    -65.616    576.268    641.467    615.387    576.268    576.268
 76.370    698.000    701.852     -3.852    576.152    652.461    625.503    576.152    576.152
 76.470    743.000    728.652     14.348    576.035    666.582    638.051    576.035    576.035
 76.570    748.905    760.520    -11.616    575.917    683.543    652.826    575.917    575.917
 76.670    819.220    796.265     22.955    575.798    702.676    669.304    575.798    575.798
 76.770    854.218    833.872     20.346    575.677    722.867    686.586    575.677    575.677
 76.870    878.000    870.441      7.559    575.555    742.524    703.364    575.555    575.555
 76.970    909.185    902.242      6.943    575.431    759.603    717.954    575.431    575.431
 77.070    911.000    925.103    -14.103    575.307    771.821    728.469    575.307    575.307
 77.170    984.084    935.345     48.738    575.181    777.168    733.242    575.181    575.181
 77.270    932.000    931.074      0.926    575.053    774.606    731.413    575.053    575.053
 77.370    971.313    912.992     58.321    574.925    764.517    723.304    574.925    574.925
 77.470    885.000    884.068      0.932    574.795    748.517    710.264    574.795    574.795
 77.570    893.000    848.346     44.654    574.663    728.813    694.129    574.663    574.663
 77.670    807.000    809.791     -2.791    574.531    707.568    676.700    574.531    574.531
 77.770    832.000    771.668     60.332    574.397    686.562    659.461    574.397    574.397
 77.870    683.000    736.347    -53.347    574.262    667.088    643.488    574.262    574.262
 77.970    671.461    705.319    -33.858    574.125    649.961    629.460    574.125    574.125
 78.070    627.316    679.301    -51.984    573.987    635.569    617.702    573.987    573.987
 78.170    680.869    658.375     22.494    573.848    623.957    608.253    573.848    573.848
 78.270    642.000    642.166     -0.166    573.708    614.921    600.943    573.708    573.708
 78.370    614.000    630.024    -16.024    573.566    608.104    595.478    573.566    573.566
 78.470    622.000    621.183      0.817    573.423    603.088    591.512    573.423    573.423
 78.570    632.000    614.888     17.112    573.279    599.460    588.701    573.279    573.279
 78.670    610.000    610.475     -0.475    573.133    596.856    586.747    573.133    573.133
 78.770    639.681    607.411     32.271    572.987    594.985    585.407    572.987    572.987
 78.870    608.731    605.292      3.439    572.838    593.626    584.499    572.838    572.838
 78.970    618.000    603.837     14.163    572.689    592.624    583.897    572.689    572.689
 79.070    652.230    602.859     49.370    572.538    591.876    583.518    572.538    572.538
 79.170    614.000    602.248     11.752    572.386    591.320    583.310    572.386    572.386
 79.270    597.000    601.943     -4.943    572.233    590.923    583.249    572.233    572.233
 79.370    646.948    601.925     45.023    572.079    590.671    583.329    572.079    572.079
 79.470    607.257    602.206      5.051    571.923    590.566    583.559    571.923    571.923
 79.570    600.600    602.829     -2.230    571.766    590.624    583.966    571.766    571.766
 79.670    569.133    603.869    -34.736    571.607    590.870    584.601    571.607    571.607
 79.770    631.000    605.444     25.556    571.448    591.339    585.547    571.448    571.448
 79.870    577.000    607.731    -30.731    571.287    592.078    586.934    571.287    571.287
 79.970    591.000    610.993    -19.993    571.125    593.147    588.962    571.125    571.125
 80.070    638.000    615.602     22.398    570.961    594.626    591.928    570.961    570.961
 80.170    615.930    622.081     -6.151    570.796    596.614    596.252    570.796    570.796
 80.270    581.708    631.127    -49.419    570.631    599.243    602.499    570.631    570.631
 80.370    645.000    643.624      1.376    570.463    602.677    611.391    570.463    570.463
 80.470    642.000    660.621    -18.621    570.295    607.114    623.778    570.295    570.295
 80.570    649.657    683.261    -33.604    570.125    612.780    640.577    570.125    570.125
 80.670    667.727    712.662    -44.935    569.954    619.917    662.663    569.954    569.954
 80.770    745.000    749.747     -4.747    569.782    628.774    690.711    569.782    569.782
 80.870    800.134    795.045      5.089    569.609    639.588    725.014    569.609    569.609
 80.970    872.000    848.454     23.546    569.434    652.545    765.284    569.434    569.434
 81.070    907.363    908.992     -1.628    569.258    667.713    810.472    569.258    569.258
 81.170    916.437    974.590    -58.153    569.081    684.958    858.644    569.081    569.081
 81.270   1130.000   1041.986     88.014    568.903    703.875    906.943    568.903    568.903
 81.370   1123.000   1106.804     16.196    568.723    723.747    951.712    568.723    568.723
 81.470   1221.000   1163.972     57.028    568.543    743.597    988.858    568.543    568.543
 81.570   1270.000   1208.637     61.363    568.361    762.375   1014.574    568.361    568.361
 81.670   1323.000   1236.962     86.038    568.178    778.977   1026.131    568.178    568.178
 81.770   1269.000   1247.035     21.965    567.993    792.507   1022.509    567.993    567.993
 81.870   1261.939   1238.934     23.005    567.808    802.330   1004.418    567.808    567.808
 81.970   1216.045   1214.422      1.622    567.621    808.100    973.968    567.621    567.621
 82.070   1204.733   1176.550     28.182    567.433    809.763    934.261    567.433    567.433
 82.170   1136.000   1129.139      6.861    567.244    807.480    888.955    567.244    567.244
 82.270   1081.310   1076.120      5.190    567.054    801.509    841.726    567.054    567.054
 82.370    998.000   1020.986    -22.986    566.862    792.153    795.763    566.862    566.862
 82.470    910.869    966.553    -55.684    566.670    779.843    753.450    566.670    566.670
 82.570    937.264    914.959     22.304    566.476    765.222    716.283    566.476    566.476
 82.670    877.610    867.678      9.932    566.281    749.093    684.934    566.281    566.281
 82.770    774.000    825.494    -51.494    566.085    732.237    659.406    566.085    566.085
 82.870    789.000    788.557      0.443    565.887    715.275    639.229    565.887    565.887
 82.970    763.000    756.571      6.429    565.689    698.655    623.659    565.689    565.689
 83.070    704.843    729.059    -24.216    565.489    682.738    611.859    565.489    565.489
 83.170    649.000    705.585    -56.585    565.289    667.881    603.034    565.289    565.289
 83.270    675.000    685.830    -10.830    565.087    654.445    596.506    565.087    565.087
 83.370    677.918    669.580      8.339    564.884    642.753    591.737    564.884    564.884
 83.470    685.877    656.682     29.195    564.680    633.052    588.328    564.680    564.680
 83.570    672.782    647.004     25.778    564.475    625.490    585.999    564.475    564.475
 83.670    622.000    640.406    -18.406    564.268    620.119    584.558    564.268    564.268
 83.770    649.125    636.713     12.412    564.061    616.898    583.870    564.061    564.061
 83.870    618.000    635.682    -17.682    563.852    615.688    583.832    563.852    563.852
 83.970    656.328    636.982     19.346    563.643    616.259    584.343    563.643    563.643
 84.070    593.719    640.175    -46.457    563.432    618.287    585.289    563.432    563.432
 84.170    635.195    644.714     -9.519    563.220    621.361    586.534    563.220    563.220
 84.270    672.919    649.943     22.976    563.008    624.994    587.911    563.008    563.008
 84.370    650.276    655.117     -4.841    562.794    628.633    589.227    562.794    562.794
 84.470    654.000    659.442     -5.442    562.579    631.696    590.270    562.579    562.579
 84.570    651.464    662.156    -10.693    562.363    633.626    590.837    562.363    562.363
 84.670    620.000    662.667    -42.667    562.146    633.990    590.767    562.146    562.146
 84.770    628.000    660.696    -32.696    561.928    632.582    589.989    561.928    561.928
 84.870    680.441    656.357     24.084    561.708    629.475    588.541    561.708    561.708
 84.970    624.000    650.088    -26.088    561.488    624.976    586.556    561.488    561.488
 85.070    606.000    642.510    -36.510    561.267    619.522    584.217    561.267    561.267
 85.170    666.331    634.276     32.054    561.045    613.567    581.721    561.045    561.045
 85.270    635.296    625.990      9.306    560.822    607.531    579.253    560.822    560.822
 85.370    585.596    618.144    -32.548    560.598    601.746    576.972    560.598    560.598
 85.470    572.746    611.118    -38.372    560.372    596.461    575.010    560.372    560.372
 85.570    596.000    605.176     -9.176    560.146    591.833    573.473    560.146    560.146
 85.670    567.000    600.476    -33.476    559.919    587.939    572.441    559.919    559.919
 85.770    587.104    597.089     -9.985    559.691    584.791    571.975    559.691    559.691
 85.870    599.000    595.019      3.981    559.462    582.348    572.119    559.462    559.462
 85.970    579.000    594.222    -15.222    559.232    580.543    572.896    559.232    559.232
 86.070    557.000    594.626    -37.626    559.001    579.296    574.315    559.001    559.001
 86.170    617.000    596.140     20.860    558.769    578.534    576.358    558.769    558.769
 86.270    580.000    598.661    -18.661    558.536    578.199    578.977    558.536    558.536
 86.370    629.000    602.072     26.928    558.302    578.262    582.088    558.302    558.302
 86.470    668.000    606.244     61.756    558.067    578.721    585.563    558.067    558.067
 86.570    616.000    611.032      4.968    557.832    579.611    589.221    557.832    557.832
 86.670    604.000    616.274    -12.274    557.595    580.997    592.837    557.595    557.595
 86.770    650.000    621.792     28.208    557.357    582.974    596.135    557.357    557.357
 86.870    619.054    627.401     -8.347    557.119    585.663    598.812    557.119    557.119
 86.970    693.000    632.941     60.059    556.880    589.196    600.573    556.880    556.880
 87.070    652.000    638.315     13.685    556.640    593.708    601.189    556.640    556.640
 87.170    623.000    643.542    -20.542    556.399    599.317    600.561    556.399    556.399
 87.270    640.000    648.759     -8.759    556.157    606.099    598.746    556.157    556.157
 87.370    690.000    654.173     35.827    555.914    614.067    595.940    555.914    555.914
 87.470    660.000    659.971      0.029    555.671    623.145    592.408    555.671    555.671
 87.570    699.000    666.242     32.758    555.427    633.144    588.427    555.427    555.427
 87.670    680.000    672.920      7.080    555.182    643.742    584.251    555.182    555.182
 87.770    749.000    679.758     69.242    554.936    654.479    580.096    554.936    554.936
 87.870    711.000    686.323     24.677    554.689    664.755    576.130    554.689    554.689
 87.970    640.113    692.022    -51.909    554.441    673.851    572.477    554.441    554.441
 88.070    721.198    696.169     25.029    554.193    681.006    569.217    554.193    554.193
 88.170    737.000    698.123     38.877    553.944    685.543    566.386    553.944    553.944
 88.270    732.000    697.464     34.536    553.694    687.042    563.983    553.694    553.694
 88.370    685.000    694.126     -9.126    553.444    685.462    561.983    553.444    553.444
 88.470    700.000    688.424     11.576    553.192    681.159    560.344    553.192    553.192
 88.570    662.706    680.948    -18.241    552.940    674.773    559.016    552.940    552.940
 88.670    704.000    672.426     31.574    552.688    667.080    557.949    552.688    552.688
 88.770    701.520    663.606     37.914    552.434    658.873    557.097    552.434    552.434
 88.870    699.637    655.183     44.453    552.180    650.887    556.422    552.180    552.180
 88.970    596.365    647.763    -51.398    551.925    643.758    555.889    551.925    551.925
 89.070    622.619    641.825    -19.205    551.669    637.993    555.474    551.669    551.669
 89.170    678.137    637.691     40.446    551.413    633.935    555.154    551.413    551.413
 89.270    573.000    635.519    -62.519    551.156    631.758    554.913    551.156    551.156
 89.370    598.000    635.290    -37.290    550.899    631.458    554.736    550.899    550.899
 89.470    648.398    636.819     11.579    550.641    632.868    554.607    550.641    550.641
 89.570    670.000    639.772     30.228    550.382    635.667    554.511    550.382    550.382
 89.670    664.000    643.685     20.315    550.122    639.410    554.431    550.122    550.122
 89.770    666.000    647.988     18.012    549.862    643.544    554.348    549.862    549.862
 89.870    619.539    652.038    -32.499    549.602    647.445    554.242    549.602    549.602
 89.970    641.000    655.173    -14.173    549.341    650.475    554.092    549.341    549.341
 90.070    663.000    656.798      6.202    549.079    652.056    553.880    549.079    549.079
 90.170    657.000    656.492      0.508    548.817    651.776    553.594    548.817    548.817
 90.270    692.000    654.091     37.909    548.554    649.477    553.229    548.554    548.554
 90.370    616.212    649.720    -33.507    548.290    645.278    552.792    548.290    548.290
 90.470    672.412    643.732     28.681    548.026    639.519    552.297    548.026    548.026
 90.570    649.195    636.603     12.592    547.762    632.658    551.760    547.762    547.762
 90.670    643.000    628.836     14.164    547.497    625.179    551.201    547.497    547.497
 90.770    627.734    620.891      6.843    547.231    617.527    550.636    547.231    547.231
 90.870    638.024    613.156     24.868    546.965    610.078    550.079    546.965    546.965
 90.970    608.000    605.933      2.067    546.699    603.121    549.540    546.699    546.699
 91.070    578.309    599.436    -21.127    546.432    596.863    549.028    546.432    546.432
 91.170    601.699    593.795      7.903    546.165    591.431    548.547    546.165    546.165
 91.270    591.000    589.068      1.932    545.897    586.879    548.099    545.897    545.897
 91.370    568.000    585.251    -17.251    545.629    583.205    547.684    545.629    545.629
 91.470    588.000    582.298      5.702    545.360    580.365    547.300    545.360    545.360
 91.570    602.000    580.141     21.859    545.091    578.290    546.946    545.091    545.091
 91.670    621.185    578.701     42.484    544.822    576.908    546.617    544.822    544.822
 91.770    583.807    577.908      5.899    544.552    576.148    546.311    544.552    544.552
 91.870    579.000    577.712      1.288    544.282    575.964    546.028    544.282    544.282
 91.970    602.565    578.089     24.476    544.012    576.331    545.766    544.012    544.012
 92.070    583.380    579.050      4.329    543.741    577.261    545.525    543.741    543.741
 92.170    572.000    580.643     -8.643    543.470    578.799    545.307    543.470    543.470
 92.270    553.106    582.950    -29.844    543.199    581.025    545.115    543.199    543.199
 92.370    576.000    586.085    -10.085    542.927    584.049    544.952    542.927    542.927
 92.470    626.000    590.191     35.809    542.655    588.008    544.824    542.655    542.655
 92.570    612.356    595.426     16.930    542.383    593.056    544.735    542.383    542.383
 92.670    636.000    601.954     34.046    542.111    599.353    544.689    542.111    542.111
 92.770    625.000    609.931     15.069    541.838    607.050    544.691    541.838    541.838
 92.870    582.158    619.485    -37.327    541.565    616.274    544.743    541.565    541.565
 92.970    657.000    630.705     26.295    541.292    627.112    544.846    541.292    541.292
 93.070    686.200    643.620     42.580    541.019    639.595    544.998    541.019    541.019
 93.170    692.152    658.187     33.964    540.745    653.685    545.194    540.745    540.745
 93.270    683.614    674.280      9.334    540.472    669.263    545.428    540.472    540.472
 93.370    674.000    691.676    -17.676    540.198    686.115    545.690    540.198    540.198
 93.470    680.839    710.058    -29.219    539.924    703.933    545.972    539.924    539.924
 93.570    773.730    729.014     44.717    539.650    722.316    546.264    539.650    539.650
 93.670    758.000    748.067      9.933    539.376    740.794    546.559    539.376    539.376
 93.770    811.845    766.736     45.109    539.102    758.886    546.856    539.102    539.102
 93.870    768.000    784.625    -16.625    538.827    776.187    547.167    538.827    538.827
 93.970    796.000    801.531     -5.531    538.553    792.464    547.519    538.553    538.553
 94.070    758.997    817.548    -58.551    538.279    807.768    547.956    538.279    538.279
 94.170    819.000    832.940    -13.940    538.004    822.301    548.540    538.004    538.004
 94.270    793.000    848.100    -55.100    537.730    836.386    549.340    537.730    537.730
 94.370    824.000    863.398    -39.398    537.455    850.320    550.430    537.455    537.455
 94.470    822.411    879.071    -56.659    537.181    864.276    551.872    537.181    537.181
 94.570    949.327    895.178     54.149    536.907    878.269    553.713    536.907    536.907
 94.670    872.855    911.638    -38.783    536.632    892.195    555.974    536.632    536.632
 94.770    886.000    928.296    -42.296    536.358    905.911    558.643    536.358    536.358
 94.870    952.000    944.969      7.031    536.084    919.283    561.672    536.084    536.084
 94.970    890.000    961.421    -71.421    535.810    932.165    564.970    535.810    535.810
 95.070    960.000    977.277    -17.277    535.536    944.315    568.406    535.536    535.536
 95.170    983.000    991.916     -8.916    535.262    955.282    571.809    535.262    535.262
 95.270   1029.000   1004.428     24.572    534.988    964.358    574.978    534.988    534.988
 95.370   1012.000   1013.644     -1.644    534.715    970.595    577.690    534.715    534.715
 95.470   1025.000   1018.260      6.740    534.441    972.915    579.723    534.441    534.441
 95.570   1008.000   1017.088     -9.088    534.168    970.321    580.882    534.168    534.168
 95.670   1031.000   1009.339     21.661    533.895    962.157    581.034    533.895    533.895
 95.770   1005.000    994.880     10.120    533.622    948.328    580.141    533.622    533.622
 95.870    974.720    974.329      0.391    533.350    929.390    578.265    533.350    533.350
 95.970    994.000    948.963     45.037    533.078    906.469    575.555    533.078    533.078
 96.070    900.168    920.489    -20.322    532.806    881.070    572.214    532.806    532.806
 96.170    925.711    890.809     34.902    532.534    854.867    568.469    532.534    532.534
 96.270    916.000    861.831     54.169    532.263    829.551    564.538    532.263    532.263
 96.370    923.000    835.369     87.631    531.992    806.736    560.619    531.992    531.992
 96.470    830.000    813.072     16.928    531.721    787.907    556.878    531.721    531.721
 96.570    814.000    796.398     17.602    531.451    774.393    553.444    531.451    531.451
 96.670    839.000    786.597     52.403    531.181    767.351    550.409    531.181    531.181
 96.770    830.824    784.697     46.127    530.911    767.758    547.825    530.911    530.911
 96.870    866.000    791.504     74.496    530.642    776.399    545.714    530.642    530.642
 96.970    850.659    807.600     43.059    530.374    793.859    544.070    530.374    530.374
 97.070    853.000    833.322     19.678    530.105    820.504    542.868    530.105    530.105
 97.170    897.000    868.747     28.253    529.838    856.446    542.072    529.838    529.838
 97.270    908.506    913.612     -5.105    529.571    901.467    541.635    529.571    529.571
 97.370    984.362    967.457     16.905    529.304    955.154    541.513    529.304    529.304
 97.470   1135.000   1029.339    105.661    529.038   1016.614    541.655    529.038    529.038
 97.570   1131.000   1097.857     33.143    528.772   1084.501    542.009    528.772    528.772
 97.670   1185.000   1171.148     13.852    528.507   1157.005    542.520    528.507    528.507
 97.770   1181.442   1246.836    -65.394    528.243   1231.810    543.129    528.243    528.243
 97.870   1319.000   1322.021     -3.021    527.979   1306.080    543.773    527.979    527.979
 97.970   1449.543   1393.315     56.228    527.715   1376.499    544.384    527.715    527.715
 98.070   1455.000   1456.964     -1.964    527.453   1439.384    544.887    527.453    527.453
 98.170   1487.000   1509.104    -22.104    527.191   1490.945    545.212    527.191    527.191
 98.270   1616.000   1546.198     69.802    526.930   1527.708    545.293    526.930    526.930
 98.370   1546.000   1565.599    -19.599    526.669   1547.077    545.083    526.669    526.669
 98.470   1488.304   1566.081    -77.776    526.409   1547.843    544.559    526.409    526.409
 98.570   1567.000   1548.082     18.918    526.150   1530.435    543.730    526.150    526.150
 98.670   1547.000   1513.584     33.416    525.892   1496.797    542.633    525.892    525.892
 98.770   1437.000   1465.675    -28.675    525.635   1449.960    541.322    525.635    525.635
 98.870   1393.000   1408.028    -15.028    525.378   1393.534    539.862    525.378    525.378
 98.970   1347.171   1344.461      2.709    525.122   1331.269    538.316    525.122    525.122
 99.070   1238.000   1278.633    -40.633    524.867   1266.764    536.746    524.867    524.867
 99.170   1189.000   1213.871    -24.871    524.613   1203.295    535.204    524.613    524.613
 99.270   1174.000   1153.081     20.919    524.360   1143.723    533.734    524.360    524.360
 99.370   1142.000   1098.722     43.278    524.107   1090.474    532.371    524.107    524.107
 99.470   1073.000   1052.821     20.179    523.856   1045.548    531.141    523.856    523.856
 99.570    993.000   1017.001    -24.001    523.605   1010.552    530.061    523.605    523.605
 99.670    945.000    992.528    -47.528    523.356    986.743    529.141    523.356    523.356
 99.770    929.000    980.331    -51.331    523.107    975.048    528.383    523.107    523.107
 99.870    989.000    981.026      7.974    522.860    976.088    527.784    522.860    522.860
 99.970   1011.000    994.926     16.074    522.613    990.184    527.334    522.613    522.613
100.070   1031.000   1022.045      8.955    522.368   1017.363    527.022    522.368    522.368
100.170   1050.000   1062.104    -12.104    522.124   1057.361    526.833    522.124    522.124
100.270   1076.205   1114.522    -38.318    521.880   1109.615    526.749    521.880    521.880
100.370   1247.000   1178.403     68.597    521.638   1173.248    526.751    521.638    521.638
100.470   1256.122   1252.505      3.617    521.397   1247.042    526.818    521.397    521.397
100.570   1383.182   1335.201     47.980    521.157   1329.389    526.929    521.157    521.157
100.670   1466.489   1424.505     41.984    520.919   1418.326    527.061    520.919    520.919
100.770   1540.863   1517.977     22.886    520.681   1511.437    527.191    520.681    520.681
100.870   1655.000   1612.791     42.209    520.445   1605.919    527.297    520.445    520.445
100.970   1676.000   1705.861    -29.861    520.210   1698.707    527.357    520.210    520.210
101.070   1718.381   1794.043    -75.662    519.977   1786.674    527.353    519.977    519.977
101.170   1934.224   1874.427     59.797    519.744   1866.923    527.274    519.744    519.744
101.270   1865.107   1944.598    -79.491    519.513   1937.040    527.116    519.513    519.513
101.370   2048.000   2002.761     45.239    519.284   1995.227    526.883    519.284    519.284
101.470   2036.000   2047.671    -11.671    519.056   2040.221    526.588    519.056    519.056
101.570   2079.000   2078.411      0.589    518.829   2071.091    526.249    518.829    518.829
101.670   2047.055   2094.198    -47.143    518.603   2087.029    525.888    518.603    518.603
101.770   2058.000   2094.334    -36.334    518.379   2087.317    525.524    518.379    518.379
101.870   2192.000   2078.397    113.603    518.157   2071.515    525.177    518.157    518.157
101.970   2044.000   2046.601     -2.601    517.936   2039.820    524.863    517.936    517.936
102.070   2054.449   2000.142     54.307    517.716   1993.418    524.592    517.716    517.716
102.170   1931.303   1941.330    -10.027    517.498   1934.609    524.373    517.498    517.498
102.270   1842.658   1873.399    -30.740    517.282   1866.625    524.209    517.282    517.282
102.370   1727.000   1800.066    -73.066    517.067   1793.185    524.096    517.067    517.067
102.470   1763.260   1725.032     38.228    516.853   1718.000    524.028    516.853    516.853
102.570   1628.000   1651.573    -23.573    516.642   1644.357    523.992    516.642    516.642
102.670   1546.323   1582.290    -35.967    516.432   1574.871    523.975    516.432    516.432
102.770   1506.000   1519.008    -13.008    516.224   1511.386    523.960    516.224    516.224
102.870   1515.794   1462.763     53.031    516.017   1454.954    523.930    516.017    516.017
102.970   1324.000   1413.839    -89.839    515.812   1405.874    523.872    515.812    515.812
103.070   1326.000   1371.835    -45.835    515.609   1363.758    523.774    515.609    515.609
103.170   1272.000   1335.750    -63.750    515.408   1327.613    523.626    515.408    515.408
103.270   1241.000   1304.100    -63.100    515.208   1295.964    523.420    515.208    515.208
103.370   1266.510   1275.092     -8.582    515.011   1267.027    523.148    515.011    515.011
103.470   1226.190   1246.847    -20.657    514.815   1238.928    522.806    514.815    514.815
103.570   1218.548   1217.662      0.886    514.621   1209.964    522.390    514.621    514.621
103.670   1136.000   1186.250    -50.250    514.429   1178.849    521.901    514.429    514.429
103.770   1183.064   1151.899     31.165    514.239   1144.863    521.347    514.239    514.239
103.870   1091.945   1114.507    -22.563    514.051   1107.892    520.737    514.051    514.051
103.970   1047.000   1074.458    -27.458    513.865   1068.307    520.086    513.865    513.865
104.070   1088.321   1032.474     55.847    513.681   1026.813    519.410    513.681    513.681
104.170    971.787    989.447    -17.660    513.499    984.287    518.725    513.499    513.499
104.270    928.000    946.304    -18.304    513.319    941.641    518.043    513.319    513.319
104.370    885.843    903.927    -18.083    513.141    899.747    517.379    513.141    513.141
104.470    858.000    863.100     -5.100    512.965    859.379    516.740    512.965    512.965
104.570    828.000    824.487      3.513    512.791    821.192    516.134    512.791    512.791
104.670    762.000    788.609    -26.609    512.620    785.706    515.567    512.620    512.620
104.770    729.000    755.843    -26.843    512.451    753.291    515.041    512.451    512.451
104.870    790.000    726.407     63.593    512.284    724.169    514.555    512.284    512.284
104.970    727.000    700.404     26.596    512.119    698.440    514.111    512.119    512.119
105.070    650.107    677.828    -27.722    511.957    676.097    513.711    511.957    511.957
105.170    691.000    658.535     32.465    511.797    656.999    513.352    511.797    511.797
105.270    658.000    642.316     15.684    511.639    640.942    513.028    511.639    511.639
105.370    639.000    628.913     10.087    511.483    627.672    512.737    511.483    511.483
105.470    635.000    618.044     16.956    511.330    616.907    512.475    511.330    511.330
105.570    638.000    609.418     28.582    511.180    608.364    512.239    511.180    511.180
105.670    640.000    602.762     37.238    511.032    601.770    512.027    511.032    511.032
105.770    568.991    597.827    -28.835    510.886    596.878    511.835    510.886    510.886
105.870    641.000    594.398     46.602    510.743    593.478    511.661    510.743    510.743
105.970    576.000    592.305    -16.305    510.602    591.399    511.504    510.602    510.602
106.070    650.000    591.415     58.585    510.464    590.510    511.363    510.464    510.464
106.170    622.336    591.636     30.700    510.329    590.721    511.236    510.329    510.329
106.270    625.315    592.913     32.402    510.196    591.975    511.123    510.196    510.196
106.370    628.000    595.218     32.782    510.066    594.246    511.025    510.066    510.066
106.470    635.000    598.547     36.453    509.938    597.529    510.941    509.938    509.938
106.570    577.810    602.913    -25.103    509.814    601.836    510.871    509.814    509.814
106.670    584.000    608.334    -24.334    509.692    607.186    510.817    509.692    509.692
106.770    645.000    614.830     30.170    509.572    613.598    510.778    509.572    509.572
106.870    596.000    622.412    -26.412    509.456    621.084    510.755    509.456    509.456
106.970    631.000    631.072     -0.072    509.342    629.634    510.748    509.342    509.342
107.070    684.000    640.773     43.227    509.232    639.213    510.755    509.232    509.232
107.170    655.000    651.441      3.559    509.124    649.749    510.776    509.124    509.124
107.270    636.000    662.957    -26.957    509.019    661.123    510.809    509.019    509.019
107.370    679.000    675.155      3.845    508.917    673.172    510.853    508.917    508.917
107.470    727.381    687.814     39.566    508.818    685.679    510.903    508.818    508.818
107.570    703.572    700.668      2.903    508.722    698.380    510.957    508.722    508.722
107.670    712.000    713.402     -1.402    508.629    710.966    511.009    508.629    508.629
107.770    687.000    725.662    -38.662    508.539    723.088    511.056    508.539    508.539
107.870    735.000    737.073     -2.073    508.453    734.375    511.092    508.453    508.453
107.970    798.443    747.257     51.186    508.369    744.456    511.111    508.369    508.369
108.070    733.000    755.870    -22.870    508.289    752.991    511.109    508.289    508.289
108.170    719.245    762.647    -43.402    508.211    759.721    511.081    508.211    508.211
108.270    751.000    767.447    -16.447    508.137    764.504    511.026    508.137    508.137
108.370    825.000    770.281     54.719    508.067    767.355    510.942    508.067    508.067
108.470    730.000    771.323    -41.323    507.999    768.444    510.831    507.999    507.999
108.570    757.281    770.886    -13.605    507.935    768.082    510.696    507.935    507.935
108.670    762.000    769.374     -7.374    507.874    766.667    510.542    507.874    507.874
108.770    818.165    767.231     50.934    507.817    764.639    510.375    507.817    507.817
108.870    729.000    764.889    -35.889    507.763    762.423    510.199    507.763    507.763
108.970    805.000    762.729     42.271    507.713    760.395    510.021    507.713    507.713
109.070    755.458    761.054     -5.596    507.666    758.853    509.844    507.666    507.666
109.170    734.000    760.074    -26.074    507.622    758.005    509.673    507.622    507.622
109.270    703.000    759.899    -56.899    507.582    757.955    509.511    507.582    507.582
109.370    741.000    760.528    -19.528    507.546    758.702    509.361    507.546    507.546
109.470    757.000    761.858     -4.858    507.513    760.140    509.224    507.513    507.513
109.570    732.616    763.680    -31.064    507.484    762.060    509.100    507.484    507.484
109.670    769.813    765.695      4.118    507.459    764.163    508.990    507.459    507.459
109.770    737.000    767.526    -30.526    507.437    766.073    508.892    507.437    507.437
109.870    756.000    768.752    -12.752    507.420    767.369    508.807    507.420    507.420
109.970    748.000    768.943    -20.943    507.405    767.624    508.732    507.405    507.405
110.070    773.400    767.714      5.686    507.395    766.454    508.665    507.395    507.395
110.170    757.000    764.772     -7.772    507.389    763.568    508.604    507.389    507.389
110.270    795.010    759.953     35.056    507.386    758.812    508.542    507.386    507.386
110.370    729.000    753.281    -24.281    507.388    752.193    508.491    507.388    507.388
110.470    733.000    744.894    -11.894    507.393    743.857    508.446    507.393    507.393
110.570    739.727    735.047      4.680    507.403    734.059    508.407    507.403    507.403
110.670    699.000    724.068    -25.068    507.416    723.128    508.372    507.416    507.416
110.770    722.990    712.313     10.677    507.434    711.420    508.342    507.434    507.434
110.870    642.000    700.136    -58.136    507.455    699.288    508.318    507.455    507.455
110.970    663.000    687.868    -24.868    507.481    687.062    508.300    507.481    507.481
111.070    665.090    675.804    -10.714    507.511    675.038    508.289    507.511    507.511
111.170    599.000    664.201    -65.201    507.545    663.471    508.286    507.545    507.545
111.270    686.609    653.267     33.341    507.583    652.570    508.289    507.583    507.583
111.370    666.491    643.160     23.331    507.626    642.493    508.301    507.626    507.626
111.470    672.000    634.019     37.981    507.673    633.377    508.320    507.673    507.673
111.570    581.571    625.918    -44.347    507.724    625.297    508.348    507.724    507.724
111.670    598.066    618.892    -20.825    507.780    618.289    508.385    507.780    507.780
111.770    644.000    612.946     31.054    507.840    612.357    508.429    507.840    507.840
111.870    608.941    608.055      0.885    507.904    607.477    508.481    507.904    507.904
111.970    589.239    604.169    -14.930    507.973    603.597    508.542    507.973    507.973
112.070    626.208    601.219     24.989    508.047    600.652    508.610    508.047    508.047
112.170    559.000    599.127    -40.127    508.125    598.561    508.685    508.125    508.125
112.270    619.000    597.805     21.195    508.208    597.238    508.767    508.208    508.208
112.370    614.085    597.164     16.921    508.295    596.595    508.856    508.295    508.295
112.470    584.000    597.119    -13.119    508.387    596.546    508.951    508.387    508.387
112.570    606.000    597.588      8.412    508.484    597.010    509.052    508.484    508.484
112.670    600.154    598.495      1.659    508.586    597.911    509.159    508.586    508.586
112.770    563.418    599.782    -36.364    508.692    599.191    509.271    508.692    508.692
112.870    595.000    601.393     -6.393    508.803    600.796    509.388    508.803    508.803
112.970    609.000    603.290      5.710    508.919    602.687    509.510    508.919    508.919
113.070    618.000    605.448     12.552    509.040    604.839    509.637    509.040    509.040
113.170    619.198    607.856     11.342    509.166    607.240    509.769    509.166    509.166
113.270    633.000    610.518     22.482    509.297    609.895    509.906    509.297    509.297
113.370    609.000    613.454     -4.454    509.433    612.823    510.049    509.433    509.433
113.470    599.165    616.697    -17.532    509.574    616.058    510.199    509.574    509.574
113.570    600.213    620.301    -20.088    509.720    619.651    510.354    509.720    509.720
113.670    619.000    624.334     -5.334    509.871    623.672    510.518    509.871    509.871
113.770    658.464    628.890     29.574    510.027    628.212    510.689    510.027    510.027
113.870    636.000    634.090      1.910    510.189    633.393    510.869    510.189    510.189
113.970    644.753    640.090      4.664    510.356    639.369    511.058    510.356    510.356
114.070    624.000    647.090    -23.090    510.528    646.339    511.259    510.528    510.528
114.170    677.000    655.346     21.654    510.705    654.558    511.471    510.705    510.705
114.270    674.000    665.183      8.817    510.888    664.350    511.697    510.888    510.888
114.370    696.721    677.010     19.711    511.076    676.122    511.937    511.076    511.076
114.470    705.000    691.337     13.663    511.270    690.383    512.192    511.270    511.270
114.570    744.693    708.794     35.899    511.469    707.761    512.466    511.469    511.469
114.670    713.604    730.152    -16.548    511.674    729.024    512.758    511.674    511.674
114.770    699.000    756.336    -57.336    511.884    755.098    513.071    511.884    511.884
114.870    753.506    788.450    -34.944    512.100    787.082    513.406    512.100    512.100
114.970    881.000    827.783     53.217    512.322    826.263    513.766    512.322    512.322
115.070    893.000    875.818     17.182    512.549    874.126    514.151    512.549    512.549
115.170    859.000    934.237    -75.237    512.782    932.346    514.563    512.782    512.782
115.270    963.000   1004.899    -41.899    513.020   1002.785    515.004    513.020    513.020
115.370   1124.588   1089.825     34.763    513.265   1087.458    515.475    513.265    513.265
115.470   1170.000   1191.151    -21.151    513.515   1188.504    515.977    513.515    513.515
115.570   1268.000   1311.075    -43.075    513.772   1308.117    516.509    513.772    513.772
115.670   1422.000   1451.777    -29.777    514.034   1448.480    517.073    514.034    514.034
115.770   1644.000   1615.330     28.670    514.302   1611.663    517.669    514.302    514.302
115.870   1853.000   1803.587     49.413    514.577   1799.522    518.294    514.577    514.577
115.970   1947.749   2018.056    -70.307    514.857   2013.568    518.948    514.857    514.857
116.070   2235.000   2259.773    -24.773    515.143   2254.838    519.628    515.143    515.143
116.170   2632.247   2529.160    103.086    515.436   2523.759    520.332    515.436    515.436
116.270   2782.000   2825.899    -43.899    515.735   2820.017    521.056    515.735    515.735
116.370   3213.987   3148.809     65.178    516.040   3142.438    521.795    516.040    516.040
116.470   3616.567   3495.748    120.819    516.351   3488.885    522.545    516.351    516.351
116.570   3939.000   3863.535     75.465    516.669   3856.187    523.300    516.669    516.669
116.670   4261.000   4247.890     13.110    516.993   4240.067    524.055    516.993    516.993
116.770   4688.883   4643.501     45.381    517.323   4635.224    524.805    517.323    517.323
116.870   5019.000   5044.009    -25.009    517.660   5035.302    525.546    517.660    517.660
116.970   5295.000   5442.009   -147.009    518.003   5432.902    526.275    518.003    518.003
117.070   5836.800   5829.247      7.553    518.353   5819.776    526.988    518.353    518.353
117.170   6038.254   6196.766   -158.513    518.710   6186.973    527.681    518.710    518.710
117.270   6603.000   6535.138     67.862    519.073   6525.067    528.352    519.073    519.073
117.370   6814.600   6834.786    -20.186    519.443   6824.486    528.997    519.443    519.443
117.470   6994.000   7086.429    -92.429    519.819   7075.952    529.612    519.819    519.819
117.570   7301.843   7281.631     20.212    520.203   7271.033    530.194    520.203    520.203
117.670   7457.000   7413.438     43.562    520.593   7402.776    530.739    520.593    520.593
117.770   7486.000   7477.002      8.998    520.990   7466.331    531.245    520.990    520.990
117.870   7376.000   7470.075    -94.075    521.393   7459.451    531.708    521.393    521.393
117.970   7354.000   7393.256    -39.256    521.804   7382.729    532.129    521.804    521.804
118.070   7259.000   7249.917      9.083    522.222   7239.532    532.507    522.222    522.222
118.170   7099.338   7045.830     53.509    522.647   7035.631    532.844    522.647    522.647
118.270   6847.931   6788.602     59.330    523.079   6778.625    533.140    523.079    523.079
118.370   6300.000   6487.025   -187.025    523.518   6477.304    533.398    523.518    523.518
118.470   6115.000   6150.474    -35.474    523.964   6141.038    533.620    523.964    523.964
118.570   5784.686   5788.394     -3.708    524.417   5779.270    533.809    524.417    524.417
118.670   5457.000   5409.917     47.083    524.878   5401.129    533.968    524.878    524.878
118.770   5029.000   5023.573      5.427    525.346   5015.139    534.102    525.346    525.346
118.870   4701.000   4637.089     63.911    525.821   4629.027    534.216    525.821    525.821
118.970   4316.000   4257.251     58.749    526.304   4249.573    534.314    526.304    526.304
119.070   3887.889   3889.817     -1.929    526.794   3882.529    534.405    526.794    526.794
119.170   3610.000   3539.470     70.530    527.291   3532.573    534.493    527.291    527.291
119.270   3321.000   3209.816    111.184    527.797   3203.307    534.586    527.797    527.797
119.370   2990.812   2903.423     87.389    528.309   2897.296    534.692    528.309    528.309
119.470   2646.833   2621.896     24.938    528.830   2616.136    534.814    528.830    528.830
119.570   2474.000   2365.970    108.030    529.358   2360.561    534.961    529.358    529.358
119.670   2097.070   2135.639    -38.570    529.894   2130.561    535.136    529.894    529.894
119.770   1928.713   1930.279     -1.565    530.437   1925.506    535.344    530.437    530.437
119.870   1749.191   1748.776      0.415    530.989   1744.283    535.588    530.989    530.989
119.970   1556.000   1589.655    -33.655    531.548   1585.412    535.873    531.548    531.548
120.070   1501.000   1451.190     49.810    532.115   1447.166    536.200    532.115    532.115
120.170   1318.728   1331.505    -12.777    532.690   1327.666    536.571    532.690    532.690
120.270   1243.000   1228.665     14.335    533.273   1224.975    536.989    533.273    533.273
120.370   1163.000   1140.745     22.255    533.865   1137.168    537.454    533.865    533.865
120.470   1110.000   1065.897     44.103    534.464   1062.395    537.968    534.464    534.464
120.570   1033.453   1002.386     31.067    535.072    998.921    538.532    535.072    535.072
120.670    973.000    948.627     24.373    535.687    945.158    539.146    535.687    535.687
120.770    941.000    903.199     37.801    536.311    899.686    539.811    536.311    536.311
120.870    915.000    864.851     50.149    536.944    861.251    540.527    536.944    536.944
120.970    839.000    832.501      6.499    537.584    828.773    541.296    537.584    537.584
121.070    856.104    805.227     50.876    538.233    801.326    542.119    538.233    538.233
121.170    826.000    782.252     43.748    538.891    778.132    542.995    538.891    538.891
121.270    737.000    762.927    -25.927    539.557    758.543    543.927    539.557    539.557
121.370    735.000    746.718    -11.718    540.232    742.021    544.916    540.232    540.232
121.470    766.552    733.186     33.366    540.915    728.127    545.963    540.915    540.915
121.570    749.000    721.973     27.027    541.607    716.500    547.070    541.607    541.607
121.670    756.545    712.784     43.761    542.308    706.845    548.240    542.308    542.308
121.770    662.241    705.382    -43.142    543.017    698.921    549.472    543.017    543.017
121.870    697.366    699.571     -2.205    543.735    692.531    550.770    543.735    543.735
121.970    691.000    695.187     -4.187    544.462    687.511    552.136    544.462    544.462
122.070    659.000    692.095    -33.095    545.198    683.722    553.570    545.198    545.198
122.170    700.000    690.179      9.821    545.943    681.047    555.075    545.943    545.943
122.270    699.850    689.337     10.514    546.697    679.383    556.652    546.697    546.697
122.370    647.428    689.477    -42.049    547.460    678.638    558.302    547.460    547.460
122.470    660.000    690.515    -30.515    548.232    678.727    560.025    548.232    548.232
122.570    655.000    692.370    -37.370    549.014    679.570    561.820    549.014    549.014
122.670    708.709    694.962     13.747    549.804    681.087    563.686    549.804    549.804
122.770    718.000    698.207     19.793    550.604    683.201    565.619    550.604    550.604
122.870    679.000    702.020    -23.020    551.413    685.831    567.614    551.413    551.413
122.970    619.000    706.311    -87.311    552.232    688.895    569.662    552.232    552.232
123.070    719.143    710.984      8.159    553.060    692.306    571.753    553.060    553.060
123.170    670.642    715.934    -45.292    553.897    695.973    573.876    553.897    553.897
123.270    729.000    721.052      7.948    554.744    699.800    576.016    554.744    554.744
123.370    711.000    726.221    -15.221    555.601    703.688    578.157    555.601    555.601
123.470    728.000    731.317     -3.317    556.467    707.532    580.278    556.467    556.467
123.570    678.000    736.213    -58.213    557.343    711.224    582.360    557.343    557.343
123.670    742.000    740.779      1.221    558.229    714.657    584.382    558.229    558.229
123.770    765.151    744.885     20.266    559.125    717.724    586.319    559.125    559.125
123.870    730.126    748.410    -18.284    560.030    720.324    588.151    560.030    560.030
123.970    770.093    751.241     18.852    560.946    722.367    589.857    560.946    560.946
124.070    777.000    753.284     23.716    561.871    723.775    591.419    561.871    561.871
124.170    713.810    754.467    -40.657    562.806    724.493    592.822    562.806    562.806
124.270    778.000    754.744     23.256    563.752    724.482    594.056    563.752    563.752
124.370    748.000    754.073     -6.073    564.707    723.710    595.114    564.707    564.707
124.470    790.000    752.513     37.487    565.673    722.232    595.998    565.673    565.673
124.570    781.974    750.102     31.872    566.649    720.084    596.712    566.649    566.649
124.670    765.000    746.887     18.113    567.636    717.305    597.262    567.636    567.636
124.770    686.366    742.941    -56.575    568.632    713.958    597.659    568.632    568.632
124.870    777.000    738.353     38.647    569.639    710.119    597.916    569.639    569.639
124.970    794.000    733.214     60.786    570.657    705.866    598.047    570.657    570.657
