neutron_powder_diffraction_0246
R_wp: 3.971
Temperature (K): 971.033
Counts: 83492.00
Wavelength (Ã…): 2.52098
COMMENTS
Test file for demonstrating the .xyy file format in Reel1.0
END OF HEADER
   tth       Y_obs     Y_calc      Y_res    Background    Phase_1_Nuc    Phase_1_Mag    Phase_2_Nuc    Phase_2_Mag
  9.970    612.000    563.888     48.112    563.281    563.865    563.281    563.304    563.281
 10.070    590.000    564.108     25.892    563.449    564.085    563.449    563.472    563.449
 10.170    601.000    564.339     36.661    563.610    564.316    563.610    563.633    563.610
 10.270    581.255    564.571     16.684    563.765    564.547    563.765    563.788    563.765
 10.370    610.000    564.799     45.201    563.914    564.775    563.914    563.937    563.914
 10.470    523.517    565.033    -41.516    564.056    565.010    564.056    564.079    564.056
 10.570    598.000    565.278     32.722    564.192    565.254    564.192    564.215    564.192
 10.670    606.000    565.539     40.461    564.322    565.514    564.322    564.346    564.322
 10.770    597.381    565.822     31.559    564.445    565.793    564.445    564.473    564.445
 10.870    570.000    566.131      3.869    564.562    566.101    564.562    564.591    564.562
 10.970    570.000    566.478      3.522    564.674    566.448    564.674    564.702    564.674
 11.070    540.968    566.880    -25.912    564.779    566.850    564.779    564.808    564.779
 11.170    570.000    567.359      2.641    564.879    567.328    564.879    564.907    564.879
 11.270    572.000    567.948      4.052    564.972    567.918    564.972    565.001    564.972
 11.370    556.223    568.706    -12.483    565.060    568.675    565.060    565.089    565.060
 11.470    591.000    569.750     21.250    565.142    569.718    565.142    565.171    565.142
 11.570    576.000    571.401      4.599    565.218    571.368    565.218    565.247    565.218
 11.670    604.000    574.601     29.399    565.288    574.566    565.288    565.318    565.288
 11.770    608.000    581.707     26.293    565.353    581.669    565.353    565.383    565.353
 11.870    657.000    596.964     60.036    565.412    596.917    565.412    565.442    565.412
 11.970    653.903    624.570     29.333    565.466    624.507    565.466    565.496    565.466
 12.070    632.000    662.744    -30.744    565.515    662.661    565.515    565.545    565.515
 12.170    727.075    696.975     30.099    565.558    696.871    565.558    565.590    565.558
 12.270    655.000    704.558    -49.558    565.595    704.449    565.595    565.628    565.595
 12.370    619.000    678.649    -59.649    565.627    678.554    565.627    565.660    565.627
 12.470    602.000    639.120    -37.120    565.654    639.047    565.654    565.687    565.654
 12.570    606.000    606.311     -0.311    565.676    606.256    565.676    565.709    565.676
 12.670    609.000    586.554     22.446    565.693    586.509    565.693    565.726    565.693
 12.770    550.000    576.985    -26.985    565.704    576.945    565.704    565.738    565.704
 12.870    500.000    572.797    -72.797    565.711    572.760    565.711    565.744    565.711
 12.970    586.000    570.828     15.172    565.712    570.791    565.712    565.746    565.712
 13.070    532.000    569.699    -37.699    565.709    569.662    565.709    565.743    565.709
 13.170    547.000    568.937    -21.937    565.700    568.897    565.700    565.739    565.700
 13.270    526.000    568.383    -42.383    565.687    568.333    565.687    565.735    565.687
 13.370    602.522    567.949     34.574    565.669    567.899    565.669    565.718    565.669
 13.470    589.000    567.603     21.397    565.646    567.553    565.646    565.695    565.646
 13.570    556.000    567.321    -11.321    565.619    567.270    565.619    565.668    565.619
 13.670    598.000    567.085     30.915    565.587    567.034    565.587    565.637    565.587
 13.770    605.288    566.882     38.406    565.550    566.830    565.550    565.601    565.550
 13.870    538.690    566.704    -28.014    565.508    566.652    565.508    565.560    565.508
 13.970    531.000    566.544    -35.544    565.463    566.492    565.463    565.514    565.463
 14.070    575.728    566.399      9.329    565.412    566.345    565.412    565.466    565.412
 14.170    500.000    566.268    -66.268    565.357    566.209    565.357    565.416    565.357
 14.270    557.000    566.139     -9.139    565.298    566.080    565.298    565.358    565.298
 14.370    565.101    566.016     -0.915    565.235    565.956    565.235    565.294    565.235
 14.470    594.000    565.897     28.103    565.167    565.837    565.167    565.227    565.167
 14.570    603.000    565.782     37.218    565.095    565.722    565.095    565.155    565.095
 14.670    538.915    565.667    -26.753    565.019    565.606    565.019    565.080    565.019
 14.770    554.000    565.553    -11.553    564.939    565.492    564.939    565.000    564.939
 14.870    557.000    565.442     -8.442    564.854    565.380    564.854    564.916    564.854
 14.970    586.200    565.327     20.874    564.766    565.265    564.766    564.828    564.766
 15.070    526.053    565.210    -39.158    564.674    565.148    564.674    564.736    564.674
 15.170    549.000    565.093    -16.093    564.577    565.030    564.577    564.640    564.577
 15.270    537.733    564.973    -27.240    564.477    564.910    564.477    564.540    564.477
 15.370    584.000    564.852     19.148    564.373    564.789    564.373    564.436    564.373
 15.470    564.000    564.729     -0.729    564.265    564.665    564.265    564.328    564.265
 15.570    588.601    564.604     23.998    564.153    564.540    564.153    564.217    564.153
 15.670    567.000    564.476      2.524    564.038    564.411    564.038    564.102    564.038
 15.770    539.000    564.346    -25.346    563.918    564.281    563.918    563.983    563.918
 15.870    540.000    564.213    -24.213    563.796    564.148    563.796    563.861    563.796
 15.970    599.296    564.078     35.218    563.669    564.012    563.669    563.735    563.669
 16.070    556.000    563.940     -7.940    563.539    563.874    563.539    563.605    563.539
 16.170    496.000    563.799    -67.799    563.406    563.733    563.406    563.472    563.406
 16.270    581.000    563.656     17.344    563.269    563.589    563.269    563.335    563.269
 16.370    601.000    563.510     37.490    563.128    563.443    563.128    563.195    563.128
 16.470    573.000    563.362      9.638    562.984    563.294    562.984    563.052    562.984
 16.570    554.117    563.212     -9.095    562.837    563.142    562.837    562.907    562.837
 16.670    574.000    563.059     10.941    562.687    562.987    562.687    562.759    562.687
 16.770    539.000    562.903    -23.903    562.533    562.830    562.533    562.606    562.533
 16.870    544.636    562.744    -18.107    562.376    562.669    562.376    562.450    562.376
 16.970    583.000    562.581     20.419    562.216    562.507    562.216    562.291    562.216
 17.070    574.000    562.416     11.584    562.053    562.341    562.053    562.128    562.053
 17.170    549.000    562.249    -13.249    561.886    562.173    561.886    561.963    561.886
 17.270    555.000    562.079     -7.079    561.717    562.002    561.717    561.794    561.717
 17.370    534.000    561.908    -27.908    561.544    561.830    561.544    561.622    561.544
 17.470    605.307    561.732     43.575    561.369    561.654    561.369    561.447    561.369
 17.570    533.000    561.554    -28.554    561.191    561.475    561.191    561.269    561.191
 17.670    578.000    561.373     16.627    561.009    561.294    561.009    561.089    561.009
 17.770    597.344    561.189     36.155    560.825    561.109    560.825    560.905    560.825
 17.870    590.000    561.003     28.997    560.638    560.923    560.638    560.719    560.638
 17.970    563.244    560.814      2.430    560.449    560.734    560.449    560.529    560.449
 18.070    555.000    560.624     -5.624    560.256    560.542    560.256    560.338    560.256
 18.170    553.000    560.430     -7.430    560.061    560.348    560.061    560.143    560.061
 18.270    555.000    560.234     -5.234    559.863    560.151    559.863    559.946    559.863
 18.370    524.953    560.036    -35.083    559.663    559.953    559.663    559.746    559.663
 18.470    547.000    559.835    -12.835    559.460    559.751    559.460    559.544    559.460
 18.570    558.383    559.632     -1.249    559.254    559.548    559.254    559.339    559.254
 18.670    555.000    559.427     -4.427    559.046    559.342    559.046    559.131    559.046
 18.770    563.000    559.221      3.779    558.835    559.135    558.835    558.921    558.835
 18.870    586.394    559.013     27.380    558.622    558.926    558.622    558.710    558.622
 18.970    573.607    558.803     14.804    558.407    558.714    558.407    558.496    558.407
 19.070    546.000    558.589    -12.589    558.189    558.499    558.189    558.279    558.189
 19.170    529.000    558.374    -29.374    557.969    558.283    557.969    558.059    557.969
 19.270    525.000    558.156    -33.156    557.746    558.065    557.746    557.838    557.746
 19.370    565.000    557.936      7.064    557.522    557.844    557.522    557.614    557.522
 19.470    541.000    557.715    -16.715    557.295    557.622    557.295    557.388    557.295
 19.570    575.000    557.491     17.509    557.066    557.398    557.066    557.159    557.066
 19.670    564.000    557.266      6.734    556.835    557.172    556.835    556.929    556.835
 19.770    586.000    557.041     28.959    556.601    556.946    556.601    556.697    556.601
 19.870    524.094    556.832    -32.738    556.366    556.735    556.366    556.462    556.366
 19.970    541.000    556.606    -15.606    556.128    556.509    556.128    556.225    556.128
 20.070    551.242    556.375     -5.132    555.889    556.277    555.889    555.987    555.889
 20.170    556.000    556.141     -0.141    555.647    556.043    555.647    555.746    555.647
 20.270    558.000    555.907      2.093    555.404    555.807    555.404    555.504    555.404
 20.370    528.000    555.670    -27.670    555.159    555.570    555.159    555.259    555.159
 20.470    521.000    555.433    -34.433    554.912    555.331    554.912    555.014    554.912
 20.570    526.000    555.199    -29.199    554.663    555.091    554.663    554.771    554.663
 20.670    519.000    554.961    -35.961    554.412    554.850    554.412    554.523    554.412
 20.770    553.668    554.720     -1.052    554.159    554.608    554.159    554.271    554.159
 20.870    516.409    554.478    -38.069    553.905    554.365    553.905    554.018    553.905
 20.970    602.000    554.235     47.765    553.649    554.120    553.649    553.763    553.649
 21.070    521.341    553.991    -32.649    553.391    553.875    553.391    553.507    553.391
 21.170    519.000    553.746    -34.746    553.132    553.629    553.132    553.249    553.132
 21.270    515.153    553.500    -38.348    552.871    553.383    552.871    552.989    552.871
 21.370    588.705    553.254     35.451    552.609    553.135    552.609    552.728    552.609
 21.470    517.000    553.008    -36.008    552.344    552.888    552.344    552.465    552.344
 21.570    538.000    552.762    -14.762    552.079    552.640    552.079    552.201    552.079
 21.670    541.096    552.515    -11.419    551.812    552.392    551.812    551.935    551.812
 21.770    527.000    552.268    -25.268    551.543    552.144    551.543    551.668    551.543
 21.870    553.000    552.022      0.978    551.274    551.896    551.274    551.400    551.274
 21.970    574.160    551.776     22.384    551.002    551.649    551.002    551.130    551.002
 22.070    543.000    551.532     -8.532    550.730    551.403    550.730    550.859    550.730
 22.170    539.347    551.291    -11.944    550.456    551.160    550.456    550.586    550.456
 22.270    509.049    551.052    -42.003    550.180    550.919    550.180    550.313    550.180
 22.370    534.000    550.812    -16.812    549.904    550.678    549.904    550.038    549.904
 22.470    556.000    550.579      5.421    549.626    550.443    549.626    549.762    549.626
 22.570    564.000    550.389     13.611    549.347    550.251    549.347    549.485    549.347
 22.670    575.348    550.170     25.178    549.067    550.030    549.067    549.207    549.067
 22.770    550.000    549.980      0.020    548.786    549.838    548.786    548.928    548.786
 22.870    562.000    549.831     12.169    548.503    549.687    548.503    548.647    548.503
 22.970    573.830    549.640     24.189    548.220    549.495    548.220    548.366    548.220
 23.070    564.000    549.486     14.514    547.935    549.339    547.935    548.084    547.935
 23.170    549.000    549.301     -0.301    547.650    549.151    547.650    547.800    547.650
 23.270    506.171    549.126    -42.955    547.363    548.974    547.363    547.516    547.363
 23.370    582.000    548.970     33.030    547.076    548.816    547.076    547.231    547.076
 23.470    585.000    548.839     36.161    546.787    548.682    546.787    546.945    546.787
 23.570    533.660    548.741    -15.081    546.498    548.581    546.498    546.659    546.498
 23.670    555.000    548.687      6.313    546.208    548.524    546.208    546.371    546.208
 23.770    567.660    548.692     18.968    545.917    548.527    545.917    546.083    545.917
 23.870    551.000    548.783      2.217    545.625    548.615    545.625    545.794    545.625
 23.970    558.000    549.001      8.999    545.332    548.830    545.332    545.505    545.332
 24.070    556.000    549.444      6.556    545.038    549.270    545.038    545.215    545.038
 24.170    533.000    550.373    -17.373    544.744    550.194    544.744    544.926    544.744
 24.270    577.000    552.504     24.496    544.449    552.323    544.449    544.636    544.449
 24.370    611.000    557.461     53.539    544.153    557.278    544.153    544.344    544.153
 24.470    553.205    567.858    -14.653    543.857    567.679    543.857    544.052    543.857
 24.570    619.000    585.877     33.123    543.560    585.707    543.560    543.759    543.560
 24.670    613.000    609.791      3.209    543.262    609.635    543.262    543.466    543.262
 24.770    629.365    630.482     -1.117    542.964    630.336    542.964    543.173    542.964
 24.870    623.000    634.602    -11.602    542.665    634.454    542.665    542.879    542.665
 24.970    642.055    618.384     23.671    542.366    618.219    542.366    542.585    542.366
 25.070    570.000    593.434    -23.434    542.066    593.245    542.066    542.291    542.066
 25.170    613.000    571.962     41.038    541.766    571.752    541.766    541.997    541.766
 25.270    571.000    558.289     12.711    541.465    558.062    541.465    541.702    541.465
 25.370    572.000    551.169     20.831    541.164    550.931    541.164    541.408    541.164
 25.470    520.957    547.786    -26.830    540.862    547.538    540.862    541.114    540.862
 25.570    558.000    546.080     11.920    540.560    545.822    540.560    540.820    540.560
 25.670    574.000    545.053     28.947    540.258    544.786    540.258    540.526    540.258
 25.770    567.113    544.313     22.800    539.955    544.038    539.955    540.232    539.955
 25.870    535.707    543.744     -8.037    539.652    543.458    539.652    539.938    539.652
 25.970    585.000    543.263     41.737    539.348    542.966    539.348    539.646    539.348
 26.070    503.308    542.861    -39.553    539.045    542.553    539.045    539.353    539.045
 26.170    523.000    542.527    -19.527    538.741    542.206    538.741    539.061    538.741
 26.270    592.000    542.250     49.750    538.436    541.916    538.436    538.770    538.436
 26.370    540.000    542.024     -2.024    538.132    541.675    538.132    538.481    538.132
 26.470    543.192    541.843      1.349    537.828    541.479    537.828    538.192    537.828
 26.570    534.778    541.723     -6.945    537.523    541.342    537.523    537.904    537.523
 26.670    558.000    541.651     16.349    537.218    541.251    537.218    537.618    537.218
 26.770    498.522    541.633    -43.111    536.913    541.213    536.913    537.334    536.913
 26.870    551.453    541.691      9.762    536.608    541.248    536.608    537.051    536.608
 26.970    581.000    541.872     39.128    536.303    541.403    536.303    536.771    536.303
 27.070    503.600    542.140    -38.541    535.998    541.643    535.998    536.494    535.998
 27.170    568.000    542.543     25.457    535.693    542.014    535.693    536.220    535.693
 27.270    578.000    543.140     34.860    535.387    542.576    535.387    535.950    535.387
 27.370    597.000    544.010     52.990    535.082    543.407    535.082    535.684    535.082
 27.470    541.000    545.296     -4.296    534.777    544.648    534.777    535.424    534.777
 27.570    584.000    547.312     36.688    534.472    546.613    534.472    535.169    534.472
 27.670    544.388    551.185     -6.797    534.167    550.426    534.167    534.922    534.167
 27.770    591.000    560.758     30.242    533.862    559.929    533.862    534.684    533.862
 27.870    598.000    586.084     11.916    533.557    585.169    533.557    534.457    533.557
 27.970    675.000    644.078     30.922    533.253    643.053    533.253    534.242    533.253
 28.070    739.000    745.757     -6.757    532.948    744.595    532.948    534.044    532.948
 28.170    916.377    869.230     47.147    532.644    867.914    532.644    533.867    532.644
 28.270    982.000    947.701     34.299    532.340    946.232    532.340    533.715    532.340
 28.370    945.000    922.625     22.375    532.036    921.002    532.036    533.596    532.036
 28.470    778.096    822.693    -44.597    531.732    820.878    531.732    533.520    531.732
 28.570    659.000    727.594    -68.594    531.429    725.508    531.429    533.504    531.429
 28.670    694.000    692.602      1.398    531.126    690.144    531.126    533.572    531.126
 28.770    740.000    724.917     15.083    530.823    721.948    530.823    533.772    530.823
 28.870    770.000    792.117    -22.117    530.521    788.421    530.521    534.192    530.521
 28.970    852.000    836.748     15.252    530.218    831.956    530.218    534.993    530.218
 29.070    800.000    814.948    -14.948    529.917    808.426    529.917    536.440    529.917
 29.170    697.861    742.448    -44.587    529.615    733.179    529.615    538.897    529.615
 29.270    661.379    665.572     -4.193    529.314    652.145    529.314    542.754    529.314
 29.370    624.000    613.605     10.395    529.014    594.389    529.014    548.238    529.014
 29.470    604.000    589.418     14.582    528.713    563.068    528.713    555.065    528.713
 29.570    583.000    582.396      0.604    528.414    548.892    528.414    561.916    528.414
 29.670    606.000    580.832     25.168    528.114    542.748    528.114    566.196    528.114
 29.770    594.000    577.375     16.625    527.815    539.677    527.815    565.511    527.815
 29.870    574.618    570.380      4.239    527.517    537.789    527.517    560.105    527.517
 29.970    559.510    561.814     -2.304    527.219    536.479    527.219    552.551    527.219
 30.070    580.000    553.915     26.085    526.922    535.560    526.922    545.275    526.922
 30.170    598.000    547.775     50.225    526.625    534.978    526.625    539.421    526.625
 30.270    591.000    543.647     47.353    526.329    534.795    526.329    535.178    526.329
 30.370    584.017    541.596     42.422    526.033    535.340    526.033    532.286    526.033
 30.470    538.733    542.165     -3.431    525.738    537.549    525.738    530.349    525.738
 30.570    541.000    546.908     -5.908    525.444    543.327    525.444    529.015    525.444
 30.670    561.000    558.023      2.977    525.150    555.117    525.150    528.036    525.150
 30.770    588.000    576.171     11.829    524.857    573.731    524.857    527.263    524.857
 30.870    576.000    597.094    -21.094    524.565    594.996    524.565    526.614    524.565
 30.970    581.000    610.246    -29.246    524.273    608.417    524.273    526.046    524.273
 31.070    597.000    606.068     -9.068    523.982    604.466    523.982    525.535    523.982
 31.170    569.000    587.460    -18.460    523.691    586.051    523.691    525.066    523.691
 31.270    538.159    565.537    -27.378    523.402    564.289    523.402    524.630    523.402
 31.370    584.000    548.485     35.515    523.113    547.369    523.113    524.219    523.113
 31.470    531.000    538.254     -7.254    522.824    537.245    522.824    523.828    522.824
 31.570    546.000    533.106     12.894    522.537    532.186    522.537    523.453    522.537
 31.670    533.710    530.681      3.030    522.250    529.836    522.250    523.092    522.250
 31.770    533.000    529.438      3.562    521.964    528.658    521.964    522.743    521.964
 31.870    489.036    528.677    -39.640    521.679    527.952    521.679    522.402    521.679
 31.970    523.000    528.148     -5.148    521.395    527.472    521.395    522.070    521.395
 32.070    554.000    527.766     26.234    521.112    527.132    521.112    521.744    521.112
 32.170    565.757    527.500     38.257    520.829    526.903    520.829    521.424    520.829
 32.270    514.779    527.339    -12.560    520.547    526.775    520.547    521.110    520.547
 32.370    492.800    527.281    -34.481    520.267    526.746    520.267    520.800    520.267
 32.470    533.966    527.331      6.635    519.987    526.823    519.987    520.494    519.987
 32.570    539.748    527.503     12.245    519.708    527.018    519.708    520.192    519.708
 32.670    526.000    527.819     -1.819    519.429    527.355    519.429    519.893    519.429
 32.770    533.000    528.309      4.691    519.152    527.864    519.152    519.597    519.152
 32.870    558.265    529.025     29.240    518.876    528.596    518.876    519.304    518.876
 32.970    533.836    530.031      3.805    518.601    529.617    518.601    519.013    518.601
 33.070    527.673    531.432     -3.760    518.326    531.032    518.326    518.725    518.326
 33.170    568.877    533.413     35.464    518.053    533.025    518.053    518.439    518.053
 33.270    582.930    536.368     46.562    517.780    535.991    517.780    518.155    517.780
 33.370    556.581    541.350     15.231    517.509    540.982    517.509    517.873    517.509
 33.470    574.000    551.217     22.783    517.239    550.856    517.239    517.594    517.239
 33.570    563.000    572.612     -9.612    516.969    572.255    516.969    517.316    516.969
 33.670    602.000    617.239    -15.239    516.701    616.880    516.701    517.039    516.701
 33.770    726.000    698.330     27.670    516.434    697.963    516.434    516.765    516.434
 33.870    797.767    818.742    -20.975    516.168    818.362    516.168    516.492    516.168
 33.970    937.000    954.165    -17.165    515.902    953.779    515.902    516.221    515.902
 34.070   1110.000   1046.486     63.514    515.638   1046.111    515.638    515.951    515.638
 34.170   1041.495   1038.664      2.831    515.375   1038.319    515.375    515.683    515.375
 34.270    982.356    936.364     45.993    515.114    936.047    515.114    515.417    515.114
 34.370    739.000    800.095    -61.095    514.853    799.797    514.853    515.152    514.853
 34.470    722.862    683.810     39.052    514.593    683.519    514.593    514.888    514.593
 34.570    582.000    607.438    -25.438    514.335    607.149    514.335    514.626    514.335
 34.670    558.442    565.939     -7.497    514.077    565.651    514.077    514.366    514.077
 34.770    591.197    545.908     45.289    513.821    545.622    513.821    514.107    513.821
 34.870    549.000    536.302     12.698    513.566    536.019    513.566    513.849    513.566
 34.970    564.150    531.082     33.068    513.312    530.801    513.312    513.593    513.312
 35.070    558.757    527.700     31.057    513.060    527.421    513.060    513.338    513.060
 35.170    495.000    525.221    -30.221    512.808    524.944    512.808    513.084    512.808
 35.270    520.000    523.287     -3.287    512.558    523.012    512.558    512.832    512.558
 35.370    519.000    521.727     -2.727    512.309    521.454    512.309    512.582    512.309
 35.470    494.678    520.439    -25.761    512.061    520.167    512.061    512.333    512.061
 35.570    512.000    519.355     -7.355    511.814    519.084    511.814    512.085    511.814
 35.670    538.000    518.427     19.573    511.569    518.158    511.569    511.838    511.569
 35.770    521.000    517.621      3.379    511.325    517.353    511.325    511.593    511.325
 35.870    489.000    516.912    -27.912    511.082    516.645    511.082    511.350    511.082
 35.970    554.000    516.282     37.718    510.840    516.015    510.840    511.107    510.840
 36.070    514.000    515.716     -1.716    510.600    515.449    510.600    510.867    510.600
 36.170    488.207    515.204    -26.996    510.361    514.937    510.361    510.627    510.361
 36.270    528.000    514.738     13.262    510.123    514.472    510.123    510.389    510.123
 36.370    464.000    514.313    -50.313    509.887    514.046    509.887    510.153    509.887
 36.470    476.000    513.924    -37.924    509.652    513.658    509.652    509.918    509.652
 36.570    530.000    513.571     16.429    509.418    513.304    509.418    509.684    509.418
 36.670    498.000    513.252    -15.252    509.185    512.986    509.185    509.452    509.185
 36.770    543.000    512.971     30.029    508.954    512.705    508.954    509.221    508.954
 36.870    483.000    512.740    -29.740    508.724    512.473    508.724    508.991    508.724
 36.970    484.000    512.589    -28.589    508.495    512.321    508.495    508.763    508.495
 37.070    506.000    512.598     -6.598    508.268    512.330    508.268    508.537    508.268
 37.170    536.246    512.938     23.308    508.042    512.669    508.042    508.312    508.042
 37.270    484.741    513.892    -29.151    507.818    513.623    507.818    508.088    507.818
 37.370    546.716    515.792     30.924    507.595    515.521    507.595    507.866    507.595
 37.470    552.000    518.779     33.221    507.373    518.508    507.373    507.645    507.373
 37.570    515.742    522.475     -6.733    507.153    522.204    507.153    507.426    507.153
 37.670    501.271    525.733    -24.462    506.934    525.462    506.934    507.208    506.934
 37.770    505.756    526.944    -21.188    506.716    526.675    506.716    506.992    506.716
 37.870    494.186    525.374    -31.188    506.500    525.105    506.500    506.777    506.500
 37.970    517.000    522.026     -5.026    506.285    521.758    506.285    506.564    506.285
 38.070    538.000    518.325     19.675    506.072    518.056    506.072    506.352    506.072
 38.170    512.000    515.068     -3.068    505.860    514.797    505.860    506.141    505.860
 38.270    496.800    512.548    -15.747    505.650    512.273    505.650    505.932    505.650
 38.370    517.485    510.769      6.716    505.441    510.490    505.441    505.725    505.441
 38.470    533.000    509.582     23.418    505.233    509.299    505.233    505.519    505.233
 38.570    508.050    508.800     -0.750    505.027    508.513    505.027    505.315    505.027
 38.670    540.000    508.268     31.732    504.822    507.979    504.822    505.112    504.822
 38.770    494.000    507.879    -13.879    504.619    507.588    504.619    504.911    504.619
 38.870    496.700    507.567    -10.867    504.417    507.273    504.417    504.711    504.417
 38.970    531.436    507.296     24.140    504.216    507.000    504.216    504.513    504.216
 39.070    465.000    507.050    -42.050    504.018    506.751    504.018    504.317    504.018
 39.170    456.000    506.820    -50.820    503.820    506.519    503.820    504.122    503.820
 39.270    527.000    506.604     20.396    503.624    506.300    503.624    503.928    503.624
 39.370    532.730    506.398     26.332    503.430    506.092    503.430    503.736    503.430
 39.470    486.899    506.203    -19.304    503.237    505.894    503.237    503.546    503.237
 39.570    473.000    506.016    -33.016    503.045    505.704    503.045    503.357    503.045
 39.670    473.000    505.837    -32.837    502.855    505.522    502.855    503.170    502.855
 39.770    500.000    505.665     -5.665    502.666    505.348    502.666    502.984    502.666
 39.870    527.892    505.502     22.390    502.479    505.181    502.479    502.800    502.479
 39.970    494.000    505.346    -11.346    502.294    505.022    502.294    502.618    502.294
 40.070    543.962    505.197     38.765    502.110    504.870    502.110    502.437    502.110
 40.170    513.000    505.057      7.943    501.927    504.726    501.927    502.258    501.927
 40.270    506.000    504.925      1.075    501.746    504.591    501.746    502.080    501.746
 40.370    469.000    504.802    -35.802    501.567    504.465    501.567    501.905    501.567
 40.470    518.000    504.690     13.310    501.389    504.349    501.389    501.730    501.389
 40.570    455.000    504.589    -49.589    501.212    504.243    501.212    501.558    501.212
 40.670    517.265    504.500     12.766    501.037    504.151    501.037    501.387    501.037
 40.770    545.853    504.426     41.427    500.864    504.072    500.864    501.217    500.864
 40.870    536.314    504.368     31.946    500.692    504.011    500.692    501.050    500.692
 40.970    474.904    504.330    -29.426    500.521    503.969    500.521    500.884    500.521
 41.070    502.000    504.316     -2.316    500.353    503.950    500.353    500.719    500.353
 41.170    501.000    504.331     -3.331    500.185    503.960    500.185    500.557    500.185
 41.270    544.454    504.381     40.073    500.020    504.006    500.020    500.396    500.020
 41.370    493.000    504.476    -11.476    499.855    504.096    499.855    500.236    499.855
 41.470    504.000    504.628     -0.628    499.693    504.243    499.693    500.079    499.693
 41.570    497.000    504.857     -7.857    499.531    504.466    499.531    499.923    499.531
 41.670    502.000    505.193     -3.193    499.372    504.797    499.372    499.769    499.372
 41.770    504.000    505.701     -1.701    499.214    505.300    499.214    499.616    499.214
 41.870    463.000    506.532    -43.532    499.057    506.125    499.057    499.466    499.057
 41.970    522.000    508.047     13.953    498.902    507.636    498.902    499.317    498.902
 42.070    502.000    511.036     -9.036    498.749    510.619    498.749    499.170    498.749
 42.170    520.633    516.929      3.704    498.597    516.508    498.597    499.024    498.597
 42.270    486.903    527.728    -40.825    498.447    527.305    498.447    498.881    498.447
 42.370    538.000    545.223     -7.223    498.298    544.801    498.298    498.739    498.298
 42.470    592.916    569.380     23.535    498.151    568.964    498.151    498.599    498.151
 42.570    591.000    596.461     -5.461    498.005    596.051    498.005    498.461    498.005
 42.670    603.000    618.168    -15.168    497.861    617.765    497.861    498.325    497.861
 42.770    634.190    624.422      9.768    497.719    624.017    497.719    498.190    497.719
 42.870    591.000    611.445    -20.445    497.578    611.028    497.578    498.057    497.578
 42.970    542.000    586.225    -44.225    497.438    585.787    497.438    497.927    497.438
 43.070    535.000    559.148    -24.148    497.301    558.686    497.301    497.798    497.301
 43.170    500.265    536.969    -36.704    497.164    536.484    497.164    497.671    497.164
 43.270    530.405    521.870      8.535    497.030    521.366    497.030    497.546    497.030
 43.370    505.000    512.964     -7.964    496.896    512.444    496.896    497.423    496.896
 43.470    508.000    508.202     -0.202    496.765    507.669    496.765    497.302    496.765
 43.570    481.000    505.728    -24.728    496.635    505.182    496.635    497.183    496.635
 43.670    502.000    504.356     -2.356    496.506    503.799    496.506    497.066    496.506
 43.770    432.000    503.491    -71.491    496.379    502.921    496.379    496.951    496.379
 43.870    485.182    502.872    -17.690    496.254    502.289    496.254    496.839    496.254
 43.970    499.000    502.396     -3.396    496.130    501.799    496.130    496.728    496.130
 44.070    470.562    502.014    -31.452    496.008    501.404    496.008    496.620    496.008
 44.170    516.964    501.703     15.261    495.887    501.078    495.887    496.514    495.887
 44.270    517.000    501.447     15.553    495.768    500.806    495.768    496.410    495.768
 44.370    492.000    501.234     -9.234    495.651    500.577    495.651    496.308    495.651
 44.470    505.570    501.057      4.513    495.535    500.384    495.535    496.209    495.535
 44.570    532.000    500.910     31.090    495.420    500.219    495.420    496.112    495.420
 44.670    521.000    500.789     20.211    495.307    500.080    495.307    496.018    495.307
 44.770    507.000    500.691      6.309    495.196    499.962    495.196    495.926    495.196
 44.870    505.000    500.613      4.387    495.086    499.863    495.086    495.837    495.086
 44.970    519.325    500.554     18.770    494.978    499.782    494.978    495.750    494.978
 45.070    528.000    500.513     27.487    494.871    499.718    494.871    495.667    494.871
 45.170    519.050    500.489     18.561    494.766    499.669    494.766    495.586    494.766
 45.270    492.091    500.481     -8.390    494.663    499.635    494.663    495.509    494.663
 45.370    483.634    500.490    -16.856    494.561    499.616    494.561    495.434    494.561
 45.470    560.000    500.515     59.485    494.460    499.612    494.460    495.363    494.460
 45.570    483.492    500.558    -17.066    494.361    499.623    494.361    495.296    494.361
 45.670    536.227    500.619     35.608    494.264    499.650    494.264    495.232    494.264
 45.770    545.361    500.699     44.663    494.168    499.694    494.168    495.172    494.168
 45.870    487.000    500.800    -13.800    494.073    499.757    494.073    495.117    494.073
 45.970    520.000    500.924     19.076    493.981    499.839    493.981    495.065    493.981
 46.070    541.416    501.073     40.343    493.889    499.943    493.889    495.019    493.889
 46.170    505.228    501.250      3.978    493.800    500.072    493.800    494.977    493.800
 46.270    523.000    501.460     21.540    493.711    500.229    493.711    494.941    493.711
 46.370    489.033    501.707    -12.674    493.625    500.419    493.625    494.912    493.625
 46.470    489.350    501.997    -12.647    493.539    500.648    493.539    494.888    493.539
 46.570    512.454    502.340     10.114    493.456    500.923    493.456    494.872    493.456
 46.670    489.185    502.748    -13.563    493.373    501.256    493.373    494.863    493.373
 46.770    501.000    503.239     -2.239    493.293    501.667    493.293    494.864    493.293
 46.870    523.000    503.852     19.148    493.214    502.190    493.214    494.874    493.214
 46.970    481.613    504.667    -23.054    493.136    502.906    493.136    494.895    493.136
 47.070    464.725    505.861    -41.136    493.060    503.990    493.060    494.928    493.060
 47.170    478.000    507.797    -29.797    492.985    505.803    492.985    494.975    492.985
 47.270    535.000    511.114     23.886    492.912    508.981    492.912    495.038    492.912
 47.370    475.000    516.739    -41.739    492.840    514.448    492.840    495.120    492.840
 47.470    537.171    525.663     11.509    492.770    523.192    492.770    495.223    492.770
 47.570    524.971    538.382    -13.412    492.701    535.705    492.701    495.351    492.701
 47.670    565.000    554.150     10.850    492.634    551.237    492.634    495.509    492.634
 47.770    558.659    570.316    -11.658    492.568    567.134    492.568    495.702    492.568
 47.870    627.000    582.378     44.622    492.504    578.888    492.504    495.938    492.504
 47.970    603.000    585.729     17.271    492.441    581.889    492.441    496.225    492.441
 48.070    565.000    579.181    -14.181    492.380    574.935    492.380    496.577    492.380
 48.170    586.099    566.245     19.854    492.320    561.517    492.320    497.010    492.320
 48.270    541.000    552.000    -11.000    492.261    546.685    492.261    497.549    492.261
 48.370    558.000    540.118     17.882    492.204    534.067    492.204    498.238    492.204
 48.470    565.000    532.255     32.745    492.149    525.244    492.149    499.148    492.149
 48.570    553.000    528.544     24.456    492.095    520.221    492.095    500.411    492.095
 48.670    513.000    528.410    -15.410    492.042    518.192    492.042    502.255    492.042
 48.770    509.000    531.291    -22.291    491.991    518.222    491.991    505.055    491.991
 48.870    557.000    537.058     19.942    491.941    519.628    491.941    509.367    491.941
 48.970    545.000    546.088     -1.088    491.893    522.067    491.893    515.909    491.893
 49.070    537.000    559.109    -22.109    491.846    525.507    491.846    525.442    491.846
 49.170    560.000    576.969    -16.969    491.800    530.242    491.800    538.521    491.800
 49.270    588.000    600.575    -12.575    491.756    537.203    491.756    555.120    491.756
 49.370    640.314    631.407      8.906    491.713    548.939    491.713    574.171    491.713
 49.470    725.601    673.224     52.377    491.672    571.842    491.672    593.038    491.672
 49.570    708.465    735.444    -26.979    491.632    619.752    491.632    607.298    491.632
 49.670    887.000    837.718     49.282    491.594    717.239    491.594    612.028    491.594
 49.770   1005.803   1011.268     -5.465    491.557    897.559    491.557    605.189    491.557
 49.870   1292.000   1287.152      4.848    491.521   1188.980    491.521    589.572    491.521
 49.970   1686.808   1667.946     18.863    491.486   1588.997    491.486    570.275    491.486
 50.070   2032.055   2098.499    -66.445    491.453   2038.322    491.453    551.455    491.453
 50.170   2526.000   2459.069     66.931    491.422   2414.936    491.422    535.416    491.422
 50.270   2455.000   2603.075   -148.075    491.392   2571.446    491.392    522.980    491.392
 50.370   2446.000   2455.393     -9.393    491.363   2432.818    491.363    514.023    491.363
 50.470   2093.000   2084.357      8.643    491.335   2067.947    491.335    507.923    491.335
 50.570   1675.615   1635.721     39.894    491.309   1623.329    491.309    503.908    491.309
 50.670   1301.341   1234.100     67.241    491.284   1224.287    491.284    501.284    491.284
 50.770    919.000    942.304    -23.304    491.260    934.178    491.260    499.528    491.260
 50.870    724.000    764.978    -40.978    491.238    758.016    491.238    498.297    491.238
 50.970    664.000    673.556     -9.556    491.217    667.451    491.217    497.387    491.217
 51.070    668.000    632.234     35.766    491.198    626.798    491.198    496.681    491.198
 51.170    581.000    612.829    -31.829    491.179    607.934    491.179    496.114    491.179
 51.270    574.518    598.991    -24.473    491.162    594.540    491.162    495.647    491.162
 51.370    578.000    584.694     -6.694    491.147    580.611    491.147    495.258    491.147
 51.470    625.000    569.877     55.123    491.132    566.100    491.132    494.931    491.132
 51.570    511.403    556.247    -44.844    491.119    552.729    491.119    494.654    491.119
 51.670    581.000    545.166     35.834    491.107    541.866    491.107    494.418    491.107
 51.770    546.811    537.121      9.691    491.097    534.007    491.097    494.217    491.097
 51.870    554.000    531.876     22.124    491.087    528.924    491.087    494.045    491.087
 51.970    575.000    528.836     46.164    491.079    526.021    491.079    493.899    491.079
 52.070    539.013    527.377     11.636    491.072    524.679    491.072    493.773    491.072
 52.170    511.000    527.047    -16.047    491.067    524.450    491.067    493.666    491.067
 52.270    503.674    527.625    -23.951    491.063    525.114    491.063    493.576    491.063
 52.370    538.000    529.127      8.873    491.059    526.688    491.059    493.500    491.059
 52.470    491.262    531.867    -40.605    491.058    529.489    491.058    493.437    491.058
 52.570    539.719    536.673      3.046    491.057    534.345    491.057    493.385    491.057
 52.670    587.067    545.301     41.766    491.058    543.014    491.058    493.344    491.058
 52.770    625.000    561.009     63.991    491.059    558.755    491.059    493.313    491.059
 52.870    656.000    588.970     67.030    491.062    586.741    491.062    493.291    491.062
 52.970    647.000    635.914     11.086    491.066    633.701    491.066    493.277    491.066
 53.070    665.039    708.280    -43.241    491.072    706.077    491.072    493.270    491.072
 53.170    781.641    808.707    -27.065    491.078    806.508    491.078    493.272    491.078
 53.270    975.000    931.716     43.284    491.086    929.518    491.086    493.280    491.086
 53.370   1045.000   1060.190    -15.190    491.095   1057.990    491.095    493.295    491.095
 53.470   1145.000   1164.681    -19.681    491.105   1162.476    491.105    493.317    491.105
 53.570   1157.517   1210.752    -53.235    491.116   1208.541    491.116    493.345    491.116
 53.670   1167.000   1179.767    -12.767    491.128   1177.545    491.128    493.380    491.128
 53.770   1083.674   1085.017     -1.344    491.141   1082.774    491.141    493.421    491.141
 53.870    939.000    959.495    -20.495    491.156    957.219    491.156    493.469    491.156
 53.970    831.265    834.364     -3.099    491.172    832.044    491.172    493.523    491.172
 54.070    736.000    729.264      6.736    491.188    726.893    491.188    493.584    491.188
 54.170    617.000    651.807    -34.807    491.206    649.378    491.206    493.652    491.206
 54.270    564.248    600.675    -36.427    491.225    598.185    491.225    493.726    491.225
 54.370    609.000    569.916     39.084    491.245    567.360    491.245    493.808    491.245
 54.470    526.794    552.696    -25.902    491.266    550.069    491.266    493.897    491.266
 54.570    570.590    543.483     27.107    491.288    540.780    491.288    493.994    491.288
 54.670    523.143    538.651    -15.508    491.312    535.865    491.312    494.099    491.312
 54.770    529.000    536.175     -7.175    491.336    533.299    491.336    494.214    491.336
 54.870    524.000    535.054    -11.054    491.361    532.079    491.361    494.337    491.361
 54.970    522.000    534.841    -12.841    491.388    531.758    491.388    494.471    491.388
 55.070    533.000    535.351     -2.351    491.415    532.152    491.415    494.615    491.415
 55.170    560.000    536.527     23.473    491.443    533.200    491.443    494.771    491.443
 55.270    556.000    538.372     17.628    491.473    534.906    491.473    494.939    491.473
 55.370    535.929    540.942     -5.013    491.503    537.324    491.503    495.122    491.503
 55.470    512.000    544.346    -32.346    491.535    540.562    491.535    495.319    491.535
 55.570    558.000    548.786      9.214    491.567    544.820    491.567    495.533    491.567
 55.670    545.000    554.662     -9.662    491.601    550.498    491.601    495.765    491.601
 55.770    529.630    562.831    -33.200    491.635    558.447    491.635    496.017    491.635
 55.870    563.779    575.165    -11.386    491.670    570.540    491.670    496.291    491.670
 55.970    605.000    595.598      9.402    491.707    590.706    491.707    496.591    491.707
 56.070    597.000    631.662    -34.662    491.744    626.472    491.744    496.918    491.744
 56.170    692.000    696.050     -4.050    491.782    690.525    491.782    497.278    491.782
 56.270    753.284    806.900    -53.616    491.821    801.001    491.821    497.673    491.821
 56.370    923.407    984.813    -61.406    491.861    978.495    491.861    498.110    491.861
 56.470   1187.000   1245.116    -58.116    491.902   1238.338    491.902    498.594    491.902
 56.570   1517.579   1586.220    -68.641    491.944   1578.943    491.944    499.131    491.944
 56.670   1971.000   1977.997     -6.997    491.987   1970.185    491.987    499.731    491.987
 56.770   2278.000   2355.787    -77.787    492.030   2347.404    492.030    500.405    492.030
 56.870   2549.000   2627.250    -78.250    492.075   2618.244    492.075    501.164    492.075
 56.970   2755.000   2704.137     50.863    492.120   2694.412    492.120    502.024    492.120
 57.070   2516.000   2557.080    -41.080    492.166   2546.487    492.166    503.004    492.166
 57.170   2272.000   2240.422     31.578    492.213   2228.767    492.213    504.129    492.213
 57.270   1863.000   1850.545     12.455    492.261   1837.611    492.261    505.432    492.261
 57.370   1551.543   1473.185     78.357    492.310   1458.725    492.310    506.958    492.310
 57.470   1184.629   1161.379     23.249    492.360   1145.097    492.360    508.777    492.360
 57.570    966.000    934.601     31.399    492.410    916.100    492.410    510.998    492.410
 57.670    814.000    787.488     26.512    492.461    766.193    492.461    513.808    492.461
 57.770    701.694    702.263     -0.569    492.513    677.279    492.513    517.525    492.513
 57.870    723.000    659.692     63.308    492.566    629.595    492.566    522.676    492.566
 57.970    666.000    645.541     20.459    492.619    608.070    492.619    530.093    492.619
 58.070    617.000    652.524    -35.524    492.674    604.204    492.674    540.989    492.674
 58.170    658.000    679.416    -21.416    492.729    615.164    492.729    556.967    492.729
 58.270    721.000    728.778     -7.778    492.785    641.650    492.785    579.889    492.785
 58.370    821.000    804.242     16.758    492.841    685.509    492.841    611.539    492.841
 58.470    888.000    907.777    -19.777    492.898    747.546    492.898    653.081    492.898
 58.570   1022.000   1037.194    -15.194    492.957    825.735    492.957    704.358    492.957
 58.670   1155.000   1184.259    -29.259    493.015    914.117    493.015    763.094    493.015
 58.770   1326.000   1334.311     -8.311    493.075   1003.267    493.075    824.060    493.075
 58.870   1411.775   1468.756    -56.981    493.135   1083.378    493.135    878.467    493.135
 58.970   1572.000   1568.537      3.463    493.196   1146.897    493.196    914.807    493.196
 59.070   1697.000   1616.441     80.559    493.257   1186.745    493.257    922.945    493.257
 59.170   1612.930   1602.282     10.649    493.319   1195.378    493.319    900.236    493.319
 59.270   1567.000   1531.022     35.978    493.382   1170.868    493.382    853.563    493.382
 59.370   1436.935   1423.878     13.057    493.446   1122.755    493.446    794.595    493.446
 59.470   1272.684   1308.199    -35.515    493.510   1067.834    493.510    733.886    493.510
 59.570   1212.000   1207.641      4.359    493.574   1022.738    493.574    678.458    493.574
 59.670   1101.000   1140.028    -39.028    493.640   1001.640    493.640    631.966    493.640
 59.770   1123.000   1118.600      4.400    493.706   1016.666    493.706    595.528    493.706
 59.870   1234.000   1150.609     83.391    493.772   1075.669    493.772    568.544    493.772
 59.970   1268.000   1232.876     35.124    493.839   1177.035    493.839    549.457    493.839
 60.070   1401.000   1348.218     52.782    493.907   1305.476    493.907    536.383    493.907
 60.170   1437.701   1465.452    -27.752    493.975   1431.587    493.975    527.554    493.975
 60.270   1602.000   1544.691     57.309    494.044   1516.910    494.044    521.551    494.044
 60.370   1577.000   1550.903     26.097    494.114   1527.426    494.114    517.358    494.114
 60.470   1419.216   1472.798    -53.583    494.184   1452.499    494.184    514.308    494.184
 60.570   1326.000   1329.669     -3.669    494.254   1311.812    494.254    511.992    494.254
 60.670   1163.000   1157.025      5.975    494.325   1141.104    494.325    510.173    494.325
 60.770    967.000    988.321    -21.321    494.397    973.959    494.397    508.716    494.397
 60.870    867.366    845.946     21.419    494.469    832.844    494.469    507.548    494.469
 60.970    783.463    739.696     43.767    494.541    727.593    494.541    506.629    494.541
 61.070    676.000    669.351      6.649    494.614    658.011    494.614    505.942    494.614
 61.170    623.764    629.336     -5.572    494.687    618.531    494.687    505.478    494.687
 61.270    676.000    613.431     62.569    494.761    602.934    494.761    505.237    494.761
 61.370    652.077    618.055     34.022    494.836    607.650    494.836    505.211    494.836
 61.470    664.000    643.595     20.405    494.910    633.079    494.910    505.380    494.910
 61.570    731.000    693.820     37.180    494.986    683.033    494.986    505.705    494.986
 61.670    752.000    773.635    -21.635    495.061    762.488    495.061    506.113    495.061
 61.770    890.000    885.517      4.483    495.137    874.032    495.137    506.496    495.137
 61.870    995.791   1025.496    -29.705    495.214   1013.843    495.214    506.711    495.214
 61.970   1232.364   1180.023     52.341    495.291   1168.514    495.291    506.623    495.291
 62.070   1314.000   1325.093    -11.093    495.368   1314.104    495.368    506.176    495.368
 62.170   1431.285   1429.154      2.131    495.446   1419.007    495.446    505.430    495.446
 62.270   1428.000   1462.723    -34.723    495.524   1453.607    495.524    504.513    495.524
 62.370   1352.000   1414.354    -62.354    495.602   1406.315    495.602    503.556    495.602
 62.470   1251.000   1299.007    -48.007    495.681   1291.985    495.681    502.655    495.681
 62.570   1150.000   1147.650      2.350    495.760   1141.524    495.760    501.865    495.760
 62.670    974.000    991.284    -17.284    495.839    985.908    495.839    501.211    495.839
 62.770    781.000    852.327    -71.327    495.919    847.555    495.919    500.693    495.919
 62.870    734.000    742.468     -8.468    495.999    738.171    495.999    500.300    495.999
 62.970    711.588    663.925     47.663    496.079    659.997    496.079    500.009    496.079
 63.070    654.549    612.579     41.970    496.159    608.940    496.159    499.799    496.159
 63.170    608.000    581.585     26.415    496.240    578.175    496.240    499.647    496.240
 63.270    537.000    564.184    -27.184    496.321    560.962    496.321    499.539    496.321
 63.370    577.000    555.211     21.789    496.402    552.147    496.402    499.461    496.402
 63.470    566.000    551.479     14.521    496.484    548.551    496.484    499.405    496.484
 63.570    587.000    551.584     35.416    496.566    548.776    496.566    499.365    496.566
 63.670    579.252    555.563     23.689    496.648    552.860    496.648    499.338    496.648
 63.770    612.568    564.609     47.959    496.730    562.001    496.730    499.321    496.730
 63.870    595.028    580.832     14.196    496.812    578.307    496.812    499.313    496.812
 63.970    610.000    606.870      3.130    496.895    604.415    496.895    499.313    496.895
 64.070    645.010    645.211     -0.201    496.978    642.817    496.978    499.320    496.978
 64.170    689.000    697.190     -8.190    497.061    694.846    497.061    499.334    497.061
 64.270    796.000    761.802     34.198    497.144    759.502    497.144    499.353    497.144
 64.370    886.000    834.654     51.346    497.227    832.393    497.227    499.377    497.227
 64.470    885.074    907.431    -22.357    497.310    905.211    497.310    499.406    497.310
 64.570   1023.000    968.537     54.463    497.394    966.361    497.394    499.439    497.394
 64.670   1053.000   1005.993     47.007    497.477   1003.869    497.477    499.476    497.477
 64.770   1014.206   1012.389      1.817    497.561   1010.323    497.561    499.517    497.561
 64.870    948.484    988.136    -39.652    497.645    986.133    497.645    499.561    497.645
 64.970    943.000    940.329      2.671    497.729    938.389    497.729    499.609    497.729
 65.070    901.000    879.447     21.553    497.813    877.568    497.813    499.659    497.813
 65.170    871.000    815.945     55.055    497.897    814.119    497.897    499.713    497.897
 65.270    703.379    757.516    -54.136    497.981    755.736    497.981    499.769    497.981
 65.370    677.000    707.999    -30.999    498.065    706.256    498.065    499.827    498.065
 65.470    709.000    667.985     41.015    498.149    666.271    498.149    499.888    498.149
 65.570    651.246    636.350     14.896    498.234    634.658    498.234    499.951    498.234
 65.670    627.000    611.605     15.395    498.318    609.929    498.318    500.017    498.318
 65.770    539.000    592.454    -53.454    498.402    590.790    498.402    500.084    498.402
 65.870    538.817    577.850    -39.033    498.487    576.196    498.487    500.154    498.487
 65.970    589.767    566.976     22.791    498.571    565.329    498.571    500.225    498.571
 66.070    577.596    559.203     18.393    498.655    557.563    498.655    500.299    498.655
 66.170    555.013    554.034      0.979    498.739    552.400    498.739    500.374    498.739
 66.270    543.000    551.048     -8.048    498.823    549.420    498.823    500.452    498.823
 66.370    489.000    549.885    -60.885    498.907    548.261    498.907    500.531    498.907
 66.470    520.000    550.267    -30.267    498.991    548.647    498.991    500.611    498.991
 66.570    525.000    552.049    -27.049    499.075    550.431    499.075    500.694    499.075
 66.670    573.000    555.298     17.702    499.159    553.680    499.159    500.778    499.159
 66.770    570.000    560.432      9.568    499.243    558.811    499.243    500.864    499.243
 66.870    602.000    568.456     33.544    499.327    566.831    499.327    500.952    499.327
 66.970    604.000    581.353     22.647    499.410    579.722    499.410    501.042    499.410
 67.070    592.454    602.614    -10.160    499.494    600.973    499.494    501.134    499.494
 67.170    621.927    637.791    -15.864    499.577    636.137    499.577    501.227    499.577
 67.270    701.000    694.795      6.205    499.660    693.125    499.660    501.322    499.660
 67.370    729.532    783.481    -53.949    499.743    781.792    499.743    501.420    499.743
 67.470    903.000    914.059    -11.059    499.826    912.349    499.826    501.519    499.826
 67.570   1133.000   1094.110     38.890    499.909   1092.379    499.909    501.620    499.909
 67.670   1360.098   1324.577     35.521    499.991   1322.830    499.991    501.724    499.991
 67.770   1608.000   1595.750     12.250    500.073   1593.994    500.073    501.830    500.073
 67.870   1906.000   1884.521     21.479    500.156   1882.768    500.156    501.939    500.156
 67.970   2137.338   2154.080    -16.742    500.237   2152.344    500.237    502.050    500.237
 68.070   2431.000   2357.785     73.215    500.319   2356.079    500.319    502.163    500.319
 68.170   2389.782   2450.799    -61.017    500.400   2449.127    500.400    502.280    500.400
 68.270   2335.000   2409.531    -74.531    500.482   2407.882    500.482    502.400    500.482
 68.370   2209.000   2245.100    -36.100    500.563   2243.446    500.563    502.523    500.563
 68.470   1907.288   1996.371    -89.083    500.643   1994.676    500.643    502.650    500.643
 68.570   1727.509   1710.867     16.642    500.724   1709.100    500.724    502.781    500.724
 68.670   1426.000   1429.899     -3.899    500.804   1428.036    500.804    502.916    500.804
 68.770   1216.000   1182.075     33.925    500.883   1180.103    500.883    503.055    500.883
 68.870    903.000    982.166    -79.166    500.963    980.079    500.963    503.200    500.963
 68.970    819.444    833.005    -13.562    501.042    830.804    501.042    503.350    501.042
 69.070    698.000    729.160    -31.160    501.121    726.847    501.121    503.506    501.121
 69.170    712.483    661.076     51.407    501.199    658.654    501.199    503.668    501.199
 69.270    613.000    618.531     -5.531    501.278    616.001    501.278    503.838    501.278
 69.370    585.000    592.759     -7.759    501.355    590.117    501.355    504.016    501.355
 69.470    582.000    577.276      4.724    501.433    574.518    501.433    504.203    501.433
 69.570    591.442    567.807     23.635    501.510    564.927    501.510    504.399    501.510
 69.670    566.000    561.789      4.211    501.587    558.775    501.587    504.607    501.587
 69.770    588.000    557.797     30.203    501.663    554.637    501.663    504.827    501.663
 69.870    578.000    555.086     22.914    501.739    551.767    501.739    505.061    501.739
 69.970    593.000    553.284     39.716    501.815    549.789    501.815    505.311    501.815
 70.070    527.000    552.207    -25.207    501.890    548.519    501.890    505.579    501.890
 70.170    544.000    551.776     -7.776    501.964    547.874    501.964    505.867    501.964
 70.270    595.470    551.973     43.497    502.039    547.832    502.039    506.178    502.039
 70.370    564.908    552.839     12.069    502.112    548.434    502.112    506.516    502.112
 70.470    553.379    554.503     -1.124    502.186    549.802    502.186    506.884    502.186
 70.570    561.082    557.238      3.844    502.259    552.205    502.259    507.288    502.259
 70.670    539.000    561.577    -22.577    502.331    556.169    502.331    507.733    502.331
 70.770    604.375    568.492     35.883    502.403    562.659    502.403    508.227    502.403
 70.870    585.000    579.644      5.356    502.474    573.326    502.474    508.780    502.474
 70.970    619.953    597.656     22.297    502.545    590.778    502.545    509.404    502.545
 71.070    667.751    626.339     41.413    502.616    618.807    502.616    510.118    502.616
 71.170    673.665    670.696      2.969    502.685    662.385    502.685    510.953    502.685
 71.270    772.484    736.503     35.981    502.755    727.237    502.755    511.957    502.755
 71.370    845.771    829.301     16.471    502.824    818.825    502.824    513.209    502.824
 71.470    980.000    952.793     27.207    502.892    940.723    502.892    514.840    502.892
 71.570   1133.458   1106.882     26.576    502.960   1092.628    502.960    517.059    502.960
 71.670   1287.000   1285.817      1.183    503.027   1268.472    503.027    520.183    503.027
 71.770   1539.325   1476.974     62.352    503.093   1455.180    503.093    524.672    503.093
 71.870   1607.000   1660.771    -53.771    503.159   1632.560    503.159    531.141    503.159
 71.970   1862.000   1812.393     49.607    503.225   1775.045    503.225    540.348    503.225
 72.070   1911.663   1906.750      4.913    503.289   1856.713    503.289    553.125    503.289
 72.170   1844.175   1927.142    -82.968    503.353   1860.082    503.353    570.249    503.353
 72.270   1909.421   1873.296     36.125    503.417   1784.338    503.417    592.253    503.417
 72.370   1825.274   1761.580     63.694    503.480   1645.790    503.480    619.189    503.480
 72.470   1665.582   1616.952     48.631    503.542   1470.051    503.542    650.393    503.542
 72.570   1392.144   1463.691    -71.547    503.604   1282.981    503.604    684.287    503.604
 72.670   1364.000   1319.884     44.116    503.665   1105.309    503.665    718.225    503.665
 72.770   1191.000   1195.464     -4.464    503.725    950.697    503.725    748.484    503.725
 72.870   1119.987   1092.570     27.417    503.785    825.737    503.785    770.610    503.785
 72.970   1043.866   1007.797     36.069    503.844    731.136    503.844    780.498    503.844
 73.070    854.000    935.731    -81.731    503.902    663.569    503.902    776.057    503.902
 73.170    803.000    872.022    -69.022    503.959    617.684    503.959    758.291    503.959
 73.270    765.147    814.488    -49.341    504.016    587.759    504.016    730.739    504.016
 73.370    690.000    762.573    -72.573    504.072    568.775    504.072    697.866    504.072
 73.470    672.013    716.487    -44.474    504.128    556.882    504.128    663.730    504.128
 73.570    673.350    676.647     -3.297    504.183    549.437    504.183    631.391    504.183
 73.670    657.000    643.382     13.618    504.236    544.794    504.236    602.825    504.236
 73.770    584.000    616.748    -32.748    504.290    542.016    504.290    579.025    504.290
 73.870    622.615    596.458     26.157    504.342    540.620    504.342    560.186    504.342
 73.970    572.000    581.893     -9.893    504.394    540.362    504.394    545.934    504.394
 74.070    553.000    572.200    -19.200    504.445    541.096    504.445    535.562    504.445
 74.170    610.000    566.397     43.603    504.495    542.670    504.495    528.241    504.495
 74.270    565.000    563.472      1.528    504.544    544.865    504.544    523.175    504.544
 74.370    599.000    562.433     36.567    504.592    547.363    504.592    519.693    504.592
 74.470    629.000    562.343     66.657    504.640    549.744    504.640    517.275    504.640
 74.570    620.000    562.347     57.653    504.687    551.521    504.687    515.554    504.687
 74.670    573.328    561.736     11.592    504.733    552.230    504.733    514.282    504.733
 74.770    612.000    560.072     51.928    504.778    551.592    504.778    513.303    504.778
 74.870    595.000    557.286     37.714    504.823    549.633    504.823    512.518    504.823
 74.970    574.769    553.646     21.123    504.866    546.681    504.866    511.869    504.866
 75.070    573.142    549.620     23.522    504.909    543.240    504.909    511.321    504.909
 75.170    579.550    545.730     33.820    504.951    539.856    504.951    510.850    504.951
 75.270    524.108    542.487    -18.380    504.992    537.056    504.992    510.442    504.992
 75.370    589.965    540.377     49.588    505.032    535.335    505.032    510.086    505.032
 75.470    565.000    539.880     25.120    505.071    535.185    505.071    509.773    505.071
 75.570    555.000    541.500     13.500    505.109    537.112    505.109    509.497    505.109
 75.670    587.703    545.767     41.935    505.147    541.655    505.147    509.254    505.147
 75.770    556.000    553.218      2.782    505.183    549.351    505.183    509.037    505.183
 75.870    567.648    564.297      3.351    505.219    560.652    505.219    508.845    505.219
 75.970    560.000    579.225    -19.225    505.253    575.779    505.253    508.673    505.253
 76.070    630.000    597.818     32.182    505.287    594.550    505.287    508.519    505.287
 76.170    652.000    619.321     32.679    505.320    616.216    505.320    508.381    505.320
 76.270    616.673    642.308    -25.635    505.352    639.350    505.352    508.257    505.352
 76.370    634.816    664.655    -29.839    505.383    661.833    505.383    508.145    505.383
 76.470    726.009    683.667     42.342    505.413    680.972    505.413    508.045    505.413
 76.570    685.515    696.440    -10.925    505.442    693.865    505.442    507.953    505.442
 76.670    725.000    700.601     24.399    505.470    698.139    505.470    507.871    505.470
 76.770    715.000    695.249     19.751    505.497    692.895    505.497    507.796    505.497
 76.870    688.000    681.397      6.603    505.523    679.145    505.523    507.727    505.523
 76.970    702.747    661.475     41.272    505.548    659.319    505.548    507.665    505.548
 77.070    641.000    638.385      2.615    505.572    636.318    505.572    507.608    505.572
 77.170    576.000    614.772    -38.772    505.595    612.788    505.595    507.555    505.595
 77.270    575.000    592.680    -17.680    505.617    590.773    505.617    507.507    505.617
 77.370    534.012    573.444    -39.432    505.638    571.607    505.638    507.463    505.638
 77.470    517.000    557.706    -40.706    505.658    555.934    505.658    507.422    505.658
 77.570    500.841    545.531    -44.689    505.677    543.817    505.677    507.384    505.677
 77.670    579.698    536.573     43.125    505.695    534.915    505.695    507.349    505.695
 77.770    513.997    530.268    -16.271    505.712    528.661    505.712    507.316    505.712
 77.870    533.000    525.990      7.010    505.728    524.429    505.728    507.285    505.728
 77.970    543.000    523.156     19.844    505.742    521.640    505.742    507.257    505.742
 78.070    534.000    521.267     12.733    505.756    519.792    505.756    507.230    505.756
 78.170    477.678    520.052    -42.374    505.769    518.616    505.769    507.204    505.769
 78.270    553.088    519.246     33.841    505.780    517.846    505.780    507.180    505.780
 78.370    518.000    518.696     -0.696    505.791    517.329    505.791    507.157    505.791
 78.470    527.000    518.314      8.686    505.800    516.978    505.800    507.135    505.800
 78.570    525.000    518.052      6.948    505.808    516.745    505.808    507.114    505.808
 78.670    571.000    517.891     53.109    505.816    516.611    505.816    507.094    505.816
 78.770    519.234    517.829      1.406    505.822    516.574    505.822    507.076    505.822
 78.870    479.584    517.872    -38.288    505.827    516.641    505.827    507.058    505.827
 78.970    492.533    518.038    -25.505    505.831    516.827    505.831    507.041    505.831
 79.070    535.385    518.350     17.035    505.833    517.157    505.833    507.026    505.833
 79.170    543.385    518.836     24.549    505.835    517.658    505.835    507.012    505.835
 79.270    545.000    519.527     25.473    505.836    518.360    505.836    507.001    505.836
 79.370    515.000    520.455     -5.455    505.835    519.294    505.835    506.993    505.835
 79.470    519.622    521.649     -2.027    505.833    520.489    505.833    506.990    505.833
 79.570    520.000    523.143     -3.143    505.830    521.977    505.830    506.992    505.830
 79.670    515.000    524.981     -9.981    505.826    523.801    505.826    507.002    505.826
 79.770    500.000    527.228    -27.228    505.821    526.025    505.821    507.020    505.821
 79.870    506.284    529.992    -23.708    505.815    528.754    505.815    507.047    505.815
 79.970    524.000    533.439     -9.439    505.807    532.155    505.807    507.086    505.807
 80.070    560.563    537.817     22.746    505.798    536.476    505.798    507.134    505.798
 80.170    582.769    543.474     39.295    505.788    542.066    505.788    507.192    505.788
 80.270    530.830    550.855    -20.025    505.777    549.373    505.777    507.256    505.777
 80.370    557.000    560.452     -3.452    505.765    558.892    505.765    507.324    505.765
 80.470    558.000    572.705    -14.705    505.751    571.069    505.751    507.388    505.751
 80.570    592.553    587.871      4.683    505.737    586.170    505.737    507.443    505.737
 80.670    573.000    605.912    -32.912    505.721    604.164    505.721    507.478    505.721
 80.770    560.000    626.404    -66.404    505.704    624.636    505.704    507.486    505.704
 80.870    666.564    648.499     18.065    505.686    646.741    505.686    507.462    505.686
 80.970    656.000    670.964    -14.964    505.666    669.251    505.666    507.405    505.666
 81.070    720.000    692.338     27.662    505.645    690.697    505.645    507.319    505.645
 81.170    726.000    711.162     14.838    505.623    709.613    505.623    507.212    505.623
 81.270    704.000    726.184    -22.184    505.600    724.737    505.600    507.093    505.600
 81.370    692.166    736.461    -44.295    505.576    735.120    505.576    506.970    505.576
 81.470    796.802    741.435     55.368    505.550    740.196    505.550    506.848    505.550
 81.570    760.000    740.984     19.016    505.523    739.839    505.523    506.732    505.523
 81.670    757.000    735.392     21.608    505.495    734.329    505.495    506.624    505.495
 81.770    675.638    725.249    -49.611    505.466    724.257    505.466    506.526    505.466
 81.870    753.000    711.408     41.592    505.435    710.473    505.435    506.438    505.435
 81.970    689.000    694.970     -5.970    505.404    694.081    505.404    506.360    505.404
 82.070    714.000    677.158     36.842    505.371    676.304    505.371    506.290    505.371
 82.170    691.753    659.066     32.687    505.336    658.239    505.336    506.226    505.336
 82.270    629.000    641.463    -12.463    505.301    640.655    505.301    506.168    505.301
 82.370    625.000    624.762      0.238    505.264    623.968    505.264    506.113    505.264
 82.470    609.270    609.138      0.132    505.226    608.353    505.226    506.061    505.226
 82.570    601.000    594.702      6.298    505.186    593.923    505.186    506.011    505.186
 82.670    578.737    581.613     -2.875    505.145    580.836    505.145    505.961    505.145
 82.770    561.000    570.078     -9.078    505.104    569.302    505.104    505.912    505.104
 82.870    595.000    560.315     34.685    505.060    559.538    505.060    505.863    505.060
 82.970    510.000    552.508    -42.508    505.016    551.729    505.016    505.813    505.016
 83.070    588.244    546.791     41.454    504.970    546.009    504.970    505.763    504.970
 83.170    529.000    543.232    -14.232    504.923    542.447    504.923    505.712    504.923
 83.270    562.000    541.821     20.179    504.875    541.031    504.875    505.660    504.875
 83.370    524.000    542.444    -18.444    504.825    541.649    504.825    505.608    504.825
 83.470    522.000    544.871    -22.871    504.774    544.071    504.774    505.555    504.774
 83.570    511.000    548.743    -37.743    504.722    547.938    504.722    505.501    504.722
 83.670    530.443    553.573    -23.130    504.668    552.762    504.668    505.446    504.668
 83.770    513.000    558.764    -45.764    504.613    557.948    504.613    505.390    504.613
 83.870    587.000    563.633     23.367    504.557    562.813    504.557    505.333    504.557
 83.970    613.000    567.474     45.526    504.500    566.651    504.500    505.275    504.500
 84.070    572.925    569.652      3.274    504.441    568.829    504.441    505.216    504.441
 84.170    530.000    569.744    -39.744    504.381    568.922    504.381    505.156    504.381
 84.270    581.902    567.652     14.249    504.320    566.833    504.320    505.095    504.320
 84.370    581.303    563.629     17.674    504.257    562.813    504.257    505.033    504.257
 84.470    599.772    558.174     41.599    504.193    557.362    504.193    504.970    504.193
 84.570    573.000    551.888     21.112    504.128    551.081    504.128    504.906    504.128
 84.670    556.000    545.351     10.649    504.061    544.548    504.061    504.841    504.061
 84.770    544.000    539.049      4.951    503.993    538.249    503.993    504.775    503.993
 84.870    505.000    533.340    -28.340    503.924    532.542    503.924    504.708    503.924
 84.970    509.000    528.445    -19.445    503.853    527.648    503.853    504.640    503.853
 85.070    515.000    524.455     -9.455    503.781    523.658    503.781    504.571    503.781
 85.170    498.000    521.359    -23.359    503.708    520.560    503.708    504.500    503.708
 85.270    485.613    519.073    -33.461    503.634    518.273    503.634    504.429    503.634
 85.370    488.000    517.479    -29.479    503.558    516.675    503.558    504.357    503.558
 85.470    512.000    516.448     -4.448    503.481    515.641    503.481    504.284    503.481
 85.570    521.000    515.867      5.133    503.402    515.056    503.402    504.209    503.402
 85.670    505.000    515.654    -10.654    503.323    514.838    503.323    504.134    503.323
 85.770    526.000    515.762     10.238    503.242    514.941    503.242    504.058    503.242
 85.870    460.000    516.185    -56.185    503.159    515.358    503.159    503.980    503.159
 85.970    478.000    516.961    -38.961    503.075    516.127    503.075    503.902    503.075
 86.070    496.000    518.170    -22.170    502.990    517.328    502.990    503.823    502.990
 86.170    532.360    519.935     12.425    502.904    519.085    502.904    503.742    502.904
 86.270    529.000    522.415      6.585    502.816    521.555    502.816    503.661    502.816
 86.370    525.000    525.796     -0.796    502.727    524.925    502.727    503.579    502.727
 86.470    551.694    530.274     21.420    502.637    529.390    502.637    503.496    502.637
 86.570    527.000    536.024     -9.024    502.545    535.125    502.545    503.412    502.545
 86.670    530.000    543.169    -13.169    502.452    542.254    502.452    503.327    502.452
 86.770    550.000    551.737     -1.737    502.358    550.803    502.358    503.241    502.358
 86.870    582.000    561.616     20.384    502.262    560.661    502.262    503.154    502.262
 86.970    611.000    572.525     38.475    502.166    571.549    502.166    503.066    502.166
 87.070    620.000    583.994     36.006    502.067    582.997    502.067    502.977    502.067
 87.170    549.144    595.362    -46.218    501.968    594.344    501.968    502.888    501.968
 87.270    614.066    605.803      8.263    501.867    604.766    501.867    502.796    501.867
 87.370    672.000    614.381     57.619    501.765    613.326    501.765    502.705    501.765
 87.470    571.125    620.236    -49.111    501.661    619.167    501.661    502.613    501.661
 87.570    576.458    622.693    -46.235    501.557    621.614    501.557    502.520    501.557
 87.670    604.988    621.504    -16.517    501.451    620.418    501.451    502.427    501.451
 87.770    623.000    616.924      6.076    501.343    615.835    501.343    502.333    501.343
 87.870    582.000    609.621    -27.621    501.235    608.530    501.235    502.239    501.235
 87.970    640.000    600.498     39.502    501.125    599.405    501.125    502.144    501.125
 88.070    643.000    590.529     52.471    501.013    589.434    501.013    502.048    501.013
 88.170    626.000    580.648     45.352    500.901    579.550    500.901    501.952    500.901
 88.270    554.970    571.684    -16.714    500.787    570.581    500.787    501.856    500.787
 88.370    575.757    564.302     11.455    500.672    563.192    500.672    501.759    500.672
 88.470    572.000    558.982     13.018    500.555    557.863    500.555    501.661    500.555
 88.570    534.000    555.997    -21.997    500.438    554.867    500.438    501.564    500.438
 88.670    540.026    555.419    -15.393    500.319    554.276    500.319    501.466    500.319
 88.770    560.221    557.123      3.098    500.199    555.966    500.199    501.369    500.199
 88.870    601.000    560.804     40.196    500.077    559.631    500.077    501.271    500.077
 88.970    567.000    565.998      1.002    499.954    564.808    499.954    501.173    499.954
 89.070    606.043    572.106     33.937    499.830    570.896    499.830    501.076    499.830
 89.170    577.000    578.424     -1.424    499.705    577.194    499.705    500.978    499.705
 89.270    584.000    584.189     -0.189    499.578    582.936    499.578    500.882    499.578
 89.370    584.966    588.638     -3.672    499.450    587.360    499.450    500.785    499.450
 89.470    664.000    591.115     72.885    499.321    589.808    499.321    500.690    499.321
 89.570    573.000    591.190    -18.190    499.191    589.849    499.191    500.596    499.191
 89.670    607.513    588.760     18.753    499.059    587.381    499.059    500.502    499.059
 89.770    566.000    584.063    -18.063    498.926    582.642    498.926    500.410    498.926
 89.870    595.000    577.595     17.405    498.792    576.126    498.792    500.320    498.792
 89.970    579.000    569.971      9.029    498.657    568.450    498.657    500.231    498.657
 90.070    529.847    561.816    -31.969    498.520    560.238    498.520    500.145    498.520
 90.170    539.000    553.684    -14.684    498.383    552.045    498.383    500.061    498.383
 90.270    533.000    546.021    -13.021    498.244    544.317    498.244    499.980    498.244
 90.370    529.000    539.147    -10.147    498.103    537.372    498.103    499.903    498.103
 90.470    506.000    533.251    -27.251    497.962    531.402    497.962    499.830    497.962
 90.570    538.814    528.409     10.405    497.819    526.481    497.819    499.762    497.819
 90.670    519.000    524.602     -5.602    497.676    522.588    497.676    499.700    497.676
 90.770    534.000    521.743     12.257    497.531    519.636    497.531    499.645    497.531
 90.870    516.000    519.700     -3.700    497.384    517.490    497.384    499.600    497.384
 90.970    517.000    518.322     -1.322    497.237    515.996    497.237    499.565    497.237
 91.070    515.000    517.564     -2.564    497.088    515.107    497.088    499.546    497.088
 91.170    557.079    517.294     39.785    496.939    514.685    496.939    499.547    496.939
 91.270    485.000    517.445    -32.445    496.788    514.657    496.788    499.575    496.788
 91.370    510.000    518.008     -8.008    496.635    515.006    496.635    499.636    496.635
 91.470    492.000    519.017    -27.017    496.482    515.748    496.482    499.748    496.482
 91.570    546.000    520.547     25.453    496.328    516.944    496.328    499.927    496.328
 91.670    517.000    522.730     -5.730    496.172    518.702    496.172    500.194    496.172
 91.770    481.000    525.741    -44.741    496.016    521.174    496.016    500.575    496.016
 91.870    493.676    529.804    -36.127    495.858    524.548    495.858    501.103    495.858
 91.970    547.330    535.174     12.156    495.699    529.043    495.699    501.817    495.699
 92.070    525.000    542.128    -17.128    495.539    534.893    495.539    502.757    495.539
 92.170    529.000    550.937    -21.937    495.378    542.325    495.378    503.968    495.378
 92.270    562.000    561.839      0.161    495.215    551.535    495.215    505.493    495.215
 92.370    558.000    575.006    -17.006    495.052    562.658    495.052    507.368    495.052
 92.470    556.952    590.508    -33.556    494.888    575.737    494.888    509.619    494.888
 92.570    593.000    608.282    -15.282    494.722    590.698    494.722    512.259    494.722
 92.670    650.000    628.099     21.901    494.555    607.325    494.555    515.275    494.555
 92.770    628.823    649.579    -20.755    494.388    625.274    494.388    518.631    494.388
 92.870    641.488    672.140    -30.652    494.219    644.034    494.219    522.257    494.219
 92.970    719.000    695.044     23.956    494.049    662.971    494.049    526.048    494.049
 93.070    733.000    717.441     15.559    493.878    681.379    493.878    529.861    493.878
 93.170    739.000    738.470      0.530    493.706    698.581    493.706    533.515    493.706
 93.270    777.907    757.399     20.509    493.533    714.061    493.533    536.788    493.533
 93.370    821.000    773.750     47.250    493.360    727.588    493.360    539.440    493.360
 93.470    738.010    787.367    -49.357    493.185    739.238    493.185    541.232    493.185
 93.570    843.000    798.380     44.620    493.009    749.332    493.009    541.977    493.009
 93.670    810.000    807.130      2.870    492.832    758.305    492.832    541.580    492.832
 93.770    798.000    814.091    -16.091    492.654    766.602    492.654    540.068    492.654
 93.870    800.000    819.826    -19.826    492.475    774.649    492.475    537.580    492.475
 93.970    775.318    824.982    -49.664    492.295    782.878    492.295    534.331    492.295
 94.070    861.686    830.268     31.418    492.114    791.753    492.114    530.563    492.114
 94.170    819.000    836.378    -17.378    491.932    801.734    491.932    526.512    491.932
 94.270    867.000    843.835     23.165    491.750    813.140    491.750    522.383    491.750
 94.370    891.628    852.809     38.819    491.566    825.975    491.566    518.341    491.566
 94.470    868.187    862.985      5.201    491.382    839.797    491.382    514.513    491.382
 94.570    873.000    873.524     -0.524    491.196    853.678    491.196    510.990    491.196
 94.670    914.000    883.121     30.879    491.010    866.257    491.010    507.825    491.010
 94.770    946.906    890.150     56.756    490.823    875.885    490.823    505.046    490.823
 94.870    948.855    892.903     55.952    490.634    880.851    490.634    502.654    490.634
 94.970    922.706    889.910     32.796    490.445    879.701    490.445    500.630    490.445
 95.070    912.787    880.277     32.510    490.256    871.575    490.256    498.944    490.256
 95.170    906.000    863.941     42.059    490.065    856.445    490.065    497.555    490.065
 95.270    880.000    841.724     38.276    489.873    835.180    489.873    496.420    489.873
 95.370    859.000    815.084     43.916    489.681    809.278    489.681    495.496    489.681
 95.470    779.000    785.896     -6.896    489.488    780.653    489.488    494.742    489.488
 95.570    733.421    756.181    -22.759    489.294    751.364    489.294    494.124    489.294
 95.670    766.000    727.933     38.067    489.099    723.434    489.099    493.611    489.099
 95.770    735.212    703.005     32.207    488.904    698.742    488.904    493.178    488.904
 95.870    646.000    683.051    -37.051    488.707    678.958    488.707    492.807    488.707
 95.970    667.000    669.497     -2.497    488.510    665.527    488.510    492.482    488.510
 96.070    651.636    663.553    -11.917    488.312    659.668    488.312    492.192    488.312
 96.170    638.181    666.224    -28.043    488.114    662.394    488.114    491.929    488.114
 96.270    688.000    678.329      9.671    487.915    674.530    487.915    491.688    487.915
 96.370    704.000    700.498      3.502    487.715    696.712    487.715    491.465    487.715
 96.470    744.897    733.141     11.755    487.514    729.351    487.514    491.257    487.514
 96.570    774.035    776.376     -2.341    487.313    772.567    487.313    491.062    487.313
 96.670    794.155    829.928    -35.773    487.111    826.087    487.111    490.879    487.111
 96.770    837.191    893.011    -55.821    486.908    889.128    486.908    490.707    486.908
 96.870    941.000    964.220    -23.220    486.705    960.285    486.705    490.546    486.705
 96.970   1062.000   1041.446     20.554    486.501   1037.449    486.501    490.396    486.501
 97.070   1109.697   1121.838    -12.142    486.296   1117.771    486.296    490.256    486.296
 97.170   1214.000   1201.836     12.164    486.091   1197.692    486.091    490.127    486.091
 97.270   1288.851   1277.269     11.581    485.885   1273.040    485.885    490.009    485.885
 97.370   1339.000   1343.567     -4.567    485.679   1339.246    485.679    489.903    485.679
 97.470   1376.997   1396.156    -19.158    485.472   1391.736    485.472    489.809    485.472
 97.570   1452.000   1431.039     20.961    485.265   1426.512    485.265    489.728    485.265
 97.670   1502.000   1445.486     56.514    485.057   1440.839    485.057    489.662    485.057
 97.770   1476.279   1438.585     37.694    484.848   1433.803    484.848    489.610    484.848
 97.870   1339.112   1411.405    -72.293    484.639   1406.470    484.639    489.576    484.639
 97.970   1374.000   1366.684      7.316    484.430   1361.575    484.430    489.560    484.430
 98.070   1318.000   1308.252      9.748    484.220   1302.941    484.220    489.567    484.220
 98.170   1248.320   1240.432      7.888    484.010   1234.890    484.010    489.599    484.010
 98.270   1178.518   1167.601     10.917    483.799   1161.792    483.799    489.663    483.799
 98.370   1089.774   1093.883     -4.109    483.588   1087.763    483.588    489.764    483.588
 98.470   1020.000   1022.959     -2.959    483.376   1016.477    483.376    489.913    483.376
 98.570   1004.345    957.963     46.382    483.164    951.054    483.164    490.123    483.164
 98.670    926.000    901.451     24.549    482.952    894.034    482.952    490.412    482.952
 98.770    880.000    855.420     24.580    482.739    847.389    482.739    490.805    482.739
 98.870    842.000    821.425     20.575    482.526    812.644    482.526    491.332    482.526
 98.970    791.000    800.565     -9.565    482.312    790.855    482.312    492.036    482.312
 99.070    800.000    793.633      6.367    482.098    782.765    482.098    492.971    482.098
 99.170    835.000    801.175     33.825    481.884    788.853    481.884    494.202    481.884
 99.270    878.163    823.537     54.627    481.670    809.385    481.670    495.809    481.670
 99.370    818.437    860.861    -42.424    481.455    844.409    481.455    497.887    481.455
 99.470    860.810    913.054    -52.244    481.240    893.725    481.240    500.543    481.240
 99.570    999.000    979.715     19.285    481.025    956.815    481.025    503.897    481.025
 99.670   1084.000   1060.042     23.958    480.810   1032.752    480.810    508.071    480.810
 99.770   1198.888   1152.728     46.160    480.595   1120.107    480.595    513.189    480.595
 99.870   1263.000   1255.869      7.131    480.379   1216.864    480.379    519.363    480.379
 99.970   1428.193   1366.897     61.296    480.163   1320.365    480.163    526.686    480.163
100.070   1489.000   1482.558      6.442    479.947   1427.295    479.947    535.215    479.947
100.170   1546.782   1598.964    -52.182    479.731   1533.756    479.731    544.963    479.731
100.270   1742.000   1711.772     30.228    479.515   1635.451    479.515    555.881    479.515
100.370   1857.594   1816.500     41.094    479.298   1728.015    479.298    567.855    479.298
100.470   1918.000   1908.949      9.051    479.082   1807.443    479.082    580.685    479.082
100.570   2074.555   1985.584     88.971    478.866   1870.485    478.866    594.088    478.866
100.670   2024.000   2043.733    -19.733    478.649   1914.841    478.649    607.688    478.649
100.770   2029.000   2081.541    -52.541    478.433   1939.126    478.433    621.015    478.433
100.870   2152.000   2097.825     54.175    478.216   1942.716    478.216    633.510    478.216
100.970   2164.000   2092.041     71.959    478.000   1925.693    478.000    644.547    478.000
101.070   2125.000   2064.453     60.547    477.784   1888.978    477.784    653.466    477.784
101.170   2073.000   2016.433     56.567    477.567   1834.560    477.567    659.652    477.567
101.270   1872.000   1950.658    -78.658    477.351   1765.601    477.351    662.620    477.351
101.370   1893.000   1871.017     21.983    477.135   1686.247    477.135    662.112    477.135
101.470   1797.000   1782.217     14.783    476.919   1601.180    476.919    658.154    476.919
101.570   1688.580   1689.223     -0.643    476.703   1515.063    476.703    651.049    476.703
101.670   1612.000   1596.718     15.282    476.488   1432.069    476.488    641.308    476.488
101.770   1453.000   1508.702    -55.702    476.272   1355.566    476.272    629.564    476.272
101.870   1383.000   1428.234    -45.234    476.057   1287.960    476.057    616.471    476.057
101.970   1370.000   1357.332     12.668    475.842   1230.651    475.842    602.648    475.842
102.070   1303.000   1296.956      6.044    475.627   1184.056    475.627    588.639    475.627
102.170   1249.786   1247.064      2.722    475.413   1147.680    475.413    574.897    475.413
102.270   1186.000   1206.724    -20.724    475.199   1120.230    475.199    561.783    475.199
102.370   1132.000   1174.260    -42.260    474.985   1099.763    474.985    549.565    474.985
102.470   1120.000   1147.450    -27.450    474.771   1083.873    474.771    538.428    474.771
102.570   1076.302   1123.771    -47.470    474.558   1069.931    474.558    528.475    474.558
102.670   1092.000   1100.704     -8.704    474.345   1055.384    474.345    519.742    474.345
102.770   1004.000   1076.067    -72.067    474.133   1038.068    474.133    512.209    474.133
102.870    994.945   1048.304    -53.359    473.921   1016.492    473.921    505.812    473.921
102.970   1017.000   1016.646      0.354    473.710    989.982    473.710    500.453    473.710
103.070    921.000    981.091    -60.091    473.499    958.652    473.499    496.018    473.499
103.170    922.000    942.246    -20.246    473.288    923.230    473.288    492.383    473.288
103.270    905.567    901.100      4.467    473.078    884.830    473.078    489.425    473.078
103.370    851.000    858.822     -7.822    472.869    844.737    472.869    487.027    472.869
103.470    812.000    816.606     -4.606    472.660    804.250    472.660    485.083    472.660
103.570    765.215    775.561    -10.347    472.452    764.573    472.452    483.502    472.452
103.670    739.149    736.654      2.494    472.244    726.748    472.244    482.206    472.244
103.770    718.000    700.648     17.352    472.037    691.603    472.037    481.131    472.037
103.870    680.000    668.084     11.916    471.831    659.732    471.831    480.226    471.831
103.970    627.000    639.278    -12.278    471.625    631.491    471.625    479.449    471.625
104.070    614.000    614.332     -0.332    471.420    607.014    471.420    478.768    471.420
104.170    554.656    593.188    -38.532    471.216    586.261    471.216    478.168    471.216
104.270    623.000    575.616     47.384    471.012    569.020    471.012    477.628    471.012
104.370    557.230    561.292     -4.062    470.810    554.983    470.810    477.134    470.810
104.470    556.000    549.836      6.164    470.608    543.778    470.608    476.678    470.608
104.570    534.982    540.846     -5.864    470.407    535.010    470.407    476.252    470.407
104.670    529.000    533.931     -4.931    470.207    528.292    470.207    475.852    470.207
104.770    501.483    528.733    -27.250    470.008    523.271    470.008    475.474    470.008
104.870    540.000    524.937     15.063    469.810    519.637    469.810    475.112    469.810
104.970    502.812    522.287    -19.475    469.612    517.139    469.612    474.761    469.612
105.070    528.000    520.600      7.400    469.416    515.581    469.416    474.434    469.416
105.170    525.497    519.729      5.768    469.221    514.825    469.221    474.122    469.221
105.270    529.000    519.587      9.413    469.026    514.786    469.026    473.824    469.026
105.370    488.225    520.136    -31.911    468.833    515.428    468.833    473.537    468.833
105.470    491.000    521.384    -30.384    468.641    516.757    468.641    473.261    468.641
105.570    533.000    523.372      9.628    468.450    518.818    468.450    472.996    468.450
105.670    534.000    526.173      7.827    468.260    521.683    468.260    472.740    468.260
105.770    502.986    529.882    -26.896    468.071    525.447    468.071    472.494    468.071
105.870    528.731    534.604     -5.873    467.884    530.215    467.884    472.257    467.884
105.970    577.185    540.440     36.744    467.697    536.091    467.697    472.029    467.697
106.070    561.000    547.475     13.525    467.512    543.159    467.512    471.808    467.512
106.170    580.262    555.760     24.502    467.328    551.469    467.328    471.596    467.328
106.270    581.000    565.297     15.703    467.146    561.025    467.146    471.391    467.146
106.370    595.000    576.029     18.971    466.965    571.769    466.965    471.193    466.965
106.470    562.000    587.827    -25.827    466.785    583.574    466.785    471.003    466.785
106.570    565.000    600.490    -35.490    466.607    596.238    466.607    470.819    466.607
106.670    621.000    613.743      7.257    466.430    609.487    466.430    470.642    466.430
106.770    619.000    627.241     -8.241    466.254    622.977    466.254    470.473    466.254
106.870    568.000    640.582    -72.582    466.080    636.305    466.080    470.310    466.080
106.970    656.957    653.321      3.636    465.908    649.026    465.908    470.153    465.908
107.070    650.000    664.993    -14.993    465.737    660.676    465.737    470.004    465.737
107.170    679.000    675.154      3.846    465.567    670.811    465.567    469.860    465.567
107.270    706.442    683.425     23.017    465.399    679.052    465.399    469.724    465.399
107.370    640.919    689.546    -48.626    465.233    685.139    465.233    469.594    465.233
107.470    654.000    693.429    -39.429    465.069    688.984    465.069    469.471    465.069
107.570    656.000    695.178    -39.178    464.906    690.690    464.906    469.355    464.906
107.670    714.000    695.078     18.922    464.745    690.543    464.745    469.246    464.745
107.770    661.752    693.553    -31.801    464.586    688.966    464.586    469.144    464.586
107.870    722.810    691.096     31.714    464.428    686.451    464.428    469.049    464.428
107.970    664.000    688.205    -24.205    464.273    683.496    464.273    468.962    464.273
108.070    641.717    685.331    -43.614    464.119    680.553    464.119    468.882    464.119
108.170    718.000    682.837     35.163    463.967    677.984    463.967    468.810    463.967
108.270    653.000    680.974    -27.974    463.817    676.039    463.817    468.746    463.817
108.370    717.508    679.861     37.647    463.669    674.838    463.669    468.690    463.669
108.470    643.000    679.488    -36.488    463.523    674.370    463.523    468.642    463.523
108.570    682.000    679.710      2.290    463.379    674.490    463.379    468.604    463.379
108.670    669.864    680.266    -10.402    463.237    674.937    463.237    468.575    463.237
108.770    640.989    680.799    -39.810    463.097    675.353    463.097    468.555    463.097
108.870    618.000    680.891    -62.891    462.959    675.320    462.959    468.546    462.959
108.970    687.000    680.111      6.889    462.824    674.406    462.824    468.546    462.824
109.070    704.000    678.070     25.930    462.690    672.222    462.690    468.558    462.690
109.170    674.569    674.479      0.090    462.559    668.478    462.559    468.581    462.559
109.270    691.000    669.187     21.813    462.430    663.024    462.430    468.617    462.430
109.370    657.000    662.199     -5.199    462.304    655.862    462.304    468.665    462.304
109.470    668.000    653.633     14.367    462.179    647.110    462.179    468.726    462.179
109.570    647.000    643.805      3.195    462.058    637.085    462.058    468.802    462.058
109.670    656.000    633.028     22.972    461.938    626.097    461.938    468.892    461.938
109.770    637.000    621.644     15.356    461.821    614.488    461.821    468.999    461.821
109.870    618.480    610.002      8.477    461.706    602.607    461.706    469.122    461.706
109.970    625.000    598.435     26.565    461.594    590.784    461.594    469.264    461.594
110.070    597.000    587.236      9.764    461.485    579.312    461.485    469.426    461.485
110.170    638.000    576.656     61.344    461.378    568.440    461.378    469.608    461.378
110.270    573.000    566.895      6.105    461.274    558.367    461.274    469.814    461.274
110.370    610.000    558.100     51.900    461.172    549.237    461.172    470.045    461.172
110.470    600.000    550.368     49.632    461.073    541.144    461.073    470.305    461.073
110.570    560.012    543.746     16.266    460.977    534.134    460.977    470.596    460.977
110.670    546.000    538.240      7.760    460.883    528.206    460.883    470.923    460.883
110.770    499.000    533.821    -34.821    460.793    523.325    460.793    471.291    460.793
110.870    562.376    530.430     31.947    460.705    519.429    460.705    471.707    460.705
110.970    517.496    527.993    -10.498    460.620    516.433    460.620    472.180    460.620
111.070    512.512    526.426    -13.914    460.538    514.242    460.538    472.721    460.538
111.170    516.677    525.642     -8.965    460.459    512.755    460.459    473.343    460.459
111.270    484.933    525.557    -40.624    460.383    511.870    460.383    474.066    460.383
111.370    514.075    526.096    -12.021    460.310    511.490    460.310    474.912    460.310
111.470    541.000    527.200     13.800    460.240    511.526    460.240    475.909    460.240
111.570    556.978    528.824     28.154    460.173    511.898    460.173    477.092    460.173
111.670    565.000    530.940     34.060    460.109    512.537    460.109    478.506    460.109
111.770    553.000    533.544     19.456    460.049    513.384    460.049    480.202    460.049
111.870    500.225    536.651    -36.426    459.992    514.391    459.992    482.244    459.992
111.970    539.596    540.300     -0.703    459.938    515.523    459.938    484.706    459.938
112.070    509.298    544.551    -35.253    459.887    516.755    459.887    487.674    459.887
112.170    561.000    549.491     11.509    459.840    518.074    459.840    491.247    459.840
112.270    558.716    555.226      3.490    459.796    519.479    459.796    495.534    459.796
112.370    570.150    561.887      8.262    459.756    520.977    459.756    500.657    459.756
112.470    581.000    569.620     11.380    459.719    522.586    459.719    506.742    459.719
112.570    547.851    578.582    -30.731    459.685    524.331    459.685    513.926    459.685
112.670    612.000    588.943     23.057    459.655    526.246    459.655    522.341    459.655
112.770    559.000    600.875    -41.875    459.629    528.373    459.629    532.119    459.629
112.870    590.000    614.549    -24.549    459.606    530.765    459.606    543.378    459.606
112.970    637.000    630.134      6.866    459.587    533.490    459.587    556.219    459.587
113.070    693.000    647.788     45.212    459.572    536.633    459.572    570.714    459.572
113.170    703.000    667.664     35.336    459.561    540.308    459.561    586.903    459.561
113.270    702.214    689.904     12.310    459.553    544.662    459.553    604.779    459.553
113.370    725.914    714.648     11.266    459.549    549.893    459.549    624.287    459.549
113.470    764.000    742.039     21.961    459.550    556.260    459.550    645.309    459.550
113.570    790.000    772.240     17.760    459.554    564.105    459.554    667.666    459.554
113.670    777.113    805.445    -28.332    459.562    573.876    459.562    691.105    459.562
113.770    815.373    841.908    -26.536    459.574    586.150    459.574    715.302    459.574
113.870    964.000    881.965     82.035    459.590    601.664    459.590    739.855    459.590
113.970    909.451    926.064    -16.612    459.611    621.346    459.611    764.286    459.611
114.070    957.000    974.801    -17.801    459.635    646.344    459.635    788.041    459.635
114.170    973.000   1028.951    -55.951    459.664    678.053    459.664    810.500    459.664
114.270   1101.000   1089.509     11.491    459.697    718.140    459.697    830.990    459.697
114.370   1147.603   1157.724    -10.121    459.734    768.556    459.734    848.810    459.734
114.470   1256.000   1235.140     20.860    459.776    831.532    459.776    863.272    459.776
114.570   1315.640   1323.631     -7.991    459.822    909.558    459.822    873.759    459.822
114.670   1410.929   1425.416    -14.487    459.872   1005.340    459.872    879.785    459.872
114.770   1587.000   1543.047     43.953    459.927   1121.724    459.927    881.055    459.927
114.870   1676.000   1679.344     -3.344    459.987   1261.589    459.987    877.508    459.987
114.970   1902.000   1837.263     64.737    460.051   1427.716    460.051    869.324    460.051
115.070   2001.355   2019.710    -18.355    460.120   1622.611    460.120    856.898    460.120
115.170   2295.542   2229.288     66.255    460.193   1848.321    460.193    840.790    460.193
115.270   2535.000   2468.025     66.975    460.271   2106.215    460.271    821.661    460.271
115.370   2757.000   2737.099     19.901    460.354   2396.771    460.354    800.211    460.354
115.470   3094.000   3036.579     57.421    460.442   2719.367    460.442    777.132    460.442
115.570   3350.000   3365.204    -15.204    460.534   3072.096    460.534    753.074    460.534
115.670   3681.000   3720.224    -39.224    460.632   3451.621    460.632    728.625    460.632
115.770   3982.000   4097.295   -115.295    460.734   3853.082    460.734    704.303    460.734
115.870   4614.568   4490.448    124.121    460.842   4270.075    460.842    680.548    460.842
115.970   4783.000   4892.136   -109.136    460.954   4694.691    460.954    657.722    460.954
116.070   5440.021   5293.359    146.662    461.072   5117.644    461.072    636.114    461.072
116.170   5588.000   5683.870    -95.870    461.195   5528.472    461.195    615.941    461.195
116.270   5876.000   6052.473   -176.473    461.323   5915.833    461.323    597.350    461.323
116.370   6293.400   6387.418    -94.018    461.456   6267.891    461.456    580.426    461.456
116.470   6716.223   6676.919     39.304    461.595   6572.830    461.595    565.201    461.595
116.570   6901.000   6909.854     -8.854    461.739   6819.543    461.739    551.657    461.739
116.670   7031.897   7076.533    -44.636    461.888   6998.395    461.888    539.737    461.888
116.770   7101.830   7169.504    -67.674    462.043   7102.017    462.043    529.354    462.043
116.870   7287.923   7184.351    103.572    462.204   7126.100    462.204    520.396    462.204
116.970   7028.000   7120.180    -92.180    462.370   7069.867    462.370    512.739    462.370
117.070   6979.000   6979.707     -0.707    462.541   6936.164    462.541    506.249    462.541
117.170   6722.043   6768.922    -46.878    462.719   6731.110    462.719    500.792    462.719
117.270   6573.741   6496.428     77.313    462.902   6463.437    462.902    496.237    462.902
117.370   6214.000   6172.619     41.381    463.090   6143.664    463.090    492.457    463.090
117.470   5673.000   5808.866   -135.866    463.285   5783.273    463.285    489.338    463.285
117.570   5234.000   5416.805   -182.805    463.485   5394.006    463.485    486.776    463.485
117.670   4899.000   5007.770   -108.770    463.692   4987.290    463.692    484.679    463.692
117.770   4695.785   4592.353    103.432    463.904   4573.799    463.904    482.965    463.904
117.870   4301.000   4180.080    120.920    464.123   4163.130    464.123    481.567    464.123
117.970   3949.000   3779.178    169.822    464.347   3763.568    464.347    480.428    464.347
118.070   3507.000   3396.428    110.572    464.578   3381.945    464.578    479.499    464.578
118.170   3236.000   3037.102    198.898    464.815   3023.574    464.815    478.741    464.815
118.270   2909.000   2704.976    204.024    465.058   2692.267    465.058    478.122    465.058
118.370   2440.000   2402.417     37.583    465.308   2390.417    465.308    477.618    465.308
118.470   2190.000   2130.516     59.484    465.563   2119.137    465.563    477.208    465.563
118.570   1914.000   1889.264     24.736    465.826   1878.437    465.826    476.875    465.826
118.670   1635.000   1677.753    -42.753    466.094   1667.421    466.094    476.609    466.094
118.770   1378.000   1494.372   -116.372    466.370   1484.490    466.370    476.398    466.370
118.870   1362.565   1337.007     25.558    466.652   1327.536    466.652    476.236    466.652
118.970   1132.000   1203.223    -71.223    466.940   1194.133    466.940    476.117    466.940
119.070   1052.000   1090.427    -38.427    467.235   1081.691    467.235    476.036    467.235
119.170   1001.000    996.007      4.993    467.537    987.601    467.537    475.989    467.537
119.270    855.000    917.436    -62.436    467.846    909.339    467.846    475.973    467.846
119.370    835.000    852.356    -17.356    468.162    844.550    468.162    475.987    468.162
119.470    765.000    798.629    -33.629    468.485    791.095    468.485    476.029    468.485
119.570    747.634    754.362     -6.728    468.814    747.084    468.814    476.097    468.814
119.670    714.257    717.920     -3.663    469.151    710.882    469.151    476.191    469.151
119.770    723.990    687.915     36.075    469.495    681.100    469.495    476.309    469.495
119.870    660.751    663.188     -2.437    469.846    656.580    469.846    476.451    469.846
119.970    687.242    642.786     44.456    470.204    636.370    470.204    476.617    470.204
120.070    667.829    625.937     41.892    470.569    619.698    470.569    476.806    470.569
120.170    660.527    612.020     48.507    470.942    605.940    470.942    477.020    470.942
120.270    606.000    600.540      5.460    471.322    594.603    471.322    477.257    471.322
120.370    551.733    591.106    -39.372    471.710    585.296    471.710    477.520    471.710
120.470    572.000    583.410    -11.410    472.105    577.709    472.105    477.807    472.105
120.570    586.705    577.212      9.493    472.508    571.602    472.508    478.120    472.508
120.670    603.592    572.324     31.268    472.918    566.784    472.918    478.461    472.918
120.770    530.000    568.599    -38.599    473.337    563.109    473.337    478.829    473.337
120.870    593.962    565.921     28.041    473.762    560.460    473.762    479.227    473.762
120.970    552.461    564.201    -11.740    474.196    558.746    474.196    479.655    474.196
121.070    606.000    563.366     42.634    474.638    557.894    474.638    480.115    474.638
121.170    567.091    563.358      3.732    475.087    557.845    475.087    480.608    475.087
121.270    573.000    564.127      8.873    475.545    558.546    475.545    481.134    475.545
121.370    541.451    565.627    -24.177    476.010    559.952    476.010    481.695    476.010
121.470    552.018    567.812    -15.795    476.484    562.016    476.484    482.292    476.484
121.570    561.000    570.635     -9.635    476.966    564.690    476.966    482.924    476.966
121.670    598.000    574.044     23.956    477.456    567.924    477.456    483.592    477.456
121.770    554.000    577.980    -23.980    477.955    571.657    477.955    484.294    477.955
121.870    571.125    582.371    -11.247    478.462    575.823    478.462    485.029    478.462
121.970    566.000    587.145    -21.145    478.977    580.346    478.977    485.798    478.977
122.070    567.596    592.213    -24.617    479.501    585.140    479.501    486.598    479.501
122.170    600.000    597.474      2.526    480.034    590.110    480.034    487.426    480.034
122.270    627.318    602.822     24.496    480.575    595.150    480.575    488.278    480.575
122.370    589.000    608.139    -19.139    481.125    600.147    481.125    489.149    481.125
122.470    635.288    613.301     21.987    481.684    604.984    481.684    490.036    481.684
122.570    632.000    618.182     13.818    482.251    609.539    482.251    490.932    482.251
122.670    560.000    622.653    -62.653    482.827    613.690    482.827    491.832    482.827
122.770    631.000    626.593      4.407    483.413    617.322    483.413    492.727    483.413
122.870    647.000    629.888     17.112    484.007    620.330    484.007    493.612    484.007
122.970    634.733    632.445      2.287    484.611    622.627    484.611    494.477    484.611
123.070    686.000    634.192     51.808    485.223    624.149    485.223    495.315    485.223
123.170    661.164    635.084     26.079    485.845    624.861    485.845    496.118    485.845
123.270    617.000    635.110    -18.110    486.477    624.757    486.477    496.879    486.477
123.370    642.000    634.284      7.716    487.117    623.858    487.117    497.593    487.117
123.470    675.123    632.649     42.474    487.767    622.211    487.767    498.255    487.767
123.570    650.000    630.269     19.731    488.427    619.882    488.427    498.862    488.427
123.670    639.761    627.224     12.537    489.096    616.951    489.096    499.415    489.096
123.770    616.490    623.606     -7.116    489.775    613.508    489.775    499.917    489.775
123.870    608.000    619.511    -11.511    490.463    609.645    490.463    500.371    490.463
123.970    615.000    615.040     -0.040    491.161    605.456    491.161    500.784    491.161
124.070    580.000    610.290    -30.290    491.870    601.033    491.870    501.163    491.870
124.170    608.000    605.357      2.643    492.588    596.462    492.588    501.515    492.588
124.270    627.000    600.327     26.673    493.316    591.823    493.316    501.849    493.316
124.370    589.264    595.281     -6.017    494.054    587.188    494.054    502.173    494.054
124.470    559.000    590.285    -31.285    494.802    582.618    494.802    502.493    494.802
124.570    617.000    585.400     31.600    495.560    578.165    495.560    502.816    495.560
124.670    616.000    580.672     35.328    496.329    573.868    496.329    503.150    496.329
124.770    654.000    576.137     77.863    497.108    569.761    497.108    503.499    497.108
124.870    634.000    571.822     62.178    497.898    565.864    497.898    503.868    497.898
124.970    552.544    567.743    -15.199    498.698    562.191    498.698    504.261    498.698
