neutron_powder_diffraction_0177
R_wp: 3.909
Temperature (K): 1074.000
Counts: 83699.00
Wavelength (Ã…): 2.52098
COMMENTS
Test file for demonstrating the .xyy file format in Reel1.0
END OF HEADER
   tth       Y_obs     Y_calc      Y_res    Background    Phase_1_Nuc    Phase_1_Mag    Phase_2_Nuc    Phase_2_Mag
  9.970    597.822    573.856     23.966    573.147    573.832    573.147    573.171    573.147
 10.070    637.000    573.883     63.117    573.115    573.859    573.115    573.139    573.115
 10.170    590.000    573.915     16.085    573.078    573.890    573.078    573.102    573.078
 10.270    607.000    573.953     33.047    573.037    573.928    573.037    573.063    573.037
 10.370    602.597    574.000     28.597    572.992    573.973    572.992    573.018    572.992
 10.470    627.000    574.057     52.943    572.943    574.030    572.943    572.969    572.943
 10.570    543.916    574.130    -30.214    572.889    574.102    572.889    572.916    572.889
 10.670    568.000    574.223     -6.223    572.831    574.195    572.831    572.859    572.831
 10.770    591.000    574.343     16.657    572.769    574.314    572.769    572.797    572.769
 10.870    617.000    574.498     42.502    572.703    574.470    572.703    572.731    572.703
 10.970    568.000    574.704     -6.704    572.633    574.674    572.633    572.662    572.633
 11.070    620.816    574.985     45.832    572.559    574.946    572.559    572.597    572.559
 11.170    599.000    575.352     23.648    572.481    575.311    572.481    572.520    572.481
 11.270    541.000    575.853    -34.853    572.398    575.812    572.398    572.438    572.398
 11.370    546.210    576.562    -30.352    572.312    576.520    572.312    572.352    572.312
 11.470    566.000    577.636    -11.636    572.222    577.594    572.222    572.262    572.222
 11.570    653.000    579.516     73.484    572.129    579.472    572.129    572.169    572.129
 11.670    579.000    583.401     -4.401    572.031    583.355    572.031    572.071    572.031
 11.770    618.000    591.994     26.006    571.930    591.942    571.930    571.970    571.930
 11.870    570.956    609.492    -38.536    571.825    609.430    571.825    571.866    571.825
 11.970    740.000    638.979    101.021    571.716    638.895    571.716    571.762    571.716
 12.070    696.000    676.501     19.499    571.604    676.395    571.604    571.651    571.604
 12.170    751.988    705.805     46.182    571.489    705.682    571.489    571.535    571.489
 12.270    665.000    706.643    -41.643    571.369    706.519    571.369    571.416    571.369
 12.370    636.000    678.162    -42.162    571.247    678.054    571.247    571.294    571.247
 12.470    591.000    640.252    -49.252    571.120    640.165    571.120    571.168    571.120
 12.570    592.000    609.885    -17.885    570.991    609.815    570.991    571.038    570.991
 12.670    584.000    591.565     -7.565    570.858    591.505    570.858    570.906    570.858
 12.770    609.000    582.395     26.605    570.721    582.341    570.721    570.770    570.721
 12.870    601.000    578.124     22.876    570.582    578.071    570.582    570.630    570.582
 12.970    561.000    575.952    -14.952    570.439    575.900    570.439    570.488    570.439
 13.070    595.000    574.619     20.381    570.293    574.567    570.293    570.342    570.293
 13.170    571.919    573.664     -1.745    570.144    573.613    570.144    570.193    570.144
 13.270    559.000    572.922    -13.922    569.991    572.871    569.991    570.041    569.991
 13.370    569.441    572.319     -2.878    569.836    572.268    569.836    569.886    569.836
 13.470    571.000    571.813     -0.813    569.678    571.762    569.678    569.728    569.678
 13.570    532.000    571.376    -39.376    569.516    571.325    569.516    569.566    569.516
 13.670    568.012    570.990     -2.978    569.352    570.938    569.352    569.402    569.352
 13.770    572.000    570.642      1.358    569.184    570.590    569.184    569.235    569.184
 13.870    523.000    570.324    -47.324    569.014    570.271    569.014    569.066    569.014
 13.970    580.000    570.030      9.970    568.841    569.975    568.841    568.895    568.841
 14.070    548.000    569.750    -21.750    568.665    569.695    568.665    568.720    568.665
 14.170    573.000    569.486      3.514    568.486    569.430    568.486    568.542    568.486
 14.270    591.000    569.230     21.770    568.304    569.173    568.304    568.361    568.304
 14.370    541.000    568.980    -27.980    568.120    568.923    568.120    568.177    568.120
 14.470    611.531    568.737     42.794    567.933    568.679    567.933    567.991    567.933
 14.570    582.000    568.498     13.502    567.744    568.439    567.744    567.802    567.744
 14.670    528.497    568.262    -39.765    567.552    568.204    567.552    567.610    567.552
 14.770    550.000    568.029    -18.029    567.357    567.970    567.357    567.415    567.357
 14.870    590.517    567.798     22.719    567.160    567.739    567.160    567.218    567.160
 14.970    566.707    567.568     -0.861    566.960    567.509    566.960    567.019    566.960
 15.070    599.000    567.339     31.661    566.757    567.280    566.757    566.817    566.757
 15.170    551.000    567.111    -16.111    566.553    567.051    566.553    566.613    566.553
 15.270    576.612    566.883      9.730    566.346    566.823    566.346    566.406    566.346
 15.370    540.000    566.655    -26.655    566.136    566.594    566.136    566.197    566.136
 15.470    573.863    566.426      7.437    565.925    566.365    565.925    565.985    565.925
 15.570    559.000    566.197     -7.197    565.711    566.135    565.711    565.772    565.711
 15.670    585.487    565.967     19.520    565.494    565.905    565.494    565.556    565.494
 15.770    533.749    565.736    -31.987    565.276    565.674    565.276    565.338    565.276
 15.870    590.874    565.504     25.370    565.055    565.442    565.055    565.117    565.055
 15.970    600.089    565.271     34.818    564.832    565.209    564.832    564.895    564.832
 16.070    527.000    565.037    -38.037    564.607    564.974    564.607    564.670    564.607
 16.170    528.000    564.802    -36.802    564.380    564.739    564.380    564.443    564.380
 16.270    563.000    564.566     -1.566    564.151    564.502    564.151    564.215    564.151
 16.370    532.000    564.329    -32.329    563.920    564.264    563.920    563.984    563.920
 16.470    553.000    564.092    -11.092    563.687    564.026    563.687    563.753    563.687
 16.570    571.166    563.852      7.314    563.452    563.785    563.452    563.518    563.452
 16.670    528.000    563.613    -35.613    563.214    563.546    563.214    563.281    563.214
 16.770    568.087    563.371      4.716    562.976    563.303    562.976    563.043    562.976
 16.870    596.174    563.127     33.047    562.735    563.059    562.735    562.803    562.735
 16.970    522.414    562.881    -40.467    562.492    562.813    562.492    562.560    562.492
 17.070    552.000    562.635    -10.635    562.248    562.566    562.248    562.316    562.248
 17.170    575.000    562.386     12.614    562.002    562.317    562.002    562.071    562.002
 17.270    526.936    562.137    -35.201    561.754    562.068    561.754    561.823    561.754
 17.370    542.000    561.886    -19.886    561.504    561.816    561.504    561.574    561.504
 17.470    572.000    561.634     10.366    561.253    561.564    561.253    561.323    561.253
 17.570    595.877    561.381     34.496    561.000    561.310    561.000    561.071    561.000
 17.670    555.000    561.127     -6.127    560.745    561.055    560.745    560.817    560.745
 17.770    559.000    560.871     -1.871    560.489    560.799    560.489    560.561    560.489
 17.870    597.129    560.614     36.515    560.232    560.542    560.232    560.304    560.232
 17.970    614.000    560.357     53.643    559.972    560.284    559.972    560.045    559.972
 18.070    531.000    560.099    -29.099    559.712    560.025    559.712    559.785    559.712
 18.170    593.608    559.838     33.770    559.450    559.764    559.450    559.524    559.450
 18.270    573.000    559.576     13.424    559.186    559.502    559.186    559.261    559.186
 18.370    536.000    559.314    -23.314    558.921    559.239    558.921    558.996    558.921
 18.470    551.000    559.051     -8.051    558.655    558.975    558.655    558.731    558.655
 18.570    591.000    558.790     32.210    558.387    558.710    558.387    558.468    558.387
 18.670    541.743    558.526    -16.783    558.118    558.443    558.118    558.201    558.118
 18.770    574.743    558.259     16.485    557.848    558.176    557.848    557.931    557.848
 18.870    585.325    557.991     27.334    557.576    557.907    557.576    557.660    557.576
 18.970    549.000    557.722     -8.722    557.304    557.638    557.304    557.388    557.304
 19.070    513.777    557.454    -43.677    557.030    557.369    557.030    557.115    557.030
 19.170    560.495    557.197      3.298    556.755    557.111    556.755    556.841    556.755
 19.270    513.000    556.936    -43.936    556.478    556.850    556.478    556.565    556.478
 19.370    535.233    556.665    -21.433    556.201    556.578    556.201    556.288    556.201
 19.470    583.305    556.393     26.912    555.923    556.305    555.923    556.011    555.923
 19.570    540.000    556.119    -16.119    555.643    556.031    555.643    555.732    555.643
 19.670    515.170    555.845    -40.676    555.362    555.756    555.362    555.452    555.362
 19.770    560.026    555.571      4.456    555.081    555.480    555.081    555.171    555.081
 19.870    526.000    555.295    -29.295    554.798    555.204    554.798    554.889    554.798
 19.970    589.253    555.020     34.233    554.515    554.928    554.515    554.607    554.515
 20.070    579.000    554.744     24.256    554.230    554.651    554.230    554.323    554.230
 20.170    560.000    554.467      5.533    553.945    554.373    553.945    554.039    553.945
 20.270    546.506    554.190     -7.684    553.659    554.095    553.659    553.753    553.659
 20.370    544.842    553.913     -9.070    553.372    553.817    553.372    553.467    553.372
 20.470    575.000    553.635     21.365    553.084    553.539    553.084    553.180    553.084
 20.570    522.488    553.357    -30.869    552.795    553.260    552.795    552.892    552.795
 20.670    550.289    553.079     -2.791    552.506    552.981    552.506    552.604    552.506
 20.770    552.000    552.802     -0.802    552.215    552.703    552.215    552.314    552.215
 20.870    591.135    552.524     38.612    551.925    552.424    551.925    552.025    551.925
 20.970    540.000    552.246    -12.246    551.633    552.145    551.633    551.734    551.633
 21.070    537.000    551.969    -14.969    551.341    551.867    551.341    551.443    551.341
 21.170    566.667    551.691     14.976    551.048    551.588    551.048    551.151    551.048
 21.270    562.958    551.415     11.544    550.754    551.311    550.754    550.858    550.754
 21.370    533.000    551.147    -18.147    550.460    551.042    550.460    550.565    550.460
 21.470    590.858    550.958     39.900    550.165    550.851    550.165    550.272    550.165
 21.570    518.693    550.710    -32.016    549.870    550.602    549.870    549.978    549.870
 21.670    568.659    550.438     18.221    549.574    550.329    549.574    549.683    549.574
 21.770    520.000    550.167    -30.167    549.278    550.057    549.278    549.388    549.278
 21.870    541.000    549.900     -8.900    548.981    549.788    548.981    549.093    548.981
 21.970    552.000    549.633      2.367    548.684    549.520    548.684    548.797    548.684
 22.070    569.000    549.388     19.612    548.386    549.274    548.386    548.500    548.386
 22.170    536.157    549.156    -12.999    548.088    549.041    548.088    548.204    548.088
 22.270    552.000    548.944      3.056    547.789    548.827    547.789    547.907    547.789
 22.370    535.000    548.705    -13.705    547.491    548.586    547.491    547.610    547.491
 22.470    579.000    548.454     30.546    547.191    548.333    547.191    547.312    547.191
 22.570    520.000    548.205    -28.205    546.892    548.083    546.892    547.014    546.892
 22.670    572.000    547.965     24.035    546.592    547.839    546.592    546.718    546.592
 22.770    568.719    547.730     20.989    546.292    547.601    546.292    546.420    546.292
 22.870    537.000    547.502    -10.502    545.992    547.372    545.992    546.122    545.992
 22.970    510.732    547.284    -36.552    545.691    547.152    545.691    545.823    545.691
 23.070    571.155    547.078     24.077    545.390    546.945    545.390    545.525    545.390
 23.170    575.000    546.888     28.112    545.089    546.752    545.089    545.226    545.089
 23.270    510.000    546.716    -36.716    544.788    546.578    544.788    544.927    544.788
 23.370    565.000    546.569     18.431    544.487    546.429    544.487    544.628    544.487
 23.470    576.006    546.453     29.553    544.186    546.310    544.186    544.329    544.186
 23.570    537.538    546.378     -8.840    543.884    546.233    543.884    544.030    543.884
 23.670    563.000    546.357     16.643    543.583    546.210    543.583    543.731    543.583
 23.770    559.000    546.411     12.589    543.281    546.262    543.281    543.432    543.281
 23.870    504.902    546.574    -41.671    542.979    546.422    542.979    543.133    542.979
 23.970    557.123    546.905     10.218    542.678    546.750    542.678    542.834    542.678
 24.070    519.134    547.551    -28.418    542.376    547.394    542.376    542.535    542.376
 24.170    537.000    548.915    -11.915    542.074    548.756    542.074    542.237    542.074
 24.270    582.000    552.011     29.989    541.772    551.851    541.772    541.939    541.772
 24.370    537.170    558.833    -21.664    541.471    558.675    541.471    541.641    541.471
 24.470    567.696    571.963     -4.267    541.169    571.810    541.169    541.343    541.169
 24.570    580.000    592.462    -12.462    540.868    592.320    540.868    541.045    540.868
 24.670    649.000    616.232     32.768    540.567    616.103    540.567    540.748    540.567
 24.770    657.000    631.808     25.192    540.265    631.686    540.265    540.451    540.265
 24.870    645.000    628.015     16.985    539.964    627.886    539.964    540.155    539.964
 24.970    570.000    607.848    -37.848    539.664    607.700    539.664    539.859    539.664
 25.070    548.000    583.938    -35.938    539.363    583.768    539.363    539.564    539.363
 25.170    578.789    565.289     13.500    539.062    565.100    539.062    539.269    539.062
 25.270    530.000    553.935    -23.935    538.762    553.733    538.762    538.974    538.762
 25.370    523.000    548.041    -25.041    538.462    547.828    538.462    538.681    538.462
 25.470    583.000    545.136     37.864    538.163    544.915    538.163    538.388    538.163
 25.570    519.000    543.569    -24.569    537.863    543.340    537.863    538.095    537.863
 25.670    545.000    542.569      2.431    537.564    542.331    537.564    537.804    537.564
 25.770    551.000    541.845      9.155    537.265    541.598    537.265    537.513    537.265
 25.870    523.275    541.264    -17.989    536.967    541.008    536.967    537.224    536.967
 25.970    578.975    540.789     38.186    536.669    540.524    536.669    536.935    536.669
 26.070    548.515    540.421      8.093    536.371    540.145    536.371    536.648    536.371
 26.170    532.006    540.120     -8.114    536.074    539.833    536.074    536.361    536.074
 26.270    566.000    539.857     26.143    535.777    539.558    535.777    536.076    535.777
 26.370    553.000    539.639     13.361    535.480    539.326    535.480    535.793    535.480
 26.470    581.883    539.471     42.412    535.184    539.144    535.184    535.511    535.184
 26.570    563.000    539.357     23.643    534.888    539.014    534.888    535.231    534.888
 26.670    551.000    539.300     11.700    534.593    538.940    534.593    534.953    534.593
 26.770    556.000    539.310     16.690    534.298    538.931    534.298    534.677    534.298
 26.870    502.417    539.409    -36.992    534.004    539.009    534.004    534.404    534.004
 26.970    505.084    539.616    -34.531    533.711    539.193    533.711    534.133    533.711
 27.070    525.596    539.922    -14.326    533.417    539.473    533.417    533.866    533.417
 27.170    579.000    540.384     38.616    533.125    539.907    533.125    533.602    533.125
 27.270    565.843    541.060     24.783    532.833    540.550    532.833    533.342    532.833
 27.370    555.204    542.035     13.169    532.541    541.488    532.541    533.087    532.541
 27.470    606.000    543.465     62.535    532.250    542.877    532.250    532.837    532.250
 27.570    597.000    545.761     51.239    531.960    545.126    531.960    532.593    531.960
 27.670    547.000    550.333     -3.333    531.671    549.643    531.671    532.357    531.671
 27.770    551.000    561.919    -10.919    531.382    561.163    531.382    532.130    531.382
 27.870    605.000    592.325     12.675    531.093    591.488    531.093    531.913    531.093
 27.970    679.000    659.603     19.397    530.806    658.660    530.806    531.710    530.806
 28.070    810.000    771.353     38.647    530.519    770.280    530.519    531.522    530.519
 28.170    914.000    895.902     18.098    530.232    894.683    530.232    531.354    530.232
 28.270    978.419    957.328     21.091    529.947    955.970    529.947    531.210    529.947
 28.370    880.000    905.574    -25.574    529.662    904.078    529.662    531.099    529.662
 28.470    730.000    794.012    -64.012    529.378    792.336    529.378    531.029    529.378
 28.570    743.157    707.680     35.477    529.094    705.745    529.094    531.019    529.094
 28.670    689.000    690.342     -1.342    528.812    688.046    528.812    531.094    528.812
 28.770    739.000    736.987      2.013    528.530    734.192    528.530    531.306    528.530
 28.870    803.000    806.974     -3.974    528.249    803.467    528.249    531.744    528.249
 28.970    861.012    839.954     21.059    527.969    835.371    527.969    532.554    527.969
 29.070    780.000    800.289    -20.289    527.689    794.038    527.689    533.953    527.689
 29.170    692.000    719.177    -27.177    527.411    710.401    527.411    536.201    527.411
 29.270    648.553    644.769      3.784    527.133    632.387    527.133    539.523    527.133
 29.370    593.000    598.863     -5.863    526.856    581.759    526.856    543.963    526.856
 29.470    532.363    578.760    -46.397    526.580    556.230    526.580    549.110    526.580
 29.570    550.000    572.540    -22.540    526.305    545.139    526.305    553.705    526.305
 29.670    535.000    569.889    -34.889    526.031    540.227    526.031    555.691    526.031
 29.770    546.821    565.626    -18.805    525.757    537.599    525.757    553.783    525.757
 29.870    547.000    559.375    -12.375    525.485    535.897    525.485    548.961    525.485
 29.970    589.000    552.763     36.237    525.214    534.706    525.214    543.269    525.214
 30.070    505.048    547.070    -42.022    524.943    533.892    524.943    538.119    524.943
 30.170    580.000    542.806     37.194    524.673    533.429    524.673    534.048    524.673
 30.270    571.000    540.103     30.897    524.405    533.430    524.405    531.075    524.405
 30.370    561.000    539.198     21.802    524.137    534.337    524.137    528.994    524.137
 30.470    600.000    540.997     59.003    523.871    537.314    523.871    527.547    523.871
 30.570    569.000    547.414     21.586    523.605    544.500    523.605    526.507    523.605
 30.670    576.000    560.604     15.396    523.340    558.206    523.340    525.716    523.340
 30.770    578.942    580.354     -1.412    523.077    578.319    523.077    525.074    523.077
 30.870    607.000    600.799      6.201    522.814    599.035    522.814    524.527    522.814
 30.970    565.799    610.135    -44.336    522.552    608.589    522.552    524.043    522.552
 31.070    582.224    600.557    -18.333    522.292    599.200    522.292    523.603    522.292
 31.170    550.000    579.306    -29.306    522.032    578.111    522.032    523.198    522.032
 31.270    560.000    558.188      1.812    521.774    557.127    521.774    522.819    521.774
 31.370    510.218    543.314    -33.096    521.517    542.362    521.517    522.461    521.517
 31.470    511.290    535.008    -23.718    521.261    534.145    521.261    522.119    521.261
 31.570    531.000    531.005     -0.005    521.005    530.216    521.005    521.792    521.005
 31.670    561.000    529.116     31.884    520.751    528.390    520.751    521.476    520.751
 31.770    563.039    528.107     34.932    520.499    527.435    520.499    521.169    520.499
 31.870    564.000    527.474     36.526    520.247    526.849    520.247    520.871    520.247
 31.970    502.071    527.039    -24.969    519.996    526.455    519.996    520.580    519.996
 32.070    568.335    526.742     41.593    519.747    526.193    519.747    520.295    519.747
 32.170    491.512    526.562    -35.050    519.498    526.045    519.498    520.015    519.498
 32.270    501.447    526.492    -25.045    519.251    526.003    519.251    519.740    519.251
 32.370    582.000    526.533     55.467    519.005    526.068    519.005    519.469    519.005
 32.470    531.862    526.693      5.169    518.761    526.250    518.761    519.202    518.761
 32.570    507.000    526.990    -19.990    518.517    526.567    518.517    518.939    518.517
 32.670    531.000    527.449      3.551    518.275    527.044    518.275    518.679    518.275
 32.770    514.000    528.111    -14.111    518.033    527.722    518.033    518.422    518.033
 32.870    549.000    529.032     19.968    517.794    528.657    517.794    518.167    517.794
 32.970    542.456    530.297     12.159    517.555    529.935    517.555    517.915    517.555
 33.070    532.000    532.037     -0.037    517.317    531.687    517.317    517.666    517.317
 33.170    533.000    534.492     -1.492    517.081    534.152    517.081    517.419    517.081
 33.270    552.000    538.218     13.782    516.846    537.887    516.846    517.174    516.846
 33.370    575.000    544.719     30.281    516.612    544.396    516.612    516.932    516.612
 33.470    556.000    557.903     -1.903    516.380    557.585    516.380    516.691    516.380
 33.570    610.000    586.119     23.881    516.149    585.803    516.149    516.452    516.149
 33.670    654.000    642.381     11.619    515.919    642.062    515.919    516.216    515.919
 33.770    694.000    738.242    -44.242    515.690    737.914    515.690    515.981    515.690
 33.870    873.000    869.602      3.398    515.463    869.261    515.463    515.748    515.463
 33.970   1089.000   1000.862     88.138    515.237   1000.516    515.237    515.517    515.237
 34.070   1016.345   1065.072    -48.727    515.012   1064.739    515.012    515.287    515.012
 34.170   1039.000   1016.882     22.118    514.788   1016.581    514.788    515.059    514.788
 34.270    886.000    891.815     -5.815    514.566    891.543    514.566    514.833    514.566
 34.370    715.380    757.221    -41.841    514.346    756.964    514.346    514.609    514.346
 34.470    673.000    654.281     18.719    514.126    654.029    514.126    514.386    514.126
 34.570    580.000    591.443    -11.443    513.908    591.192    513.908    514.165    513.908
 34.670    561.000    558.815      2.185    513.691    558.563    513.691    513.945    513.691
 34.770    567.000    543.150     23.850    513.476    542.899    513.476    513.727    513.476
 34.870    564.000    535.287     28.713    513.262    535.037    513.262    513.511    513.262
 34.970    556.421    530.694     25.727    513.049    530.446    513.049    513.296    513.049
 35.070    555.000    527.556     27.444    512.838    527.311    512.838    513.083    512.838
 35.170    545.824    525.202     20.622    512.628    524.957    512.628    512.871    512.628
 35.270    490.000    523.349    -33.349    512.419    523.106    512.419    512.661    512.419
 35.370    540.040    521.850     18.190    512.212    521.609    512.212    512.453    512.212
 35.470    533.000    520.614     12.386    512.006    520.374    512.006    512.246    512.006
 35.570    524.000    519.575      4.425    511.802    519.336    511.802    512.040    511.802
 35.670    489.174    518.689    -29.515    511.599    518.451    511.599    511.837    511.599
 35.770    520.445    517.924      2.521    511.397    517.686    511.397    511.634    511.397
 35.870    517.127    517.254     -0.127    511.197    517.018    511.197    511.434    511.197
 35.970    538.000    516.664     21.336    510.998    516.428    510.998    511.234    510.998
 36.070    474.947    516.138    -41.191    510.801    515.902    510.801    511.037    510.801
 36.170    521.000    515.668      5.332    510.605    515.432    510.605    510.840    510.605
 36.270    514.000    515.245     -1.245    510.411    515.010    510.411    510.646    510.411
 36.370    551.009    514.864     36.145    510.218    514.629    510.218    510.453    510.218
 36.470    517.000    514.523      2.477    510.026    514.288    510.026    510.261    510.026
 36.570    522.000    514.220      7.780    509.836    513.985    509.836    510.071    509.836
 36.670    512.000    513.957     -1.957    509.647    513.721    509.647    509.883    509.647
 36.770    481.000    513.741    -32.741    509.460    513.505    509.460    509.696    509.460
 36.870    540.367    513.593     26.774    509.274    513.357    509.274    509.510    509.274
 36.970    501.469    513.570    -12.101    509.090    513.333    509.090    509.327    509.090
 37.070    493.000    513.799    -20.799    508.907    513.562    508.907    509.144    508.907
 37.170    532.707    514.511     18.196    508.725    514.274    508.725    508.964    508.725
 37.270    481.000    516.013    -35.013    508.545    515.775    508.545    508.784    508.545
 37.370    545.569    518.538     27.031    508.367    518.299    508.367    508.607    508.367
 37.470    526.000    521.964      4.036    508.190    521.725    508.190    508.431    508.190
 37.570    528.000    525.516      2.484    508.015    525.277    508.015    508.256    508.015
 37.670    568.381    527.745     40.636    507.840    527.506    507.840    508.083    507.840
 37.770    524.000    527.451     -3.451    507.668    527.213    507.668    507.912    507.668
 37.870    540.921    524.932     15.988    507.497    524.696    507.497    507.742    507.497
 37.970    488.000    521.489    -33.489    507.327    521.253    507.327    507.574    507.327
 38.070    548.512    518.149     30.363    507.159    517.912    507.159    507.407    507.159
 38.170    485.292    515.351    -30.059    506.993    515.112    506.993    507.242    506.993
 38.270    536.000    513.237     22.763    506.828    512.993    506.828    507.078    506.828
 38.370    502.695    511.766     -9.071    506.664    511.518    506.664    506.916    506.664
 38.470    513.848    510.791      3.057    506.502    510.541    506.502    506.756    506.502
 38.570    493.571    510.154    -16.582    506.341    509.900    506.341    506.597    506.341
 38.670    514.000    509.721      4.279    506.182    509.465    506.182    506.439    506.182
 38.770    491.507    509.405    -17.898    506.025    509.146    506.025    506.284    506.025
 38.870    544.000    509.151     34.849    505.869    508.890    505.869    506.130    505.869
 38.970    502.000    508.931     -6.931    505.714    508.669    505.714    505.977    505.714
 39.070    498.000    508.734    -10.734    505.561    508.469    505.561    505.826    505.561
 39.170    527.000    508.553     18.447    505.410    508.286    505.410    505.677    505.410
 39.270    489.644    508.385    -18.741    505.260    508.116    505.260    505.529    505.260
 39.370    472.914    508.228    -35.314    505.111    507.957    505.111    505.383    505.111
 39.470    513.159    508.081      5.078    504.964    507.807    504.964    505.239    504.964
 39.570    509.000    507.943      1.057    504.819    507.666    504.819    505.096    504.819
 39.670    506.000    507.813     -1.813    504.675    507.534    504.675    504.954    504.675
 39.770    487.000    507.692    -20.692    504.532    507.410    504.532    504.815    504.532
 39.870    494.000    507.578    -13.578    504.392    507.294    504.392    504.676    504.392
 39.970    495.000    507.473    -12.473    504.252    507.186    504.252    504.540    504.252
 40.070    482.000    507.376    -25.376    504.114    507.086    504.114    504.405    504.114
 40.170    523.000    507.288     15.712    503.978    506.995    503.978    504.272    503.978
 40.270    505.000    507.210     -2.210    503.843    506.913    503.843    504.140    503.843
 40.370    486.000    507.142    -21.142    503.710    506.842    503.710    504.010    503.710
 40.470    495.000    507.085    -12.085    503.579    506.782    503.579    503.882    503.579
 40.570    492.000    507.041    -15.041    503.448    506.734    503.448    503.755    503.448
 40.670    474.751    507.011    -32.260    503.320    506.701    503.320    503.630    503.320
 40.770    548.963    506.998     41.965    503.193    506.684    503.193    503.507    503.193
 40.870    551.000    507.005     43.995    503.067    506.687    503.067    503.385    503.067
 40.970    492.000    507.035    -15.035    502.943    506.713    502.943    503.265    502.943
 41.070    516.000    507.093      8.907    502.821    506.767    502.821    503.147    502.821
 41.170    483.000    507.185    -24.185    502.700    506.856    502.700    503.030    502.700
 41.270    479.000    507.320    -28.320    502.580    506.987    502.580    502.915    502.580
 41.370    545.878    507.510     38.368    502.462    507.173    502.462    502.801    502.462
 41.470    499.000    507.772     -8.772    502.346    507.430    502.346    502.689    502.346
 41.570    527.000    508.131     18.869    502.231    507.784    502.231    502.579    502.231
 41.670    491.000    508.636    -17.636    502.118    508.284    502.118    502.471    502.118
 41.770    476.000    509.395    -33.395    502.006    509.038    502.006    502.364    502.006
 41.870    474.000    510.664    -36.664    501.896    510.303    501.896    502.259    501.896
 41.970    497.000    513.020    -16.020    501.787    512.655    501.787    502.156    501.787
 42.070    471.000    517.585    -46.585    501.680    517.216    501.680    502.054    501.680
 42.170    523.000    526.100     -3.100    501.574    525.729    501.574    501.954    501.574
 42.270    548.000    540.498      7.502    501.470    540.128    501.470    501.856    501.470
 42.370    620.000    561.707     58.293    501.367    561.340    501.367    501.760    501.367
 42.470    588.000    587.908      0.092    501.266    587.548    501.266    501.665    501.266
 42.570    593.976    613.047    -19.071    501.166    612.694    501.166    501.572    501.166
 42.670    653.886    627.382     26.504    501.068    627.033    501.068    501.481    501.068
 42.770    596.000    623.513    -27.513    500.971    623.157    500.971    501.392    500.971
 42.870    565.422    603.687    -38.265    500.876    603.316    500.876    501.304    500.876
 42.970    539.000    577.154    -38.154    500.783    576.762    500.783    501.219    500.783
 43.070    570.302    552.415     17.887    500.691    552.001    500.691    501.135    500.691
 43.170    547.742    533.753     13.989    500.600    533.319    500.600    501.053    500.600
 43.270    476.000    521.721    -45.721    500.511    521.271    500.511    500.972    500.511
 43.370    511.000    514.837     -3.837    500.424    514.373    500.424    500.894    500.424
 43.470    495.000    511.166    -16.166    500.337    510.690    500.337    500.818    500.337
 43.570    505.000    509.205     -4.205    500.253    508.718    500.253    500.743    500.253
 43.670    488.000    508.068    -20.068    500.170    507.570    500.170    500.671    500.170
 43.770    447.000    507.323    -60.323    500.088    506.814    500.088    500.600    500.088
 43.870    484.000    506.785    -22.785    500.008    506.263    500.008    500.531    500.008
 43.970    535.359    506.372     28.986    499.930    505.839    499.930    500.465    499.930
 44.070    493.000    506.048    -13.048    499.853    505.502    499.853    500.400    499.853
 44.170    530.240    505.791     24.449    499.777    505.231    499.777    500.338    499.777
 44.270    536.000    505.586     30.414    499.703    505.013    499.703    500.277    499.703
 44.370    480.515    505.424    -24.910    499.630    504.836    499.630    500.219    499.630
 44.470    502.000    505.297     -3.297    499.559    504.693    499.559    500.163    499.559
 44.570    538.000    505.200     32.800    499.489    504.580    499.489    500.110    499.489
 44.670    470.354    505.128    -34.774    499.421    504.491    499.421    500.059    499.421
 44.770    523.000    505.079     17.921    499.355    504.424    499.355    500.010    499.355
 44.870    469.000    505.051    -36.051    499.289    504.377    499.289    499.963    499.289
 44.970    527.000    505.041     21.959    499.225    504.348    499.225    499.920    499.225
 45.070    495.571    505.050     -9.480    499.163    504.335    499.163    499.878    499.163
 45.170    526.000    505.077     20.923    499.102    504.339    499.102    499.840    499.102
 45.270    507.000    505.120      1.880    499.043    504.359    499.043    499.804    499.043
 45.370    466.603    505.181    -38.578    498.985    504.394    498.985    499.772    498.985
 45.470    513.000    505.260      7.740    498.928    504.445    498.928    499.743    498.928
 45.570    504.000    505.356     -1.356    498.873    504.513    498.873    499.716    498.873
 45.670    498.000    505.473     -7.473    498.820    504.598    498.820    499.694    498.820
 45.770    543.071    505.610     37.462    498.767    504.702    498.767    499.675    498.767
 45.870    509.909    505.769      4.140    498.717    504.826    498.717    499.660    498.717
 45.970    525.000    505.954     19.046    498.667    504.972    498.667    499.649    498.667
 46.070    536.000    506.166     29.834    498.619    505.142    498.619    499.642    498.619
 46.170    507.000    506.410      0.590    498.573    505.341    498.573    499.640    498.573
 46.270    473.000    506.690    -33.690    498.528    505.573    498.528    499.644    498.528
 46.370    521.118    507.012     14.106    498.484    505.842    498.484    499.653    498.484
 46.470    503.000    507.385     -4.385    498.442    506.157    498.442    499.668    498.442
 46.570    517.000    507.818      9.182    498.401    506.528    498.401    499.690    498.401
 46.670    487.000    508.330    -21.330    498.361    506.971    498.361    499.719    498.361
 46.770    519.000    508.950     10.050    498.323    507.514    498.323    499.757    498.323
 46.870    475.420    509.737    -34.316    498.286    508.218    498.286    499.804    498.286
 46.970    544.000    510.825     33.175    498.251    509.213    498.251    499.861    498.251
 47.070    540.000    512.495     27.505    498.217    510.778    498.217    499.930    498.217
 47.170    549.000    515.272     33.728    498.185    513.439    498.185    500.012    498.185
 47.270    525.739    519.980      5.759    498.154    518.015    498.154    500.110    498.154
 47.370    504.000    527.623    -23.623    498.124    525.507    498.124    500.225    498.124
 47.470    506.555    538.966    -32.411    498.095    536.676    498.095    500.362    498.095
 47.570    566.000    553.849     12.151    498.068    551.361    498.068    500.522    498.068
 47.670    567.000    570.471     -3.471    498.042    567.756    498.042    500.712    498.042
 47.770    555.098    584.977    -29.879    498.018    582.004    498.018    500.936    498.018
 47.870    558.795    592.258    -33.462    497.995    588.993    497.995    501.202    497.995
 47.970    598.043    589.326      8.717    497.973    585.726    497.973    501.519    497.973
 48.070    551.912    578.218    -26.306    497.953    574.226    497.953    501.902    497.953
 48.170    556.009    563.913     -7.903    497.934    559.445    497.934    502.370    497.934
 48.270    543.053    550.739     -7.687    497.916    545.680    497.916    502.955    497.916
 48.370    522.000    541.079    -19.079    497.900    535.255    497.900    503.710    497.900
 48.470    579.083    535.575     43.508    497.885    528.722    497.885    504.729    497.885
 48.570    498.197    533.841    -35.643    497.871    525.539    497.871    506.166    497.871
 48.670    558.557    535.206     23.350    497.858    524.789    497.858    508.271    497.858
 48.770    508.000    539.238    -31.238    497.847    525.675    497.847    511.406    497.847
 48.870    530.994    545.924    -14.930    497.837    527.720    497.837    516.037    497.837
 48.970    589.976    555.616     34.360    497.829    530.767    497.829    522.673    497.829
 49.070    535.467    568.880    -33.413    497.821    534.975    497.821    531.722    497.821
 49.170    547.000    586.458    -39.458    497.815    540.986    497.815    543.282    497.815
 49.270    580.000    609.628    -29.628    497.810    550.577    497.810    556.853    497.810
 49.370    660.000    641.396     18.604    497.807    568.210    497.807    570.979    497.807
 49.470    698.705    688.958      9.747    497.804    603.778    497.804    582.960    497.804
 49.570    770.000    767.294      2.706    497.803    675.737    497.803    589.316    497.803
 49.670    910.915    901.481      9.434    497.804    811.505    497.804    587.704    497.804
 49.770   1089.020   1121.138    -32.118    497.805   1040.032    497.805    578.793    497.805
 49.870   1455.000   1441.536     13.464    497.808   1373.540    497.808    565.647    497.808
 49.970   1852.941   1837.533     15.408    497.812   1783.634    497.812    551.541    497.812
 50.070   2201.000   2227.144    -26.144    497.817   2186.156    497.817    538.671    497.817
 50.170   2429.359   2484.512    -55.153    497.823   2454.211    497.823    528.086    497.823
 50.270   2478.000   2500.417    -22.417    497.831   2478.310    497.831    520.019    497.831
 50.370   2199.000   2263.993    -64.993    497.839   2247.777    497.839    514.228    497.839
 50.470   1828.024   1873.476    -45.452    497.849   1861.283    497.849    510.245    497.849
 50.570   1402.232   1459.402    -57.170    497.860   1449.876    497.860    507.570    497.860
 50.670   1026.000   1115.324    -89.324    497.873   1107.565    497.873    505.772    497.873
 50.770    844.249    877.992    -33.743    497.886    871.439    497.886    504.536    497.886
 50.870    765.925    739.034     26.891    497.901    733.350    497.901    503.650    497.901
 50.970    661.000    668.427     -7.427    497.916    663.403    497.916    502.988    497.916
 51.070    635.000    634.691      0.309    497.933    630.191    497.933    502.473    497.933
 51.170    648.334    615.397     32.937    497.951    611.322    497.951    502.061    497.951
 51.270    590.000    599.391     -9.391    497.971    595.664    497.971    501.726    497.971
 51.370    591.563    583.801      7.762    497.991    580.364    497.991    501.451    497.991
 51.470    531.077    569.373    -38.296    498.012    566.179    498.012    501.224    498.012
 51.570    528.840    557.338    -28.498    498.035    554.349    498.035    501.036    498.035
 51.670    589.139    548.314     40.825    498.059    545.500    498.059    500.881    498.059
 51.770    568.000    542.219     25.781    498.084    539.556    498.084    500.753    498.084
 51.870    526.000    538.543    -12.543    498.109    536.008    498.109    500.648    498.109
 51.970    556.840    536.663     20.177    498.136    534.239    498.136    500.564    498.136
 52.070    541.586    536.078      5.508    498.165    533.748    498.165    500.497    498.165
 52.170    560.957    536.503     24.453    498.194    534.254    498.194    500.445    498.194
 52.270    552.144    537.894     14.249    498.224    535.713    498.224    500.406    498.224
 52.370    541.191    540.495      0.696    498.255    538.372    498.255    500.380    498.255
 52.470    526.000    545.010    -19.010    498.288    542.935    498.288    500.364    498.288
 52.570    587.324    552.954     34.370    498.321    550.918    498.321    500.357    498.321
 52.670    576.000    567.151      8.849    498.355    565.146    498.355    500.360    498.355
 52.770    599.000    592.164      6.836    498.391    590.183    498.391    500.370    498.391
 52.870    651.075    634.121     16.954    498.427    632.156    498.427    500.388    498.427
 52.970    711.000    699.334     11.666    498.465    697.379    498.465    500.414    498.465
 53.070    740.000    791.395    -51.395    498.503    789.445    498.503    500.445    498.503
 53.170    957.000    907.280     49.720    498.543    905.332    498.543    500.484    498.543
 53.270   1047.988   1033.701     14.286    498.583   1031.753    498.583    500.528    498.583
 53.370   1132.640   1145.444    -12.804    498.625   1143.494    498.625    500.578    498.625
 53.470   1200.000   1209.855     -9.855    498.667   1207.904    498.667    500.634    498.667
 53.570   1204.000   1203.096      0.904    498.711   1201.138    498.711    500.696    498.711
 53.670   1096.000   1128.162    -32.162    498.755   1126.189    498.755    500.763    498.755
 53.770   1018.678   1012.120      6.558    498.800   1010.120    498.800    500.836    498.800
 53.870    874.917    886.866    -11.949    498.847    884.829    498.847    500.915    498.847
 53.970    789.000    775.425     13.575    498.894    773.345    498.894    500.999    498.894
 54.070    697.000    688.984      8.016    498.942    686.854    498.942    501.090    498.942
 54.170    636.000    629.063      6.937    498.991    626.880    498.991    501.186    498.991
 54.270    597.675    591.317      6.358    499.041    589.077    499.041    501.289    499.041
 54.370    590.829    569.322     21.507    499.092    567.021    499.092    501.398    499.092
 54.470    553.585    557.194     -3.609    499.144    554.827    499.144    501.514    499.144
 54.570    584.000    550.710     33.290    499.197    548.272    499.197    501.637    499.197
 54.670    573.000    547.316     25.684    499.250    544.800    499.250    501.768    499.250
 54.770    568.775    545.664     23.111    499.305    543.063    499.305    501.907    499.305
 54.870    568.000    545.112     22.888    499.360    542.420    499.360    502.054    499.360
 54.970    531.189    545.384    -14.195    499.416    542.591    499.416    502.211    499.416
 55.070    562.000    546.374     15.626    499.473    543.471    499.473    502.377    499.473
 55.170    571.000    548.064     22.936    499.531    545.042    499.531    502.555    499.531
 55.270    595.000    550.493     44.507    499.590    547.340    499.590    502.744    499.590
 55.370    517.202    553.751    -36.549    499.649    550.456    499.649    502.946    499.649
 55.470    546.000    558.012    -12.012    499.710    554.561    499.710    503.162    499.710
 55.570    556.000    563.607     -7.607    499.771    559.985    499.771    503.393    499.771
 55.670    529.129    571.226    -42.097    499.833    567.418    499.833    503.642    499.833
 55.770    550.051    582.360    -32.309    499.895    578.345    499.895    503.909    499.895
 55.870    553.543    600.136    -46.594    499.959    595.894    499.959    504.198    499.959
 55.970    643.979    630.636     13.344    500.023    626.142    500.023    504.511    500.023
 56.070    718.036    684.382     33.654    500.088    679.607    500.088    504.851    500.088
 56.170    726.729    777.057    -50.328    500.154    771.968    500.154    505.221    500.154
 56.270    931.129    927.782      3.347    500.221    922.339    500.221    505.626    500.221
 56.370   1128.000   1153.407    -25.407    500.288   1147.572    500.288    506.070    500.288
 56.470   1363.000   1458.837    -95.837    500.356   1452.570    500.356    506.560    500.356
 56.570   1768.000   1826.046    -58.046    500.425   1819.308    500.425    507.102    500.425
 56.670   2198.174   2206.123     -7.949    500.494   2198.879    500.494    507.706    500.494
 56.770   2503.000   2519.510    -16.510    500.564   2511.717    500.564    508.380    500.564
 56.870   2650.000   2675.258    -25.258    500.635   2666.859    500.635    509.139    500.635
 56.970   2615.397   2618.782     -3.384    500.707   2609.680    500.707    509.998    500.707
 57.070   2386.000   2372.361     13.639    500.779   2362.407    500.779    510.976    500.779
 57.170   2053.419   2016.452     36.967    500.852   2005.456    500.852    512.102    500.852
 57.270   1618.774   1639.219    -20.445    500.926   1626.962    500.926    513.410    500.926
 57.370   1346.000   1304.690     41.310    501.000   1290.913    501.000    514.958    501.000
 57.470   1091.000   1044.996     46.004    501.075   1029.372    501.075    516.830    501.075
 57.570    859.000    865.135     -6.135    501.150    847.201    501.150    519.170    501.150
 57.670    779.000    753.196     25.804    501.226    732.259    501.226    522.215    501.226
 57.770    704.492    691.286     13.206    501.303    666.272    501.303    526.345    501.303
 57.870    674.000    663.488     10.512    501.380    632.730    501.380    532.151    501.380
 57.970    721.000    659.599     61.401    501.458    620.580    501.458    540.479    501.458
 58.070    629.597    675.475    -45.879    501.537    624.570    501.537    552.433    501.537
 58.170    759.994    711.478     48.517    501.616    643.776    501.616    569.299    501.616
 58.270    761.000    770.124     -9.124    501.695    679.462    501.695    592.328    501.695
 58.370    839.298    853.557    -14.259    501.776    732.886    501.776    622.407    501.776
 58.470    962.077    961.181      0.896    501.857    803.375    501.857    659.614    501.857
 58.570   1090.000   1087.728      2.272    501.938    886.904    501.938    702.710    501.938
 58.670   1212.000   1222.368    -10.368    502.020    975.804    502.020    748.535    502.020
 58.770   1361.000   1349.731     11.269    502.102   1060.387    502.102    791.409    502.102
 58.870   1456.000   1453.017      2.983    502.185   1132.014    502.185    823.169    502.185
 58.970   1519.000   1516.869      2.131    502.268   1183.680    502.268    835.458    502.268
 59.070   1641.000   1530.423    110.577    502.352   1208.359    502.352    824.439    502.352
 59.170   1567.000   1492.507     74.493    502.437   1201.338    502.437    793.643    502.437
 59.270   1474.000   1414.970     59.030    502.521   1166.220    502.521    751.312    502.521
 59.370   1269.000   1318.739    -49.739    502.607   1115.699    502.607    705.675    502.607
 59.470   1302.000   1225.587     76.413    502.693   1065.740    502.693    662.541    502.693
 59.570   1191.000   1153.757     37.243    502.779   1031.320    502.779    625.182    502.779
 59.670   1167.000   1118.291     48.709    502.866   1026.156    502.866    594.921    502.866
 59.770   1228.000   1130.179     97.821    502.953   1061.265    502.953    571.734    502.953
 59.870   1213.000   1191.944     21.056    503.040   1140.028    503.040    554.767    503.040
 59.970   1224.000   1293.292    -69.292    503.128   1253.401    503.128    542.776    503.128
 60.070   1482.000   1409.902     72.098    503.216   1378.361    503.216    534.475    503.216
 60.170   1574.000   1506.160     67.840    503.305   1480.423    503.305    528.748    503.305
 60.270   1550.000   1544.499      5.501    503.394   1522.885    503.394    524.737    503.394
 60.370   1468.508   1503.117    -34.609    503.484   1484.541    503.484    521.842    503.484
 60.470   1327.431   1389.256    -61.825    503.574   1373.002    503.574    519.675    503.574
 60.570   1247.000   1232.153     14.847    503.664   1217.727    503.664    517.996    503.664
 60.670   1050.000   1065.413    -15.413    503.754   1052.453    503.754    516.665    503.754
 60.770    898.000    915.110    -17.110    503.845    903.331    503.845    515.603    503.845
 60.870    826.000    795.849     30.151    503.937    785.016    503.937    514.762    503.937
 60.970    692.000    711.661    -19.661    504.028    701.566    504.028    514.119    504.028
 61.070    660.009    659.567      0.443    504.120    650.019    504.120    513.661    504.120
 61.170    636.000    634.033      1.967    504.212    624.854    504.212    513.380    504.212
 61.270    636.000    630.688      5.312    504.305    621.706    504.305    513.266    504.305
 61.370    633.000    648.360    -15.360    504.397    639.420    504.397    513.305    504.397
 61.470    657.861    689.234    -31.373    504.490    680.207    504.490    513.467    504.490
 61.570    711.216    757.289    -46.073    504.584    748.092    504.584    513.707    504.584
 61.670    820.000    855.382    -35.382    504.677    846.004    504.677    513.951    504.677
 61.770   1006.061    981.665     24.397    504.771    972.195    504.771    514.105    504.771
 61.870   1153.000   1126.431     26.569    504.865   1117.060    504.865    514.072    504.865
 61.970   1301.000   1270.512     30.488    504.959   1261.492    504.959    513.798    504.959
 62.070   1387.000   1386.482      0.518    505.054   1378.048    505.054    513.306    505.054
 62.170   1425.000   1445.149    -20.149    505.148   1437.465    505.148    512.676    505.148
 62.270   1426.773   1428.790     -2.017    505.243   1421.921    505.243    511.997    505.243
 62.370   1341.000   1342.253     -1.253    505.338   1336.180    505.338    511.342    505.338
 62.470   1190.314   1209.480    -19.165    505.433   1204.128    505.433    510.755    505.433
 62.570   1003.000   1060.009    -57.009    505.529   1055.274    505.529    510.259    505.529
 62.670    884.000    918.313    -34.313    505.624    914.087    505.624    509.860    505.624
 62.770    785.520    799.622    -14.102    505.720    795.803    505.720    509.552    505.720
 62.870    670.877    709.875    -38.998    505.815    706.379    505.815    509.324    505.815
 62.970    590.000    647.872    -57.872    505.911    644.631    505.911    509.160    505.911
 63.070    580.000    608.379    -28.379    506.007    605.343    506.007    509.046    506.007
 63.170    608.312    585.034     23.278    506.104    582.166    506.104    508.970    506.104
 63.270    563.209    572.296     -9.087    506.200    569.571    506.200    508.922    506.200
 63.370    635.000    566.310     68.690    506.296    563.708    506.296    508.893    506.296
 63.470    583.000    565.011     17.989    506.393    562.516    506.393    508.880    506.393
 63.570    597.000    567.898     29.102    506.489    565.499    506.489    508.879    506.489
 63.670    593.000    575.751     17.249    506.586    573.436    506.586    508.887    506.586
 63.770    587.000    590.345     -3.345    506.682    588.103    506.682    508.903    506.682
 63.870    598.191    614.070    -15.878    506.779    611.891    506.779    508.926    506.779
 63.970    629.682    649.314    -19.632    506.875    647.189    506.875    508.955    506.875
 64.070    796.000    697.564     98.436    506.972    695.484    506.972    508.990    506.972
 64.170    806.638    758.325     48.313    507.069    756.281    507.069    509.029    507.069
 64.270    855.000    828.110     26.890    507.166    826.099    507.166    509.073    507.166
 64.370    836.000    899.794    -63.794    507.262    897.814    507.262    509.121    507.262
 64.470   1001.000    962.842     38.158    507.359    960.897    507.359    509.172    507.359
 64.570   1052.000   1005.530     46.470    507.456   1003.628    507.456    509.227    507.456
 64.670   1031.000   1019.518     11.482    507.552   1017.669    507.552    509.285    507.552
 64.770   1047.985   1003.591     44.394    507.649   1001.801    507.649    509.346    507.649
 64.870    947.000    963.176    -16.176    507.745    961.447    507.745    509.410    507.745
 64.970    933.615    907.412     26.203    507.842    905.740    507.842    509.476    507.842
 65.070    813.000    846.158    -33.158    507.938    844.538    507.938    509.545    507.938
 65.170    774.000    787.387    -13.387    508.035    785.810    508.035    509.616    508.035
 65.270    758.226    735.716     22.510    508.131    734.175    508.131    509.689    508.131
 65.370    724.697    692.636     32.061    508.227    691.121    508.227    509.764    508.227
 65.470    651.000    657.799     -6.799    508.323    656.304    508.323    509.841    508.323
 65.570    643.000    630.248     12.752    508.419    628.768    508.419    509.920    508.419
 65.670    625.000    608.940     16.060    508.515    607.470    508.515    510.001    508.515
 65.770    586.190    592.842     -6.652    508.610    591.381    508.610    510.083    508.610
 65.870    563.305    581.015    -17.710    508.706    579.561    508.706    510.167    508.706
 65.970    584.467    572.665     11.802    508.801    571.219    508.801    510.251    508.801
 66.070    563.000    567.151     -4.151    508.896    565.711    508.896    510.337    508.896
 66.170    557.000    563.953     -6.953    508.991    562.518    508.991    510.426    508.991
 66.270    538.000    562.654    -24.654    509.086    561.224    509.086    510.516    509.086
 66.370    554.000    562.948     -8.948    509.180    561.521    509.180    510.607    509.180
 66.470    528.381    564.673    -36.293    509.275    563.248    509.275    510.700    509.275
 66.570    532.000    567.880    -35.880    509.369    566.456    509.369    510.794    509.369
 66.670    578.044    572.950      5.094    509.463    571.524    509.463    510.890    509.463
 66.770    572.000    580.806     -8.806    509.557    579.377    509.557    510.987    509.557
 66.870    592.000    593.256     -1.256    509.650    591.821    509.650    511.085    509.650
 66.970    637.000    613.452     23.548    509.743    612.009    509.743    511.185    509.743
 67.070    649.000    646.391      2.609    509.836    644.936    509.836    511.287    509.836
 67.170    692.751    699.190     -6.440    509.929    697.721    509.929    511.389    509.929
 67.270    789.000    780.791      8.209    510.021    779.305    510.021    511.494    510.021
 67.370    884.000    900.659    -16.659    510.114    899.155    510.114    511.600    510.114
 67.470   1154.000   1066.283     87.717    510.205   1064.761    510.205    511.708    510.205
 67.570   1243.000   1279.705    -36.705    510.297   1278.170    510.297    511.818    510.297
 67.670   1518.784   1533.866    -15.081    510.388   1532.326    510.388    511.930    510.388
 67.770   1823.000   1809.820     13.180    510.479   1808.289    510.479    512.043    510.479
 67.870   2079.000   2075.860      3.140    510.570   2074.351    510.570    512.159    510.570
 67.970   2351.337   2289.966     61.371    510.660   2288.492    510.660    512.277    510.660
 68.070   2483.140   2408.625     74.515    510.750   2407.191    510.750    512.397    510.750
 68.170   2441.190   2403.313     37.876    510.839   2401.909    510.839    512.520    510.839
 68.270   2243.000   2275.486    -32.486    510.928   2274.084    510.928    512.646    510.928
 68.370   2011.317   2055.668    -44.350    511.017   2054.232    511.017    512.775    511.017
 68.470   1792.000   1787.727      4.273    511.105   1786.226    511.105    512.907    511.105
 68.570   1559.000   1512.993     46.007    511.193   1511.404    511.193    513.042    511.193
 68.670   1238.000   1262.122    -24.122    511.281   1260.432    511.281    513.181    511.281
 68.770   1084.281   1052.989     31.292    511.368   1051.191    511.368    513.325    511.368
 68.870    923.797    891.761     32.036    511.455    889.858    511.455    513.473    511.455
 68.970    777.000    775.799      1.201    511.541    773.792    511.541    513.626    511.541
 69.070    685.000    697.329    -12.329    511.627    695.223    511.627    513.785    511.627
 69.170    623.343    646.857    -23.514    511.712    644.653    511.712    513.950    511.712
 69.270    568.429    615.560    -47.131    511.797    613.258    511.797    514.121    511.797
 69.370    636.000    596.489     39.511    511.882    594.085    511.882    514.301    511.882
 69.470    584.798    584.798      0.000    511.966    582.285    511.966    514.488    511.966
 69.570    547.000    577.426    -30.426    512.049    574.797    512.049    514.685    512.049
 69.670    575.000    572.596      2.404    512.132    569.840    512.132    514.893    512.132
 69.770    603.000    569.340     33.660    512.215    566.446    512.215    515.113    512.215
 69.870    649.000    567.157     81.843    512.297    564.111    512.297    515.346    512.297
 69.970    549.969    565.800    -15.830    512.378    562.585    512.378    515.594    512.378
 70.070    528.390    565.152    -36.762    512.459    561.752    512.459    515.860    512.459
 70.170    579.161    565.179     13.982    512.539    561.572    512.539    516.146    512.539
 70.270    553.000    565.912    -12.912    512.619    562.076    512.619    516.454    512.619
 70.370    567.000    567.471     -0.471    512.699    563.379    512.699    516.789    512.699
 70.470    557.000    570.118    -13.118    512.777    565.738    512.777    517.154    512.777
 70.570    515.000    574.361    -59.361    512.856    569.657    512.856    517.554    512.856
 70.670    598.110    581.122     16.988    512.933    576.050    512.933    517.997    512.933
 70.770    582.000    591.959     -9.959    513.010    586.466    513.010    518.490    513.010
 70.870    610.000    609.323      0.677    513.087    603.345    513.087    519.045    513.087
 70.970    628.000    636.766     -8.766    513.162    630.220    513.162    519.680    513.162
 71.070    655.000    678.950    -23.950    513.237    671.725    513.237    520.419    513.237
 71.170    709.376    741.283    -31.907    513.312    733.227    513.312    521.306    513.312
 71.270    812.000    829.036    -17.036    513.386    819.925    513.386    522.409    513.386
 71.370    928.388    945.909    -17.521    513.459    935.416    513.459    523.836    513.459
 71.470   1091.099   1092.244     -1.145    513.532   1079.872    513.532    525.755    513.532
 71.570   1237.000   1263.270    -26.270    513.604   1248.278    513.604    528.417    513.604
 71.670   1419.000   1447.881    -28.881    513.675   1429.180    513.675    532.173    513.675
 71.770   1597.000   1628.313    -31.313    513.746   1604.362    513.746    537.481    513.746
 71.870   1845.000   1781.336     63.664    513.816   1750.046    513.816    544.893    513.816
 71.970   1924.830   1882.225     42.605    513.885   1840.919    513.885    554.999    513.885
 72.070   1877.000   1912.533    -35.533    513.954   1857.993    513.954    568.337    513.954
 72.170   1875.000   1868.618      6.382    514.022   1797.266    514.022    585.257    514.022
 72.270   1803.000   1763.724     39.276    514.089   1671.970    514.089    605.765    514.089
 72.370   1613.417   1621.190     -7.773    514.155   1505.935    514.155    629.362    514.155
 72.470   1510.000   1465.135     44.865    514.221   1324.433    514.221    654.898    514.221
 72.570   1355.000   1314.561     40.439    514.286   1148.377    514.286    680.458    514.286
 72.670   1209.000   1181.136     27.864    514.350    992.147    514.350    703.334    514.350
 72.770   1032.000   1069.247    -37.247    514.414    863.399    514.414    720.259    514.414
 72.870    922.000    977.684    -55.684    514.476    763.981    514.476    728.177    514.476
 72.970    793.000    902.458   -109.458    514.538    691.541    514.538    725.454    514.538
 73.070    786.887    839.477    -52.590    514.600    641.371    514.600    712.704    514.600
 73.170    731.000    785.838    -54.838    514.660    608.049    514.660    692.447    514.660
 73.270    676.000    739.823    -63.823    514.720    586.579    514.720    667.962    514.720
 73.370    666.000    700.471    -34.471    514.779    572.978    514.779    642.271    514.779
 73.470    603.000    667.251    -64.251    514.837    564.410    514.837    617.677    514.837
 73.570    628.064    639.840    -11.776    514.894    559.043    514.894    595.693    514.894
 73.670    565.000    617.961    -52.961    514.950    555.795    514.950    577.120    514.950
 73.770    622.717    601.249     21.468    515.006    554.081    515.006    562.180    515.006
 73.870    604.000    589.196     14.804    515.060    553.595    515.060    550.672    515.060
 73.970    613.923    581.154     32.769    515.114    554.152    515.114    542.131    515.114
 74.070    579.576    576.374      3.201    515.167    555.580    515.167    535.981    515.167
 74.170    558.385    574.052    -15.667    515.220    557.655    515.220    531.642    515.220
 74.270    620.000    573.364     46.636    515.271    560.057    515.271    528.609    515.271
 74.370    570.000    573.490     -3.490    515.321    562.371    515.321    526.477    515.321
 74.470    550.638    573.648    -23.010    515.371    564.110    515.371    524.950    515.371
 74.570    578.676    573.168      5.508    515.420    564.811    515.420    523.821    515.420
 74.670    606.000    571.624     34.376    515.468    564.182    515.468    522.955    515.468
 74.770    578.093    568.945      9.148    515.514    562.236    515.514    522.266    515.514
 74.870    575.784    565.393     10.391    515.560    559.292    515.560    521.700    515.560
 74.970    629.000    561.435     67.565    515.606    555.848    515.606    521.225    515.606
 75.070    554.403    557.596     -3.193    515.650    552.453    515.650    520.819    515.650
 75.170    554.000    554.391     -0.391    515.693    549.635    515.693    520.469    515.693
 75.270    562.000    552.308      9.692    515.735    547.893    515.735    520.164    515.735
 75.370    568.000    551.829     16.171    515.777    547.716    515.777    519.897    515.777
 75.470    597.949    553.450     44.498    515.817    549.607    515.817    519.662    515.817
 75.570    558.000    557.691      0.309    515.857    554.088    515.857    519.455    515.857
 75.670    567.970    565.063      2.908    515.895    561.675    515.895    519.272    515.895
 75.770    567.000    575.987     -8.987    515.933    572.792    515.933    519.110    515.933
 75.870    619.000    590.663     28.337    515.969    587.642    515.969    518.965    515.969
 75.970    567.362    608.910    -41.548    516.005    606.044    516.005    518.837    516.005
 76.070    671.326    630.007     41.319    516.040    627.282    516.040    518.722    516.040
 76.170    667.000    652.599     14.401    516.073    650.002    516.073    518.619    516.073
 76.270    660.000    674.664    -14.664    516.106    672.184    516.106    518.527    516.106
 76.370    672.000    693.612    -21.612    516.138    691.241    516.138    518.444    516.138
 76.470    753.807    706.611     47.196    516.168    704.344    516.168    518.369    516.168
 76.570    697.000    711.289    -14.289    516.198    709.122    516.198    518.302    516.198
 76.670    695.000    706.656    -11.656    516.226    704.584    516.226    518.241    516.226
 76.770    662.000    693.583    -31.583    516.254    691.602    516.254    518.186    516.254
 76.870    702.316    674.368     27.948    516.281    672.473    516.281    518.135    516.281
 76.970    637.000    651.822    -14.822    516.306    650.007    516.306    518.090    516.306
 77.070    627.792    628.539     -0.747    516.331    626.798    516.331    518.048    516.331
 77.170    643.323    606.551     36.772    516.354    604.879    516.354    518.010    516.354
 77.270    564.000    587.213    -23.213    516.376    585.603    516.376    517.975    516.376
 77.370    567.000    571.217     -4.217    516.398    569.664    516.398    517.943    516.398
 77.470    554.000    558.693     -4.693    516.418    557.192    516.418    517.914    516.418
 77.570    561.000    549.360     11.640    516.437    547.908    516.437    517.886    516.437
 77.670    554.888    542.703     12.185    516.455    541.295    516.455    517.861    516.455
 77.770    547.752    538.123      9.629    516.472    536.757    516.472    517.837    516.472
 77.870    575.192    535.058     40.135    516.488    533.729    516.488    517.815    516.488
 77.970    513.000    533.035    -20.035    516.503    531.743    516.503    517.794    516.503
 78.070    538.000    531.702      6.298    516.517    530.443    516.517    517.774    516.517
 78.170    538.000    530.811      7.189    516.529    529.583    516.529    517.756    516.529
 78.270    531.000    530.202      0.798    516.541    529.003    516.541    517.738    516.541
 78.370    515.000    529.761    -14.761    516.551    528.591    516.551    517.721    516.551
 78.470    533.000    529.451      3.549    516.560    528.306    516.560    517.705    516.560
 78.570    526.000    529.277     -3.277    516.568    528.156    516.568    517.689    516.568
 78.670    531.000    529.213      1.787    516.576    528.114    516.576    517.674    516.576
 78.770    526.000    529.263     -3.263    516.581    528.184    516.581    517.660    516.581
 78.870    535.000    529.444      5.556    516.586    528.382    516.586    517.647    516.586
 78.970    500.000    529.779    -29.779    516.590    528.732    516.590    517.635    516.590
 79.070    545.547    530.294     15.253    516.592    529.260    516.592    517.624    516.592
 79.170    574.000    531.017     42.983    516.594    529.993    516.594    517.616    516.594
 79.270    594.000    531.979     62.021    516.594    530.961    516.594    517.610    516.594
 79.370    529.000    533.205     -4.205    516.593    532.187    516.593    517.607    516.593
 79.470    525.925    534.722     -8.798    516.590    533.700    516.590    517.609    516.590
 79.570    511.000    536.568    -25.568    516.587    535.534    516.587    517.617    516.587
 79.670    511.000    538.798    -27.798    516.583    537.745    516.583    517.630    516.583
 79.770    543.000    541.508      1.492    516.577    540.429    516.577    517.651    516.577
 79.870    565.000    544.853     20.147    516.570    543.738    516.570    517.680    516.570
 79.970    576.000    549.068     26.932    516.562    547.910    516.562    517.715    516.562
 80.070    537.977    554.495    -16.519    516.553    553.287    516.553    517.757    516.553
 80.170    548.000    561.577    -13.577    516.542    560.313    516.542    517.803    516.542
 80.270    529.000    570.804    -41.804    516.531    569.484    516.531    517.850    516.531
 80.370    604.000    582.624     21.376    516.518    581.249    516.518    517.895    516.518
 80.470    588.924    597.316     -8.392    516.504    595.895    516.504    517.930    516.504
 80.570    656.000    614.885     41.115    516.488    613.433    516.488    517.950    516.488
 80.670    641.000    634.974      6.026    516.472    633.511    516.472    517.950    516.472
 80.770    618.000    656.819    -38.819    516.454    655.369    516.454    517.924    516.454
 80.870    690.762    679.275     11.486    516.435    677.863    516.435    517.874    516.435
 80.970    713.048    700.939     12.109    516.415    699.585    516.415    517.802    516.415
 81.070    690.000    720.352    -30.352    516.394    719.071    516.394    517.715    516.394
 81.170    701.000    736.200    -35.200    516.371    735.000    516.371    517.618    516.371
 81.270    758.000    747.433     10.567    516.347    746.315    516.347    517.518    516.347
 81.370    752.000    753.352     -1.352    516.322    752.313    516.322    517.420    516.322
 81.470    773.000    753.684     19.316    516.296    752.719    516.296    517.325    516.296
 81.570    740.374    748.603     -8.229    516.268    747.702    516.268    517.236    516.268
 81.670    697.000    738.659    -41.659    516.240    737.813    516.240    517.154    516.240
 81.770    771.845    724.742     47.102    516.210    723.942    516.210    517.078    516.210
 81.870    716.000    708.043      7.957    516.178    707.279    516.178    517.010    516.178
 81.970    750.000    689.882     60.118    516.146    689.146    516.146    516.947    516.146
 82.070    709.730    671.448     38.282    516.112    670.733    516.112    516.889    516.112
 82.170    625.526    653.585    -28.058    516.077    652.885    516.077    516.835    516.077
 82.270    629.090    636.745     -7.655    516.041    636.056    516.041    516.784    516.041
 82.370    631.000    621.110      9.890    516.003    620.428    516.003    516.735    516.003
 82.470    584.000    606.760    -22.760    515.964    606.083    515.964    516.686    515.964
 82.570    587.000    593.807     -6.807    515.924    593.131    515.924    516.638    515.924
 82.670    605.000    582.416     22.584    515.883    581.740    515.883    516.591    515.883
 82.770    564.746    572.769     -8.024    515.840    572.092    515.840    516.543    515.840
 82.870    569.000    565.027      3.973    515.796    564.348    515.796    516.494    515.796
 82.970    579.000    559.309     19.691    515.751    558.626    515.751    516.445    515.751
 83.070    533.107    555.682    -22.575    515.704    554.995    515.704    516.395    515.704
 83.170    560.000    554.138      5.862    515.656    553.446    515.656    516.345    515.656
 83.270    557.566    554.578      2.988    515.607    553.881    515.607    516.293    515.607
 83.370    578.000    556.791     21.209    515.557    556.088    515.557    516.241    515.557
 83.470    532.265    560.441    -28.176    515.505    559.733    515.505    516.188    515.505
 83.570    509.000    565.070    -56.070    515.452    564.357    515.452    516.134    515.452
 83.670    546.000    570.107    -24.107    515.398    569.389    515.398    516.078    515.398
 83.770    556.000    574.897    -18.897    515.343    574.175    515.343    516.022    515.343
 83.870    592.000    578.755     13.245    515.286    578.030    515.286    515.965    515.286
 83.970    630.000    581.050     48.950    515.228    580.324    515.228    515.907    515.228
 84.070    554.000    581.339    -27.339    515.169    580.614    515.169    515.847    515.169
 84.170    612.000    579.489     32.511    515.108    578.767    515.108    515.787    515.108
 84.270    514.000    575.709    -61.709    515.046    574.990    515.046    515.726    515.046
 84.370    573.213    570.465      2.749    514.983    569.750    514.983    515.664    514.983
 84.470    528.659    564.334    -35.674    514.918    563.623    514.918    515.600    514.918
 84.570    557.000    557.881     -0.881    514.852    557.174    514.852    515.536    514.852
 84.670    539.396    551.592    -12.196    514.785    550.888    514.785    515.470    514.785
 84.770    528.097    545.829    -17.732    514.717    545.127    514.717    515.404    514.717
 84.870    516.000    540.829    -24.829    514.647    540.128    514.647    515.336    514.647
 84.970    523.000    536.702    -13.702    514.576    536.001    514.576    515.268    514.576
 85.070    533.000    533.457     -0.457    514.504    532.756    514.504    515.198    514.504
 85.170    558.860    531.030     27.830    514.430    530.327    514.430    515.127    514.430
 85.270    513.934    529.313    -15.378    514.355    528.607    514.355    515.055    514.355
 85.370    560.255    528.188     32.067    514.279    527.479    514.279    514.983    514.279
 85.470    497.419    527.547    -30.127    514.201    526.835    514.201    514.909    514.201
 85.570    548.858    527.307     21.551    514.122    526.591    514.122    514.834    514.122
 85.670    555.324    527.424     27.900    514.042    526.703    514.042    514.758    514.042
 85.770    561.000    527.894     33.106    513.961    527.167    513.961    514.681    513.961
 85.870    518.205    528.754    -10.549    513.878    528.021    513.878    514.603    513.878
 85.970    525.000    530.087     -5.087    513.794    529.348    513.794    514.524    513.794
 86.070    527.000    532.018     -5.018    513.709    531.270    513.709    514.444    513.709
 86.170    505.126    534.703    -29.577    513.622    533.946    513.622    514.363    513.622
 86.270    515.532    538.321    -22.789    513.534    537.553    513.534    514.281    513.534
 86.370    560.125    543.052     17.072    513.445    542.272    513.445    514.198    513.445
 86.470    566.000    549.052     16.948    513.355    548.257    513.355    514.115    513.355
 86.570    531.000    556.414    -25.414    513.263    555.603    513.263    514.030    513.263
 86.670    532.961    565.131    -32.171    513.170    564.303    513.170    513.944    513.170
 86.770    553.000    575.061    -22.061    513.075    574.214    513.075    513.857    513.075
 86.870    609.000    585.893     23.107    512.980    585.025    512.980    513.770    512.980
 86.970    550.574    597.133    -46.559    512.883    596.245    512.883    513.682    512.883
 87.070    625.000    608.110     16.890    512.785    607.202    512.785    513.592    512.785
 87.170    639.000    618.002     20.998    512.685    617.077    512.685    513.502    512.685
 87.270    669.000    625.915     43.085    512.584    624.974    512.584    513.411    512.584
 87.370    634.000    631.018      2.982    512.482    630.065    512.482    513.320    512.482
 87.470    644.000    632.738     11.262    512.379    631.777    512.379    513.227    512.379
 87.570    593.978    630.931    -36.953    512.274    629.965    512.274    513.134    512.274
 87.670    631.000    625.923      5.077    512.168    624.955    512.168    513.040    512.168
 87.770    611.000    618.410     -7.410    512.061    617.442    512.061    512.945    512.061
 87.870    598.388    609.278    -10.891    511.953    608.310    511.953    512.850    511.953
 87.970    572.399    599.490    -27.091    511.843    598.521    511.843    512.754    511.843
 88.070    580.000    589.944     -9.944    511.732    588.974    511.732    512.658    511.732
 88.170    562.017    581.411    -19.393    511.620    580.437    511.620    512.561    511.620
 88.270    566.719    574.502     -7.783    511.507    573.523    511.507    512.464    511.507
 88.370    606.017    569.649     36.369    511.392    568.662    511.392    512.366    511.392
 88.470    604.491    567.083     37.409    511.276    566.087    511.276    512.268    511.276
 88.570    547.411    566.844    -19.432    511.159    565.838    511.159    512.170    511.159
 88.670    561.000    568.788     -7.788    511.040    567.770    511.040    512.071    511.040
 88.770    579.000    572.603      6.397    510.920    571.572    510.920    511.973    510.920
 88.870    603.529    577.829     25.701    510.799    576.783    510.799    511.874    510.799
 88.970    585.000    583.879      1.121    510.677    582.819    510.677    511.774    510.677
 89.070    550.028    590.076    -40.048    510.554    588.998    510.554    511.676    510.554
 89.170    637.000    595.682     41.318    510.429    594.585    510.429    511.577    510.429
 89.270    601.000    599.968      1.032    510.303    598.849    510.303    511.480    510.303
 89.370    614.000    602.308     11.692    510.176    601.163    510.176    511.383    510.176
 89.470    622.163    602.299     19.864    510.048    601.124    510.048    511.286    510.048
 89.570    573.000    599.855    -26.855    509.918    598.647    509.918    511.191    509.918
 89.670    517.000    595.219    -78.219    509.787    593.972    509.787    511.097    509.787
 89.770    582.000    588.870     -6.870    509.655    587.580    509.655    511.004    509.655
 89.870    585.000    581.404      3.596    509.522    580.066    509.522    510.912    509.522
 89.970    542.000    573.419    -31.419    509.388    572.030    509.388    510.823    509.388
 90.070    507.000    565.448    -58.448    509.252    564.003    509.252    510.736    509.252
 90.170    596.234    557.918     38.316    509.116    556.414    509.116    510.651    509.116
 90.270    534.000    551.138    -17.138    508.978    549.572    508.978    510.570    508.978
 90.370    508.000    545.297    -37.297    508.839    543.663    508.839    510.492    508.839
 90.470    523.000    540.473    -17.473    508.698    538.767    508.698    510.419    508.698
 90.570    588.000    536.657     51.343    508.557    534.873    508.557    510.352    508.557
 90.670    525.928    533.774     -7.846    508.414    531.905    508.414    510.291    508.414
 90.770    533.000    531.715      1.285    508.270    529.752    508.270    510.239    508.270
 90.870    500.911    530.359    -29.448    508.126    528.289    508.126    510.198    508.126
 90.970    526.596    529.594     -2.997    507.979    527.403    507.979    510.172    507.979
 91.070    537.000    529.332      7.668    507.832    527.000    507.832    510.165    507.832
 91.170    515.339    529.523    -14.183    507.684    527.021    507.684    510.184    507.684
 91.270    576.000    530.154     45.846    507.534    527.448    507.534    510.238    507.534
 91.370    544.000    531.261     12.739    507.384    528.304    507.384    510.338    507.384
 91.470    528.155    532.921     -4.766    507.232    529.651    507.232    510.498    507.232
 91.570    493.947    535.229    -41.282    507.079    531.565    507.079    510.737    507.079
 91.670    550.000    538.426     11.574    506.925    534.265    506.925    511.078    506.925
 91.770    511.954    542.718    -30.764    506.770    537.932    506.770    511.546    506.770
 91.870    523.000    548.338    -25.338    506.614    542.769    506.614    512.170    506.614
 91.970    550.000    555.539     -5.539    506.457    548.998    506.457    512.980    506.457
 92.070    525.000    564.567    -39.567    506.299    556.835    506.299    514.009    506.299
 92.170    608.309    575.630     32.679    506.139    566.459    506.139    515.283    506.139
 92.270    588.000    588.869     -0.869    505.979    577.988    505.979    516.826    505.979
 92.370    637.837    604.322     33.515    505.817    591.449    505.817    518.650    505.817
 92.470    650.000    621.901     28.099    505.655    606.752    505.655    520.756    505.655
 92.570    626.000    641.363    -15.363    505.491    623.674    505.491    523.127    505.491
 92.670    681.000    662.303     18.697    505.326    641.843    505.326    525.724    505.326
 92.770    710.000    684.141     25.859    505.161    660.745    505.161    528.489    505.161
 92.870    725.000    706.151     18.849    504.994    679.739    504.994    531.333    504.994
 92.970    763.000    727.509     35.491    504.826    698.117    504.826    534.141    504.826
 93.070    742.000    747.394     -5.394    504.658    715.204    504.658    536.767    504.658
 93.170    816.847    765.139     51.709    504.488    730.504    504.488    539.042    504.488
 93.270    821.000    780.338     40.662    504.317    743.792    504.317    540.782    504.317
 93.370    827.000    792.879     34.121    504.145    755.124    504.145    541.820    504.145
 93.470    808.000    802.914      5.086    503.973    764.774    503.973    542.035    503.973
 93.570    849.000    810.780     38.220    503.799    773.115    503.799    541.389    503.799
 93.670    781.093    816.930    -35.837    503.625    780.546    503.625    539.936    503.625
 93.770    835.000    821.906     13.094    503.449    787.484    503.449    537.801    503.449
 93.870    852.000    826.355     25.645    503.273    794.401    503.273    535.159    503.273
 93.970    862.000    830.994     31.006    503.095    801.834    503.095    532.190    503.095
 94.070    852.837    836.521     16.316    502.917    810.312    502.917    529.063    502.917
 94.170    852.836    843.439      9.397    502.738    820.198    502.738    525.918    502.738
 94.270    902.000    851.892     50.108    502.557    831.522    502.557    522.868    502.557
 94.370    823.403    861.548    -38.145    502.376    843.873    502.376    519.996    502.376
 94.470    908.218    871.583     36.636    502.194    856.366    502.194    517.359    502.194
 94.570    947.000    880.738     66.262    502.012    867.712    502.012    514.991    502.012
 94.670    913.000    887.469     25.531    501.828    876.349    501.828    512.906    501.828
 94.770    966.000    890.163     75.837    501.643    880.669    501.643    511.103    501.643
 94.870    924.272    887.449     36.823    501.458    879.315    501.458    509.567    501.458
 94.970    947.000    878.521     68.479    501.272    871.502    501.272    508.275    501.272
 95.070    919.000    863.353     55.647    501.085    857.233    501.085    507.197    501.085
 95.170    871.000    842.723     28.277    500.897    837.315    500.897    506.304    500.897
 95.270    794.000    818.037    -24.037    500.708    813.186    500.708    505.564    500.708
 95.370    808.495    791.075     17.420    500.519    786.653    500.519    504.950    500.519
 95.470    782.000    763.763     18.237    500.329    759.667    500.329    504.435    500.329
 95.570    779.357    738.006     41.351    500.138    734.156    500.138    503.998    500.138
 95.670    767.000    715.590     51.410    499.946    711.922    499.946    503.623    499.946
 95.770    696.000    698.112     -2.112    499.753    694.576    499.753    503.294    499.753
 95.870    687.691    687.010      0.681    499.560    683.568    499.560    503.001    499.560
 95.970    676.000    683.479     -7.479    499.366    680.101    499.366    502.736    499.366
 96.070    680.000    688.512     -8.512    499.171    685.174    499.171    502.493    499.171
 96.170    666.000    702.902    -36.902    498.976    699.584    498.976    502.267    498.976
 96.270    713.000    727.225    -14.225    498.780    723.912    498.780    502.056    498.780
 96.370    758.000    761.800     -3.800    498.583    758.477    498.583    501.858    498.583
 96.470    831.000    806.611     24.389    498.386    803.266    498.386    501.671    498.386
 96.570    881.000    861.223     19.777    498.188    857.845    498.188    501.493    498.188
 96.670    898.000    924.672    -26.672    497.989    921.252    497.989    501.326    497.989
 96.770   1019.741    995.387     24.355    497.789    991.916    497.789    501.168    497.789
 96.870   1130.798   1071.122     59.677    497.589   1067.592    497.589    501.019    497.589
 96.970   1103.732   1148.946    -45.213    497.389   1145.351    497.389    500.879    497.389
 97.070   1238.089   1225.279     12.810    497.188   1221.612    497.188    500.749    497.188
 97.170   1328.000   1296.010     31.990    496.986   1292.265    496.986    500.629    496.986
 97.270   1412.990   1356.741     56.249    496.783   1352.913    496.783    500.519    496.783
 97.370   1434.000   1403.204     30.796    496.581   1399.285    496.581    500.420    496.581
 97.470   1491.000   1431.859     59.141    496.377   1427.842    496.377    500.333    496.377
 97.570   1369.621   1440.537    -70.917    496.173   1436.411    496.173    500.259    496.173
 97.670   1430.000   1428.886      1.114    495.969   1424.638    495.969    500.199    495.969
 97.770   1447.177   1398.389     48.788    495.764   1394.001    495.764    500.154    495.764
 97.870   1314.000   1351.966    -37.966    495.558   1347.417    495.558    500.128    495.558
 97.970   1324.248   1293.407     30.841    495.352   1288.672    495.352    500.123    495.352
 98.070   1179.000   1226.849    -47.849    495.146   1221.898    495.146    500.143    495.146
 98.170   1110.892   1156.392    -45.499    494.939   1151.190    494.939    500.193    494.939
 98.270   1143.459   1085.861     57.598    494.732   1080.366    494.732    500.281    494.732
 98.370    955.000   1018.660    -63.660    494.524   1012.821    494.524    500.417    494.524
 98.470    962.574    957.700      4.874    494.316    951.451    494.316    500.613    494.316
 98.570    892.000    905.370    -13.370    494.107    898.630    494.107    500.889    494.107
 98.670    856.000    863.564     -7.564    493.898    856.230    493.898    501.267    493.898
 98.770    860.299    833.730     26.569    493.689    825.668    493.689    501.777    493.689
 98.870    768.202    816.937    -48.735    493.480    807.975    493.480    502.457    493.480
 98.970    853.025    813.948     39.076    493.270    803.869    493.270    503.355    493.270
 99.070    777.331    825.283    -47.952    493.059    813.812    493.059    504.528    493.059
 99.170    850.000    851.246     -1.246    492.849    838.042    492.849    506.042    492.849
 99.270    960.000    891.921     68.079    492.638    876.566    492.638    507.975    492.638
 99.370    918.000    947.118    -29.118    492.427    929.111    492.427    510.411    492.427
 99.470   1068.706   1016.350     52.357    492.216    995.101    492.216    513.438    492.216
 99.570   1090.000   1098.679     -8.679    492.004   1073.511    492.004    517.147    492.004
 99.670   1204.923   1192.644     12.279    491.793   1162.795    491.793    521.619    491.793
 99.770   1286.000   1296.181    -10.181    491.581   1260.821    491.581    526.925    491.581
 99.870   1381.000   1406.563    -25.563    491.369   1364.812    491.369    533.114    491.369
 99.970   1486.000   1520.389    -34.389    491.156   1471.350    491.156    540.205    491.156
100.070   1653.000   1633.668     19.332    490.944   1576.464    490.944    548.176    490.944
100.170   1781.000   1742.012     38.988    490.731   1675.834    490.731    556.960    490.731
100.270   1820.217   1840.977    -20.759    490.519   1765.136    490.519    566.435    490.519
100.370   2064.000   1926.458    137.542    490.306   1840.450    490.306    576.416    490.306
100.470   2023.240   1995.038     28.202    490.093   1898.603    490.093    586.656    490.093
100.570   2031.000   2044.136    -13.136    489.880   1937.332    489.880    596.836    489.880
100.670   2071.000   2071.985     -0.985    489.667   1955.257    489.667    606.569    489.667
100.770   2056.000   2077.580    -21.580    489.454   1951.817    489.454    615.408    489.454
100.870   2051.000   2060.747     -9.747    489.241   1927.328    489.241    622.864    489.241
100.970   1920.000   2022.387   -102.387    489.028   1883.175    489.028    628.452    489.028
101.070   1966.000   1964.703      1.297    488.815   1821.980    488.815    631.753    488.815
101.170   1867.000   1891.214    -24.214    488.602   1747.539    488.602    632.490    488.602
101.270   1826.000   1806.448     19.552    488.390   1664.460    488.390    630.582    488.390
101.370   1726.000   1715.409     10.591    488.177   1577.609    488.177    626.171    488.177
101.470   1615.000   1623.000     -8.000    487.964   1491.564    487.964    619.582    487.964
101.570   1490.000   1533.563    -43.563    487.752   1410.219    487.752    611.261    487.752
101.670   1504.777   1450.569     54.208    487.539   1336.557    487.539    601.700    487.539
101.770   1312.000   1376.476    -64.476    487.327   1272.556    487.327    591.381    487.327
101.870   1274.873   1312.685    -37.812    487.115   1219.185    487.115    580.735    487.115
101.970   1252.000   1259.577     -7.577    486.903   1176.457    486.903    570.129    486.903
102.070   1204.009   1216.601    -12.592    486.692   1143.527    486.692    559.862    486.692
102.170   1167.000   1182.409    -15.409    486.480   1118.817    486.480    550.162    486.480
102.270   1196.317   1155.024     41.293    486.269   1100.182    486.269    541.195    486.269
102.370   1109.000   1132.052    -23.052    486.058   1085.125    486.058    533.067    486.058
102.470   1072.143   1110.955    -38.812    485.848   1071.053    485.848    525.830    485.848
102.570   1119.043   1089.356     29.687    485.638   1055.581    485.638    519.494    485.638
102.670   1027.880   1065.351    -37.470    485.428   1036.831    485.428    514.030    485.428
102.770   1106.000   1037.734     68.266    485.218   1013.654    485.218    509.382    485.218
102.870    989.074   1006.086    -17.012    485.009    985.703    485.009    505.476    485.009
102.970   1024.000    970.680     53.320    484.801    953.338    484.801    502.225    484.801
103.070    906.000    932.295    -26.295    484.592    917.427    484.592    499.541    484.592
103.170    896.000    891.997      4.003    484.384    879.123    484.384    497.335    484.384
103.270    841.000    850.954     -9.954    484.177    839.679    484.177    495.525    484.177
103.370    820.000    810.311      9.689    483.970    800.311    483.970    494.037    483.970
103.470    802.000    771.099     30.901    483.764    762.116    483.764    492.806    483.764
103.570    726.406    734.184     -7.778    483.558    726.015    483.558    491.779    483.558
103.670    741.000    700.232     40.768    483.353    692.720    483.353    490.911    483.353
103.770    702.000    669.698     32.302    483.148    662.719    483.148    490.167    483.148
103.870    651.000    642.822      8.178    482.944    636.282    482.944    489.517    482.944
103.970    637.000    619.654     17.346    482.741    613.480    482.741    488.942    482.741
104.070    601.000    600.080      0.920    482.538    594.216    482.538    488.424    482.538
104.170    574.000    583.860     -9.860    482.336    578.262    482.336    487.951    482.336
104.270    591.000    570.673     20.327    482.134    565.307    482.134    487.515    482.134
104.370    570.000    560.154      9.846    481.934    554.991    481.934    487.107    481.934
104.470    540.000    551.922    -11.922    481.734    546.938    481.734    486.724    481.734
104.570    548.000    545.610      2.390    481.535    540.788    481.535    486.362    481.535
104.670    582.000    540.885     41.115    481.336    536.207    481.336    486.018    481.336
104.770    562.000    537.478     24.522    481.139    532.929    481.139    485.689    481.139
104.870    571.000    535.156     35.844    480.942    530.723    480.942    485.374    480.942
104.970    516.747    533.746    -16.999    480.746    529.418    480.746    485.073    480.746
105.070    561.000    533.130     27.870    480.551    528.895    480.551    484.782    480.551
105.170    497.531    533.238    -35.707    480.357    529.087    480.357    484.503    480.357
105.270    557.000    534.050     22.950    480.164    529.974    480.164    484.234    480.164
105.370    537.000    535.584      1.416    479.972    531.574    479.972    483.974    479.972
105.470    597.000    537.892     59.108    479.781    533.940    479.781    483.723    479.781
105.570    554.793    541.054     13.739    479.591    537.152    479.591    483.480    479.591
105.670    569.000    545.165     23.835    479.401    541.307    479.401    483.245    479.401
105.770    566.000    550.326     15.674    479.213    546.504    479.213    483.018    479.213
105.870    534.481    556.625    -22.144    479.026    552.834    479.026    482.798    479.026
105.970    572.000    564.129      7.871    478.841    560.363    478.841    482.584    478.841
106.070    616.239    572.858     43.381    478.656    569.115    478.656    482.373    478.656
106.170    583.688    582.796      0.892    478.472    579.066    478.472    482.173    478.472
106.270    599.000    593.851      5.149    478.290    590.129    478.290    481.979    478.290
106.370    604.229    605.869     -1.640    478.109    602.150    478.109    481.792    478.109
106.470    635.509    618.626     16.882    477.929    614.905    477.929    481.611    477.929
106.570    663.885    631.831     32.053    477.750    628.104    477.750    481.436    477.750
106.670    649.993    645.132      4.861    477.573    641.394    477.573    481.266    477.573
106.770    676.996    658.126     18.870    477.397    654.374    477.397    481.103    477.397
106.870    638.000    670.378    -32.378    477.223    666.610    477.223    480.944    477.223
106.970    670.000    681.442    -11.442    477.050    677.662    477.050    480.783    477.050
107.070    682.758    690.929     -8.170    476.878    687.124    476.878    480.636    476.878
107.170    672.000    698.507    -26.507    476.707    694.675    476.707    480.496    476.707
107.270    749.075    703.990     45.085    476.539    700.125    476.539    480.362    476.539
107.370    650.000    707.367    -57.367    476.371    703.467    476.371    480.234    476.371
107.470    676.000    708.814    -32.814    476.205    704.875    476.205    480.112    476.205
107.570    727.000    708.662     18.338    476.041    704.678    476.041    479.996    476.041
107.670    712.606    707.345      5.262    475.878    703.312    475.878    479.886    475.878
107.770    667.549    705.329    -37.780    475.717    701.243    475.717    479.783    475.717
107.870    688.490    703.060    -14.570    475.558    698.915    475.558    479.686    475.558
107.970    680.448    700.910    -20.463    475.400    696.702    475.400    479.596    475.400
108.070    725.000    699.155     25.845    475.244    694.877    475.244    479.514    475.244
108.170    691.000    697.949     -6.949    475.090    693.597    475.090    479.438    475.090
108.270    698.931    697.324      1.608    474.937    692.891    474.937    479.370    474.937
108.370    694.000    697.182     -3.182    474.786    692.662    474.786    479.309    474.786
108.470    681.000    697.309    -16.309    474.638    692.696    474.638    479.257    474.638
108.570    686.000    697.392    -11.392    474.490    692.680    474.490    479.213    474.490
108.670    719.000    697.049     21.951    474.345    692.230    474.345    479.177    474.345
108.770    655.803    695.873    -40.071    474.202    690.940    474.202    479.151    474.202
108.870    725.000    693.489     31.511    474.061    688.434    474.061    479.134    474.061
108.970    730.735    689.609     41.126    473.921    684.423    473.921    479.127    473.921
109.070    665.809    684.076    -18.266    473.784    678.751    473.784    479.130    473.784
109.170    672.000    676.886     -4.886    473.649    671.413    473.649    479.145    473.649
109.270    682.000    668.179     13.821    473.515    662.547    473.515    479.171    473.515
109.370    656.890    658.204     -1.314    473.384    652.402    473.384    479.209    473.384
109.470    619.000    647.277    -28.277    473.255    641.294    473.255    479.261    473.255
109.570    652.000    635.746     16.254    473.129    629.570    473.129    479.326    473.129
109.670    655.000    623.957     31.043    473.004    617.575    473.004    479.406    473.004
109.770    580.321    612.235    -31.914    472.882    605.634    472.882    479.501    472.882
109.870    623.000    600.872     22.128    472.761    594.035    472.761    479.614    472.761
109.970    597.000    590.114      6.886    472.644    583.027    472.644    479.745    472.644
110.070    553.421    580.159    -26.738    472.528    572.803    472.528    479.897    472.528
110.170    526.452    571.132    -44.680    472.415    563.487    472.415    480.070    472.415
110.270    592.576    563.160     29.416    472.304    555.204    472.304    480.268    472.304
110.370    554.483    556.312     -1.829    472.196    548.020    472.196    480.494    472.196
110.470    609.000    550.576     58.424    472.090    541.920    472.090    480.751    472.090
110.570    561.000    545.924     15.076    471.987    536.870    471.987    481.044    471.987
110.670    576.581    542.301     34.280    471.886    532.810    471.886    481.379    471.886
110.770    517.000    539.635    -22.635    471.788    529.660    471.788    481.763    471.788
110.870    575.190    537.841     37.350    471.692    527.325    471.692    482.206    471.692
110.970    522.355    536.832    -14.477    471.599    525.708    471.599    482.720    471.599
111.070    600.000    536.523     63.477    471.509    524.708    471.509    483.320    471.509
111.170    499.000    536.837    -37.837    471.422    524.230    471.422    484.024    471.422
111.270    527.000    537.709    -10.709    471.337    524.184    471.337    484.856    471.337
111.370    528.000    539.088    -11.088    471.255    524.491    471.255    485.845    471.255
111.470    532.069    540.937     -8.868    471.175    525.081    471.175    487.024    471.175
111.570    583.142    543.240     39.901    471.099    525.896    471.099    488.436    471.099
111.670    518.000    545.998    -27.998    471.026    526.886    471.026    490.130    471.026
111.770    524.000    549.230    -25.230    470.955    528.015    470.955    492.162    470.955
111.870    557.282    552.976      4.306    470.887    529.256    470.887    494.599    470.887
111.970    552.000    557.295     -5.295    470.823    530.594    470.823    497.515    470.823
112.070    595.376    562.264     33.112    470.761    532.024    470.761    500.991    470.761
112.170    546.000    567.977    -21.977    470.703    533.552    470.703    505.118    470.703
112.270    539.000    574.544    -35.544    470.647    535.193    470.647    509.989    470.647
112.370    539.115    582.084    -42.969    470.595    536.969    470.595    515.700    470.595
112.470    621.000    590.724     30.276    470.546    538.911    470.546    522.349    470.546
112.570    629.440    600.596     28.844    470.500    541.059    470.500    530.026    470.500
112.670    604.000    611.833     -7.833    470.458    543.465    470.458    538.815    470.458
112.770    646.000    624.565     21.435    470.419    546.190    470.419    548.783    470.419
112.870    643.455    638.922      4.533    470.383    549.316    470.383    559.977    470.383
112.970    588.000    655.031    -67.031    470.350    552.948    470.350    572.420    470.350
113.070    641.864    673.019    -31.155    470.321    557.225    470.321    586.102    470.321
113.170    632.000    693.021    -61.021    470.295    562.327    470.295    600.974    470.295
113.270    711.000    715.185     -4.185    470.273    568.494    470.273    616.948    470.273
113.370    788.373    739.686     48.687    470.255    576.037    470.255    633.886    470.255
113.470    725.658    766.744    -41.086    470.239    585.363    470.239    651.601    470.239
113.570    808.867    796.642     12.225    470.228    596.995    470.228    669.851    470.228
113.670    841.000    829.750     11.250    470.220    611.601    470.220    688.341    470.220
113.770    823.000    866.551    -43.551    470.216    630.017    470.216    706.717    470.216
113.870    895.823    907.669    -11.846    470.216    653.276    470.216    724.568    470.216
113.970    944.000    953.902     -9.902    470.219    682.638    470.219    741.435    470.219
114.070    997.000   1006.251     -9.251    470.226    719.602    470.226    756.815    470.226
114.170   1021.000   1065.951    -44.951    470.237    765.929    470.237    770.186    470.237
114.270   1121.000   1134.505    -13.505    470.252    823.633    470.252    781.033    470.252
114.370   1308.000   1213.708     94.292    470.271    894.973    470.271    788.896    470.271
114.470   1329.000   1305.660     23.340    470.294    982.409    470.294    793.409    470.294
114.570   1402.000   1412.744    -10.744    470.321   1088.547    470.321    794.354    470.321
114.670   1575.000   1537.574     37.426    470.352   1216.046    470.352    791.682    470.352
114.770   1756.562   1682.880     73.681    470.387   1367.503    470.387    785.529    470.387
114.870   1889.000   1851.346     37.654    470.426   1545.304    470.426    776.191    470.426
114.970   1990.943   2045.399    -54.457    470.470   1751.459    470.470    764.085    470.470
115.070   2399.000   2266.979    132.021    470.518   1987.416    470.518    749.707    470.518
115.170   2519.478   2517.295      2.183    470.569   2253.860    470.569    733.578    470.569
115.270   2864.952   2796.598     68.354    470.626   2550.531    470.626    716.214    470.626
115.370   3200.278   3103.986     96.292    470.686   2876.041    470.686    698.101    470.686
115.470   3406.000   3437.241    -31.241    470.751   3227.740    470.751    679.673    470.751
115.570   3658.000   3792.727   -134.727    470.821   3601.612    470.821    661.314    470.821
115.670   4243.505   4165.341     78.164    470.895   3992.228    470.895    643.349    470.895
115.770   4630.457   4548.526     81.931    470.973   4392.768    470.973    626.047    470.973
115.870   4753.000   4934.361   -181.361    471.056   4795.097    471.056    609.622    471.056
115.970   5445.548   5313.708    131.840    471.144   5189.916    471.144    594.236    471.144
116.070   5693.472   5676.442     17.030    471.237   5566.990    471.237    580.003    471.237
116.170   5835.000   6011.768   -176.768    471.334   5915.458    471.334    566.991    471.334
116.270   6230.000   6308.645    -78.645    471.436   6224.249    471.436    555.228    471.436
116.370   6675.000   6556.335    118.665    471.542   6482.632    471.542    544.709    471.542
116.470   6890.000   6745.092    144.908    471.654   6680.894    471.654    535.397    471.654
116.570   6960.201   6866.940     93.261    471.770   6811.117    471.770    527.234    471.770
116.670   6778.855   6916.439   -137.584    471.892   6867.931    471.892    520.145    471.892
116.770   7066.000   6891.279    174.721    472.018   6849.109    472.018    514.043    472.018
116.870   6848.000   6792.536     55.464    472.149   6755.818    472.149    508.832    472.149
116.970   6702.999   6624.530     78.469    472.286   6592.468    472.286    504.416    472.286
117.070   6257.235   6394.308   -137.073    472.428   6366.200    472.428    500.699    472.428
117.170   6081.000   6110.916    -29.916    472.574   6086.146    472.574    497.589    472.574
117.270   5658.000   5784.629   -126.629    472.726   5762.665    472.726    495.001    472.726
117.370   5239.000   5426.269   -187.269    472.884   5406.659    472.884    492.856    472.884
117.470   4974.000   5046.540    -72.540    473.046   5028.899    473.046    491.085    473.046
117.570   4731.000   4655.640     75.360    473.214   4639.647    473.214    489.625    473.214
117.670   4334.897   4262.917     71.980    473.388   4248.305    473.388    488.424    473.388
117.770   3980.276   3876.624    103.652    473.567   3863.171    473.567    487.437    473.567
117.870   3688.000   3503.751    184.249    473.751   3491.279    473.751    486.626    473.751
117.970   3116.922   3149.946    -33.024    473.941   3138.306    473.941    485.959    473.941
118.070   2883.000   2819.484     63.516    474.137   2808.558    474.137    485.410    474.137
118.170   2583.000   2515.324     67.676    474.338   2505.015    474.338    484.960    474.338
118.270   2274.000   2239.193     34.807    474.545   2229.424    474.545    484.590    474.545
118.370   1956.000   1991.729    -35.729    474.758   1982.438    474.758    484.288    474.758
118.470   1747.000   1772.639    -25.639    474.976   1763.775    474.976    484.044    474.976
118.570   1529.323   1580.873    -51.550    475.201   1572.394    475.201    483.848    475.201
118.670   1416.177   1414.801      1.376    475.431   1406.674    475.431    483.695    475.431
118.770   1252.000   1272.384    -20.384    475.667   1264.581    475.667    483.579    475.667
118.870   1151.000   1151.336     -0.336    475.910   1143.833    475.910    483.497    475.910
118.970   1020.123   1049.260    -29.137    476.158   1042.037    476.158    483.445    476.158
119.070    949.000    963.768    -14.768    476.412    956.808    476.412    483.420    476.412
119.170    868.000    892.573    -24.573    476.673    885.858    476.673    483.422    476.673
119.270    817.000    833.548    -16.548    476.940    827.064    476.940    483.447    476.940
119.370    792.021    784.774      7.247    477.213    778.507    477.213    483.496    477.213
119.470    778.000    744.558     33.442    477.493    738.493    477.493    483.567    477.493
119.570    734.000    711.434     22.566    477.778    705.559    477.778    483.659    477.778
119.670    667.302    684.161    -16.859    478.071    678.463    478.071    483.772    478.071
119.770    660.932    661.700     -0.768    478.369    656.164    478.369    483.906    478.369
119.870    675.000    643.194     31.806    478.675    637.808    478.675    484.061    478.675
119.970    623.000    627.948     -4.948    478.986    622.699    478.986    484.237    478.986
120.070    581.000    615.401    -34.401    479.305    610.274    479.305    484.433    479.305
120.170    603.000    605.105     -2.105    479.630    600.086    479.630    484.650    479.630
120.270    577.000    596.704    -19.704    479.962    591.778    479.962    484.890    479.962
120.370    598.000    589.919      8.081    480.301    585.071    480.301    485.151    480.301
120.470    618.043    584.531     33.512    480.646    579.744    480.646    485.436    480.646
120.570    517.000    580.366    -63.366    480.999    575.624    480.999    485.744    480.999
120.670    520.000    577.292    -57.292    481.358    572.578    481.358    486.076    481.358
120.770    558.000    575.202    -17.202    481.725    570.498    481.725    486.434    481.725
120.870    579.000    574.015      4.985    482.098    569.300    482.098    486.818    482.098
120.970    531.223    573.661    -42.438    482.479    568.917    482.479    487.229    482.479
121.070    531.057    574.084    -43.026    482.867    569.291    482.867    487.667    482.867
121.170    561.000    575.234    -14.234    483.262    570.370    483.262    488.134    483.262
121.270    569.000    577.062     -8.062    483.664    572.109    483.664    488.628    483.664
121.370    601.000    579.521     21.479    484.074    574.456    484.074    489.151    484.074
121.470    550.000    582.559    -32.559    484.491    577.362    484.491    489.702    484.491
121.570    582.000    586.118     -4.118    484.916    580.769    484.916    490.281    484.916
121.670    630.455    590.134     40.321    485.348    584.614    485.348    490.886    485.348
121.770    615.000    594.533     20.467    485.788    588.824    485.788    491.517    485.788
121.870    604.000    599.233      4.767    486.235    593.321    486.235    492.170    486.235
121.970    620.000    604.144     15.856    486.690    598.014    486.690    492.845    486.690
122.070    593.398    609.165    -15.767    487.153    602.808    487.153    493.538    487.153
122.170    656.488    614.188     42.299    487.624    607.597    487.624    494.247    487.624
122.270    626.000    619.100      6.900    488.102    612.271    488.102    494.966    488.102
122.370    618.000    623.784     -5.784    488.589    616.718    488.589    495.692    488.589
122.470    637.000    628.120      8.880    489.083    620.823    489.083    496.420    489.083
122.570    610.000    631.996    -21.996    489.586    624.479    489.586    497.144    489.586
122.670    645.000    635.307      9.693    490.096    627.588    490.096    497.859    490.096
122.770    667.722    637.963     29.758    490.615    630.065    490.615    498.559    490.615
122.870    622.000    639.898    -17.898    491.142    631.849    491.142    499.238    491.142
122.970    645.000    641.070      3.930    491.677    632.905    491.677    499.889    491.677
123.070    635.000    641.464     -6.464    492.221    633.224    492.221    500.509    492.221
123.170    626.502    641.094    -14.592    492.773    632.823    492.773    501.091    492.773
123.270    655.932    640.001     15.931    493.333    631.746    493.333    501.635    493.333
123.370    653.000    638.245     14.755    493.902    630.052    493.902    502.140    493.902
123.470    669.000    635.899     33.101    494.480    627.816    494.480    502.607    494.480
123.570    621.000    633.049    -12.049    495.066    625.120    495.066    503.037    495.066
123.670    677.413    629.784     47.629    495.661    622.050    495.661    503.434    495.661
123.770    634.000    626.193      7.807    496.265    618.691    496.265    503.804    496.265
123.870    598.000    622.364    -24.364    496.877    615.124    496.877    504.151    496.877
123.970    640.000    618.378     21.621    497.499    611.425    497.499    504.482    497.499
124.070    674.000    614.310     59.690    498.129    607.664    498.129    504.804    498.129
124.170    617.000    610.224      6.776    498.769    603.896    498.769    505.121    498.769
124.270    565.926    606.171    -40.245    499.417    600.171    499.417    505.439    499.417
124.370    588.000    602.193    -14.193    500.075    596.524    500.075    505.762    500.075
124.470    623.000    598.321     24.679    500.742    592.982    500.742    506.097    500.742
124.570    566.000    594.572    -28.572    501.418    589.559    501.418    506.445    501.418
124.670    549.946    590.958    -41.013    502.103    586.262    502.103    506.812    502.103
124.770    597.000    587.482      9.518    502.798    583.091    502.798    507.198    502.798
124.870    611.000    584.139     26.861    503.503    580.042    503.503    507.608    503.503
124.970    567.000    580.925    -13.925    504.216    577.107    504.216    508.042    504.216
