neutron_powder_diffraction_0137
R_wp: 3.942
Temperature (K): 1072.796
Counts: 83794.00
Wavelength (Ã…): 2.52098
COMMENTS
Test file for demonstrating the .xyy file format in Reel1.0
END OF HEADER
   tth       Y_obs     Y_calc      Y_res    Background    Phase_1_Nuc    Phase_1_Mag    Phase_2_Nuc    Phase_2_Mag
  9.970    608.000    575.196     32.804    574.352    575.140    574.352    574.408    574.352
 10.070    545.088    575.297    -30.208    574.384    575.240    574.384    574.440    574.384
 10.170    562.000    575.402    -13.402    574.411    575.345    574.411    574.467    574.411
 10.270    578.000    575.514      2.486    574.432    575.457    574.432    574.489    574.432
 10.370    575.560    575.636     -0.076    574.448    575.578    574.448    574.505    574.448
 10.470    587.000    575.770     11.230    574.459    575.712    574.459    574.516    574.459
 10.570    556.000    575.921    -19.921    574.464    575.863    574.464    574.521    574.464
 10.670    592.000    576.095     15.905    574.464    576.036    574.464    574.522    574.464
 10.770    550.160    576.299    -26.140    574.459    576.241    574.459    574.517    574.459
 10.870    591.253    576.545     14.708    574.449    576.486    574.449    574.507    574.449
 10.970    548.800    576.847    -28.047    574.433    576.788    574.433    574.492    574.433
 11.070    604.534    577.226     27.308    574.413    577.166    574.413    574.472    574.413
 11.170    557.000    577.713    -20.713    574.388    577.652    574.388    574.447    574.388
 11.270    587.000    578.355      8.645    574.358    578.293    574.358    574.417    574.358
 11.370    554.000    579.238    -25.238    574.323    579.176    574.323    574.382    574.323
 11.470    540.000    580.556    -40.556    574.283    580.493    574.283    574.342    574.283
 11.570    584.000    582.814      1.186    574.238    582.749    574.238    574.298    574.238
 11.670    631.556    587.279     44.277    574.189    587.212    574.189    574.249    574.189
 11.770    668.000    596.510     71.490    574.135    596.437    574.135    574.195    574.135
 11.870    666.000    614.091     51.909    574.076    614.008    574.076    574.137    574.076
 11.970    595.845    642.219    -46.374    574.013    642.120    574.013    574.074    574.013
 12.070    712.607    676.863     35.745    573.945    676.744    573.945    574.006    573.945
 12.170    684.435    703.484    -19.049    573.873    703.350    573.873    573.934    573.873
 12.270    672.000    704.321    -32.321    573.796    704.186    573.796    573.858    573.796
 12.370    678.000    678.585     -0.585    573.715    678.464    573.715    573.777    573.715
 12.470    623.000    643.695    -20.695    573.630    643.593    573.630    573.692    573.630
 12.570    659.710    614.830     44.880    573.540    614.744    573.540    573.603    573.540
 12.670    589.000    596.532     -7.532    573.446    596.457    573.446    573.509    573.446
 12.770    589.380    586.794      2.586    573.348    586.723    573.348    573.411    573.348
 12.870    561.236    582.006    -20.770    573.246    581.938    573.246    573.310    573.246
 12.970    594.816    579.526     15.290    573.140    579.459    573.140    573.204    573.140
 13.070    555.000    578.029    -23.029    573.029    577.962    573.029    573.094    573.029
 13.170    583.000    576.982      6.018    572.915    576.915    572.915    572.979    572.915
 13.270    607.000    576.184     30.816    572.797    576.117    572.797    572.861    572.797
 13.370    570.010    575.545     -5.535    572.675    575.479    572.675    572.740    572.675
 13.470    552.000    575.020    -23.020    572.548    574.954    572.548    572.614    572.548
 13.570    577.000    574.574      2.426    572.419    574.507    572.419    572.484    572.419
 13.670    569.695    574.184     -4.489    572.285    574.117    572.285    572.351    572.285
 13.770    558.000    573.837    -15.837    572.147    573.770    572.147    572.214    572.147
 13.870    580.323    573.523      6.800    572.006    573.456    572.006    572.073    572.006
 13.970    561.000    573.234    -12.234    571.862    573.166    571.862    571.929    571.862
 14.070    538.000    572.964    -34.964    571.713    572.896    571.713    571.781    571.713
 14.170    596.000    572.709     23.291    571.561    572.640    571.561    571.629    571.561
 14.270    546.531    572.465    -25.934    571.406    572.396    571.406    571.474    571.406
 14.370    561.000    572.229    -11.229    571.247    572.160    571.247    571.316    571.247
 14.470    550.000    572.001    -22.001    571.085    571.932    571.085    571.154    571.085
 14.570    569.450    571.777     -2.328    570.919    571.708    570.919    570.988    570.919
 14.670    527.227    571.558    -44.330    570.750    571.488    570.750    570.820    570.750
 14.770    586.591    571.341     15.250    570.578    571.271    570.578    570.648    570.578
 14.870    547.000    571.126    -24.126    570.403    571.056    570.403    570.473    570.403
 14.970    535.385    570.912    -35.528    570.224    570.842    570.224    570.294    570.224
 15.070    523.000    570.699    -47.699    570.042    570.628    570.042    570.113    570.042
 15.170    574.634    570.487      4.147    569.857    570.415    569.857    569.928    569.857
 15.270    544.000    570.275    -26.275    569.669    570.202    569.669    569.742    569.669
 15.370    579.000    570.062      8.938    569.478    569.988    569.478    569.552    569.478
 15.470    591.921    569.848     22.073    569.283    569.773    569.283    569.358    569.283
 15.570    602.000    569.633     32.367    569.086    569.558    569.086    569.161    569.086
 15.670    556.000    569.417    -13.417    568.886    569.341    568.886    568.962    568.886
 15.770    536.000    569.199    -33.199    568.683    569.123    568.683    568.759    568.683
 15.870    535.537    568.981    -33.444    568.477    568.904    568.477    568.554    568.477
 15.970    563.000    568.763     -5.763    568.269    568.686    568.269    568.346    568.269
 16.070    548.000    568.541    -20.541    568.058    568.464    568.058    568.135    568.058
 16.170    556.000    568.318    -12.318    567.844    568.240    567.844    567.921    567.844
 16.270    578.312    568.093     10.219    567.627    568.014    567.627    567.705    567.627
 16.370    556.000    567.867    -11.867    567.407    567.788    567.407    567.486    567.407
 16.470    560.000    567.639     -7.639    567.185    567.560    567.185    567.265    567.185
 16.570    559.000    567.408     -8.408    566.961    567.329    566.961    567.041    566.961
 16.670    573.000    567.176      5.824    566.734    567.096    566.734    566.814    566.734
 16.770    563.000    566.942     -3.942    566.504    566.861    566.504    566.585    566.504
 16.870    563.000    566.706     -3.706    566.272    566.625    566.272    566.353    566.272
 16.970    591.000    566.468     24.532    566.038    566.386    566.038    566.119    566.038
 17.070    526.000    566.228    -40.228    565.801    566.146    565.801    565.883    565.801
 17.170    565.973    565.987     -0.014    565.562    565.904    565.562    565.645    565.562
 17.270    562.000    565.743     -3.743    565.321    565.660    565.321    565.404    565.321
 17.370    532.667    565.498    -32.830    565.077    565.414    565.077    565.161    565.077
 17.470    601.126    565.250     35.876    564.831    565.166    564.831    564.915    564.831
 17.570    585.000    565.001     19.999    564.583    564.917    564.583    564.668    564.583
 17.670    587.000    564.751     22.249    564.333    564.665    564.333    564.418    564.333
 17.770    561.000    564.498     -3.498    564.080    564.412    564.080    564.166    564.080
 17.870    607.000    564.244     42.756    563.826    564.157    563.826    563.912    563.826
 17.970    548.000    563.988    -15.988    563.569    563.901    563.569    563.656    563.569
 18.070    564.752    563.731      1.022    563.311    563.643    563.311    563.399    563.311
 18.170    558.000    563.473     -5.473    563.050    563.384    563.050    563.139    563.050
 18.270    563.000    563.226     -0.226    562.788    563.137    562.788    562.877    562.788
 18.370    544.000    562.975    -18.975    562.524    562.885    562.524    562.613    562.524
 18.470    529.566    562.712    -33.146    562.258    562.622    562.258    562.348    562.258
 18.570    542.541    562.446    -19.906    561.990    562.356    561.990    562.080    561.990
 18.670    570.000    562.180      7.820    561.720    562.088    561.720    561.811    561.720
 18.770    535.000    561.912    -26.912    561.448    561.819    561.448    561.540    561.448
 18.870    527.031    561.642    -34.611    561.175    561.549    561.175    561.268    561.175
 18.970    585.000    561.371     23.629    560.900    561.277    560.900    560.993    560.900
 19.070    533.000    561.099    -28.099    560.623    561.004    560.623    560.718    560.623
 19.170    547.728    560.825    -13.097    560.345    560.730    560.345    560.440    560.345
 19.270    584.000    560.550     23.450    560.065    560.455    560.065    560.161    560.065
 19.370    574.257    560.275     13.983    559.784    560.178    559.784    559.880    559.784
 19.470    583.000    559.997     23.003    559.501    559.900    559.501    559.598    559.501
 19.570    529.000    559.719    -30.719    559.216    559.621    559.216    559.314    559.216
 19.670    553.000    559.440     -6.440    558.930    559.341    558.930    559.029    558.930
 19.770    543.031    559.160    -16.129    558.643    559.060    558.643    558.743    558.643
 19.870    588.000    558.878     29.122    558.354    558.778    558.354    558.455    558.354
 19.970    539.000    558.596    -19.596    558.064    558.495    558.064    558.166    558.064
 20.070    541.000    558.321    -17.321    557.773    558.219    557.773    557.875    557.773
 20.170    582.000    558.120     23.880    557.480    558.017    557.480    557.583    557.480
 20.270    578.000    557.862     20.138    557.186    557.758    557.186    557.290    557.186
 20.370    528.000    557.579    -29.579    556.890    557.474    556.890    556.996    556.890
 20.470    578.000    557.296     20.704    556.594    557.189    556.594    556.700    556.594
 20.570    528.356    557.014    -28.658    556.296    556.907    556.296    556.403    556.296
 20.670    514.712    556.728    -42.016    555.997    556.620    555.997    556.106    555.997
 20.770    553.449    556.441     -2.992    555.697    556.332    555.697    555.807    555.697
 20.870    519.000    556.154    -37.154    555.396    556.044    555.396    555.507    555.396
 20.970    554.986    555.867     -0.881    555.094    555.756    555.094    555.206    555.094
 21.070    572.379    555.580     16.799    554.791    555.467    554.791    554.904    554.791
 21.170    584.000    555.293     28.707    554.487    555.179    554.487    554.601    554.487
 21.270    531.000    555.006    -24.006    554.182    554.891    554.182    554.297    554.182
 21.370    587.000    554.720     32.280    553.876    554.603    553.876    553.992    553.876
 21.470    548.000    554.434     -6.434    553.569    554.316    553.569    553.686    553.569
 21.570    578.000    554.148     23.852    553.261    554.030    553.261    553.380    553.261
 21.670    555.000    553.865      1.135    552.952    553.745    552.952    553.073    552.952
 21.770    586.000    553.587     32.413    552.643    553.466    552.643    552.764    552.643
 21.870    571.000    553.351     17.649    552.332    553.229    552.332    552.455    552.332
 21.970    574.000    553.091     20.909    552.021    552.966    552.021    552.146    552.021
 22.070    514.000    552.816    -38.816    551.710    552.690    551.710    551.836    551.710
 22.170    585.580    552.561     33.020    551.397    552.433    551.397    551.525    551.397
 22.270    579.427    552.315     27.112    551.084    552.186    551.084    551.213    551.084
 22.370    551.000    552.049     -1.049    550.770    551.918    550.770    550.901    550.770
 22.470    568.000    551.785     16.215    550.455    551.653    550.455    550.588    550.455
 22.570    545.000    551.526     -6.526    550.140    551.392    550.140    550.275    550.140
 22.670    551.000    551.274     -0.274    549.824    551.138    549.824    549.961    549.824
 22.770    540.000    551.028    -11.028    549.508    550.891    549.508    549.646    549.508
 22.870    592.117    550.792     41.325    549.191    550.652    549.191    549.331    549.191
 22.970    569.000    550.567     18.433    548.874    550.425    548.874    549.016    548.874
 23.070    533.391    550.356    -16.966    548.556    550.213    548.556    548.701    548.556
 23.170    542.000    550.162     -8.162    548.238    550.016    548.238    548.385    548.238
 23.270    587.599    549.989     37.610    547.919    549.841    547.919    548.068    547.919
 23.370    534.000    549.846    -15.846    547.600    549.696    547.600    547.752    547.600
 23.470    562.737    549.736     13.001    547.281    549.583    547.281    547.435    547.281
 23.570    552.000    549.672      2.328    546.961    549.516    546.961    547.118    546.961
 23.670    543.000    549.669     -6.669    546.641    549.511    546.641    546.800    546.641
 23.770    574.597    549.753     24.844    546.320    549.593    546.320    546.483    546.320
 23.870    586.000    549.969     36.031    546.000    549.806    546.000    546.165    546.000
 23.970    582.000    550.377     31.623    545.679    550.211    545.679    545.847    545.679
 24.070    560.000    551.158      8.842    545.358    550.989    545.358    545.529    545.358
 24.170    558.954    552.765      6.189    545.036    552.594    545.036    545.212    545.036
 24.270    599.000    556.226     42.774    544.715    556.055    544.715    544.894    544.715
 24.370    528.375    563.360    -34.985    544.393    563.190    544.393    544.576    544.393
 24.470    594.845    576.270     18.575    544.071    576.105    544.071    544.258    544.071
 24.570    596.000    595.524      0.476    543.749    595.369    543.749    543.940    543.749
 24.670    533.000    617.212    -84.212    543.427    617.068    543.427    543.623    543.427
 24.770    616.000    631.225    -15.225    543.105    631.087    543.105    543.305    543.105
 24.870    609.000    627.836    -18.836    542.783    627.690    542.783    542.988    542.783
 24.970    635.000    609.609     25.391    542.461    609.446    542.461    542.671    542.461
 25.070    614.073    587.526     26.548    542.139    587.341    542.139    542.355    542.139
 25.170    569.000    569.674     -0.674    541.817    569.470    541.817    542.039    541.817
 25.270    561.000    558.227      2.773    541.495    558.010    541.495    541.723    541.495
 25.370    578.000    551.906     26.094    541.173    551.677    541.173    541.408    541.173
 25.470    551.000    548.635      2.365    540.851    548.397    540.851    541.093    540.851
 25.570    562.943    546.832     16.111    540.529    546.585    540.529    540.779    540.529
 25.670    543.000    545.662     -2.662    540.208    545.406    540.208    540.466    540.208
 25.770    552.000    544.806      7.194    539.886    544.541    539.886    540.153    539.886
 25.870    560.000    544.131     15.869    539.565    543.856    539.565    539.841    539.565
 25.970    595.000    543.575     51.425    539.244    543.290    539.244    539.531    539.244
 26.070    577.000    543.120     33.880    538.923    542.824    538.923    539.221    538.923
 26.170    533.000    542.750     -9.750    538.603    542.442    538.603    538.912    538.603
 26.270    502.000    542.418    -40.418    538.282    542.097    538.282    538.605    538.282
 26.370    562.453    542.139     20.314    537.962    541.803    537.962    538.299    537.962
 26.470    513.000    541.912    -28.912    537.643    541.561    537.643    537.994    537.643
 26.570    548.000    541.734      6.266    537.323    541.366    537.323    537.691    537.323
 26.670    528.000    541.613    -13.613    537.004    541.227    537.004    537.391    537.004
 26.770    558.000    541.566     16.434    536.686    541.159    536.686    537.092    536.686
 26.870    557.122    541.586     15.536    536.367    541.157    536.367    536.796    536.367
 26.970    578.909    541.684     37.225    536.049    541.231    536.049    536.503    536.049
 27.070    530.000    541.893    -11.893    535.732    541.412    535.732    536.212    535.732
 27.170    543.000    542.248      0.752    535.415    541.737    535.415    535.926    535.415
 27.270    567.172    542.794     24.378    535.098    542.249    535.098    535.643    535.098
 27.370    571.000    543.596     27.404    534.782    543.012    534.782    535.365    534.782
 27.470    552.000    544.799      7.201    534.467    544.171    534.467    535.093    534.467
 27.570    579.000    546.772     32.228    534.151    546.094    534.151    534.827    534.151
 27.670    590.000    550.861     39.139    533.837    550.126    533.837    534.568    533.837
 27.770    542.876    561.743    -18.866    533.523    560.940    533.523    534.319    533.523
 27.870    613.129    591.435     21.694    533.210    590.547    533.210    534.080    533.210
 27.970    689.000    658.787     30.213    532.897    657.791    532.897    533.854    532.897
 28.070    787.470    772.151     15.319    532.584    771.019    532.584    533.644    532.584
 28.170    849.799    898.896    -49.097    532.273    897.614    532.273    533.454    532.273
 28.270    956.000    961.268     -5.268    531.962    959.843    531.962    533.289    531.962
 28.370    920.000    908.706     11.294    531.652    907.139    531.652    533.157    531.652
 28.470    772.000    794.785    -22.785    531.342    793.032    531.342    533.070    531.342
 28.570    696.000    706.460    -10.460    531.033    704.436    531.033    533.046    531.033
 28.670    700.022    688.731     11.291    530.725    686.330    530.725    533.111    530.725
 28.770    773.727    735.864     37.863    530.417    732.956    530.417    533.306    530.417
 28.870    829.000    806.154     22.846    530.111    802.570    530.111    533.681    530.111
 28.970    805.305    839.221    -33.917    529.805    834.725    529.805    534.303    529.805
 29.070    777.000    799.790    -22.790    529.499    794.060    529.499    535.241    529.499
 29.170    682.494    718.253    -35.758    529.195    710.900    529.195    536.560    529.195
 29.270    633.000    642.319     -9.319    528.891    632.931    528.891    538.287    528.891
 29.370    596.533    594.038      2.496    528.588    582.271    528.588    540.358    528.588
 29.470    554.577    571.049    -16.473    528.286    556.818    528.286    542.518    528.286
 29.570    527.084    562.128    -35.044    527.985    545.876    527.985    544.235    527.985
 29.670    582.000    558.251     23.749    527.685    541.114    527.685    544.821    527.685
 29.770    612.000    555.117     56.883    527.386    538.604    527.386    543.897    527.386
 29.870    601.000    551.644     49.356    527.087    536.987    527.087    541.742    527.087
 29.970    524.588    548.093    -23.505    526.789    535.856    526.789    539.025    526.789
 30.070    551.000    544.911      6.089    526.493    535.084    526.493    536.318    526.493
 30.170    573.000    542.378     30.622    526.197    534.650    526.197    533.922    526.197
 30.270    598.000    540.709     57.291    525.902    534.679    525.902    531.930    525.902
 30.370    564.000    540.353     23.647    525.608    535.631    525.608    530.327    525.608
 30.470    581.000    542.435     38.565    525.316    538.690    525.316    529.054    525.316
 30.570    557.000    549.019      7.981    525.024    545.990    525.024    528.040    525.024
 30.670    538.649    562.285    -23.636    524.733    559.776    524.733    527.219    524.733
 30.770    570.000    581.961    -11.961    524.443    579.832    524.443    526.535    524.443
 30.870    586.000    602.194    -16.194    524.154    600.348    524.154    525.948    524.154
 30.970    649.000    611.403     37.597    523.867    609.786    523.867    525.429    523.867
 31.070    599.476    601.987     -2.511    523.580    600.563    523.580    524.958    523.580
 31.170    584.000    580.946      3.054    523.294    579.688    523.294    524.522    523.294
 31.270    575.167    559.854     15.312    523.010    558.734    523.010    524.114    523.010
 31.370    561.000    544.852     16.148    522.726    543.844    522.726    523.726    522.726
 31.470    568.966    536.386     32.579    522.444    535.470    522.444    523.356    522.444
 31.570    518.076    532.270    -14.195    522.163    531.431    522.163    522.999    522.163
 31.670    558.471    530.320     28.150    521.883    529.547    521.883    522.655    521.883
 31.770    493.336    529.280    -35.944    521.604    528.562    521.604    522.320    521.604
 31.870    526.000    528.623     -2.623    521.326    527.955    521.326    521.993    521.326
 31.970    567.000    528.169     38.831    521.050    527.543    521.050    521.674    521.050
 32.070    488.432    527.856    -39.424    520.774    527.268    520.774    521.361    520.774
 32.170    554.928    527.662     27.266    520.500    527.108    520.500    521.053    520.500
 32.270    576.000    527.579     48.421    520.227    527.054    520.227    520.751    520.227
 32.370    484.620    527.608    -42.989    519.955    527.110    519.955    520.453    519.955
 32.470    556.000    527.760     28.240    519.685    527.285    519.685    520.159    519.685
 32.570    537.670    528.050      9.620    519.415    527.596    519.415    519.868    519.415
 32.670    547.000    528.507     18.493    519.147    528.072    519.147    519.581    519.147
 32.770    538.000    529.170      8.830    518.880    528.752    518.880    519.297    518.880
 32.870    538.728    530.098      8.630    518.615    529.696    518.615    519.016    518.615
 32.970    550.325    531.378     18.947    518.351    530.989    518.351    518.738    518.351
 33.070    524.000    533.146     -9.146    518.088    532.770    518.088    518.463    518.088
 33.170    526.598    535.654     -9.057    517.826    535.289    517.826    518.189    517.826
 33.270    530.000    539.495     -9.495    517.566    539.139    517.566    517.919    517.566
 33.370    518.000    546.256    -28.256    517.307    545.909    517.307    517.650    517.307
 33.470    541.000    559.961    -18.961    517.049    559.620    517.049    517.384    517.049
 33.570    620.000    588.963     31.037    516.792    588.625    516.792    517.119    516.792
 33.670    653.164    645.879      7.284    516.537    645.538    516.537    516.857    516.537
 33.770    701.303    741.410    -40.107    516.284    741.060    516.284    516.597    516.284
 33.870    873.328    870.801      2.527    516.031    870.440    516.031    516.338    516.031
 33.970    983.000    999.110    -16.110    515.781    998.745    515.781    516.082    515.781
 34.070   1071.000   1061.775      9.225    515.531   1061.425    515.531    515.827    515.531
 34.170    966.000   1015.264    -49.264    515.283   1014.943    515.283    515.574    515.283
 34.270    935.196    893.312     41.884    515.036    893.020    515.036    515.323    515.036
 34.370    757.000    760.788     -3.788    514.791    760.511    514.791    515.074    514.791
 34.470    662.000    658.142      3.858    514.547    657.871    514.547    514.826    514.547
 34.570    566.000    594.490    -28.490    514.304    594.219    514.304    514.580    514.304
 34.670    573.000    560.870     12.130    514.063    560.599    514.063    514.336    514.063
 34.770    543.000    544.511     -1.511    513.824    544.241    513.824    514.094    513.824
 34.870    546.000    536.269      9.731    513.585    536.001    513.585    513.853    513.585
 34.970    531.000    531.481     -0.481    513.349    531.215    513.349    513.614    513.349
 35.070    563.068    528.229     34.839    513.113    527.965    513.113    513.377    513.113
 35.170    483.201    525.793    -42.592    512.880    525.531    512.880    513.142    512.880
 35.270    536.435    523.874     12.562    512.647    523.613    512.647    512.908    512.647
 35.370    523.000    522.319      0.681    512.416    522.060    512.416    512.675    512.416
 35.470    503.000    521.033    -18.033    512.187    520.775    512.187    512.445    512.187
 35.570    478.238    519.950    -41.712    511.959    519.693    511.959    512.216    511.959
 35.670    502.000    519.024    -17.024    511.733    518.768    511.733    511.989    511.733
 35.770    462.000    518.219    -56.219    511.508    517.964    511.508    511.763    511.508
 35.870    493.000    517.513    -24.513    511.285    517.259    511.285    511.539    511.285
 35.970    520.000    516.891      3.109    511.063    516.637    511.063    511.317    511.063
 36.070    493.000    516.336    -23.336    510.843    516.083    510.843    511.096    510.843
 36.170    553.553    515.839     37.715    510.624    515.586    510.624    510.877    510.624
 36.270    500.415    515.391    -14.976    510.407    515.138    510.407    510.660    510.407
 36.370    490.452    514.988    -24.535    510.192    514.735    510.192    510.444    510.192
 36.470    508.188    514.626     -6.438    509.977    514.373    509.977    510.230    509.977
 36.570    504.000    514.305    -10.305    509.765    514.052    509.765    510.018    509.765
 36.670    504.000    514.027    -10.027    509.554    513.774    509.554    509.807    509.554
 36.770    501.000    513.802    -12.802    509.345    513.548    509.345    509.598    509.345
 36.870    493.738    513.655    -19.918    509.137    513.402    509.137    509.391    509.137
 36.970    506.000    513.650     -7.650    508.931    513.396    508.931    509.185    508.931
 37.070    484.000    513.915    -29.915    508.726    513.661    508.726    508.981    508.726
 37.170    544.000    514.664     29.336    508.523    514.409    508.523    508.779    508.523
 37.270    478.114    516.156    -38.042    508.322    515.901    508.322    508.578    508.322
 37.370    477.483    518.564    -41.081    508.122    518.308    508.122    508.380    508.122
 37.470    513.983    521.742     -7.759    507.924    521.485    507.924    508.182    507.924
 37.570    541.171    524.984     16.187    507.727    524.727    507.727    507.987    507.727
 37.670    538.000    527.005     10.995    507.532    526.749    507.532    507.793    507.532
 37.770    553.000    526.744     26.256    507.339    526.488    507.339    507.601    507.339
 37.870    513.861    524.445    -10.583    507.147    524.190    507.147    507.410    507.147
 37.970    549.000    521.243     27.757    506.957    520.989    506.957    507.222    506.957
 38.070    557.051    518.050     39.001    506.769    517.795    506.769    507.035    506.769
 38.170    492.000    515.285    -23.285    506.582    515.027    506.582    506.849    506.582
 38.270    536.737    513.127     23.609    506.397    512.865    506.397    506.666    506.397
 38.370    527.767    511.585     16.181    506.213    511.319    506.213    506.484    506.213
 38.470    542.774    510.543     32.232    506.031    510.273    506.031    506.304    506.031
 38.570    475.000    509.848    -34.848    505.851    509.576    505.851    506.126    505.851
 38.670    520.886    509.371     11.515    505.673    509.096    505.673    505.949    505.673
 38.770    473.717    509.018    -35.301    505.496    508.741    505.496    505.774    505.496
 38.870    525.962    508.733     17.229    505.321    508.453    505.321    505.601    505.321
 38.970    492.000    508.486    -16.486    505.147    508.204    505.147    505.429    505.147
 39.070    519.154    508.264     10.890    504.975    507.980    504.975    505.260    504.975
 39.170    508.000    508.060     -0.060    504.805    507.773    504.805    505.092    504.805
 39.270    504.000    507.869     -3.869    504.636    507.580    504.636    504.926    504.636
 39.370    475.000    507.691    -32.691    504.469    507.400    504.469    504.761    504.469
 39.470    504.000    507.524     -3.524    504.304    507.230    504.304    504.598    504.304
 39.570    485.103    507.366    -22.264    504.140    507.070    504.140    504.438    504.140
 39.670    548.047    507.218     40.829    503.979    506.918    503.979    504.278    503.979
 39.770    476.000    507.078    -31.078    503.818    506.776    503.818    504.121    503.818
 39.870    472.000    506.948    -34.948    503.660    506.642    503.660    503.966    503.660
 39.970    494.661    506.826    -12.165    503.503    506.517    503.503    503.812    503.503
 40.070    466.000    506.713    -40.713    503.348    506.401    503.348    503.660    503.348
 40.170    509.000    506.609      2.391    503.194    506.294    503.194    503.510    503.194
 40.270    497.000    506.516     -9.516    503.043    506.198    503.043    503.361    503.043
 40.370    488.954    506.434    -17.480    502.893    506.112    502.893    503.215    502.893
 40.470    513.409    506.363      7.046    502.744    506.038    502.744    503.070    502.744
 40.570    504.000    506.307     -2.307    502.598    505.978    502.598    502.927    502.598
 40.670    524.000    506.266     17.734    502.453    505.933    502.453    502.786    502.453
 40.770    533.000    506.242     26.758    502.309    505.906    502.309    502.646    502.309
 40.870    496.000    506.239    -10.239    502.168    505.899    502.168    502.509    502.168
 40.970    522.000    506.261     15.739    502.028    505.917    502.028    502.373    502.028
 41.070    487.000    506.313    -19.313    501.890    505.964    501.890    502.239    501.890
 41.170    512.000    506.402      5.598    501.753    506.048    501.753    502.107    501.753
 41.270    525.000    506.536     18.464    501.618    506.178    501.618    501.977    501.618
 41.370    533.000    506.727     26.273    501.485    506.365    501.485    501.849    501.485
 41.470    547.992    506.995     40.997    501.354    506.628    501.354    501.722    501.354
 41.570    541.000    507.366     33.634    501.224    506.994    501.224    501.598    501.224
 41.670    489.000    507.895    -18.895    501.096    507.518    501.096    501.475    501.096
 41.770    550.018    508.699     41.318    500.970    508.317    500.970    501.354    500.970
 41.870    483.000    510.054    -27.054    500.845    509.667    500.845    501.235    500.845
 41.970    507.263    512.556     -5.293    500.722    512.164    500.722    501.118    500.722
 42.070    551.000    517.321     33.679    500.601    516.926    500.601    501.003    500.601
 42.170    490.000    526.022    -36.022    500.481    525.624    500.481    500.890    500.481
 42.270    501.000    540.435    -39.435    500.364    540.038    500.364    500.778    500.364
 42.370    584.000    561.317     22.683    500.248    560.923    500.248    500.669    500.248
 42.470    572.102    586.815    -14.713    500.133    586.427    500.133    500.561    500.133
 42.570    582.000    611.113    -29.113    500.020    610.731    500.020    500.456    500.020
 42.670    621.059    624.955     -3.896    499.909    624.576    499.909    500.352    499.909
 42.770    579.670    621.314    -41.645    499.800    620.929    499.800    500.251    499.800
 42.870    571.000    602.263    -31.263    499.692    601.861    499.692    500.151    499.692
 42.970    558.000    576.549    -18.549    499.586    576.126    499.586    500.054    499.586
 43.070    526.000    552.305    -26.305    499.482    551.860    499.482    499.958    499.482
 43.170    551.777    533.733     18.045    499.380    533.267    499.380    499.865    499.380
 43.270    499.255    521.518    -22.263    499.279    521.035    499.279    499.773    499.279
 43.370    540.000    514.367     25.633    499.180    513.870    499.180    499.684    499.180
 43.470    524.000    510.467     13.533    499.082    509.957    499.082    499.597    499.082
 43.570    486.640    508.349    -21.709    498.986    507.827    498.986    499.512    498.986
 43.670    478.469    507.113    -28.644    498.892    506.579    498.892    499.429    498.892
 43.770    511.037    506.305      4.732    498.800    505.758    498.800    499.348    498.800
 43.870    493.879    505.720    -11.841    498.709    505.161    498.709    499.269    498.709
 43.970    493.000    505.271    -12.271    498.620    504.699    498.620    499.193    498.620
 44.070    499.559    504.917     -5.357    498.532    504.331    498.532    499.119    498.532
 44.170    495.000    504.633     -9.633    498.447    504.033    498.447    499.047    498.447
 44.270    525.000    504.405     20.595    498.362    503.790    498.362    498.978    498.362
 44.370    469.000    504.221    -35.221    498.280    503.591    498.280    498.911    498.280
 44.470    515.000    504.075     10.925    498.199    503.428    498.199    498.847    498.199
 44.570    476.000    503.960    -27.960    498.120    503.296    498.120    498.785    498.120
 44.670    539.752    503.872     35.880    498.043    503.190    498.043    498.725    498.043
 44.770    477.839    503.808    -25.970    497.967    503.107    497.967    498.668    497.967
 44.870    470.000    503.766    -33.766    497.893    503.045    497.893    498.614    497.893
 44.970    530.505    503.744     26.761    497.820    503.001    497.820    498.563    497.820
 45.070    527.000    503.741     23.259    497.749    502.975    497.749    498.515    497.749
 45.170    485.000    503.755    -18.755    497.680    502.966    497.680    498.470    497.680
 45.270    531.000    503.788     27.212    497.613    502.973    497.613    498.428    497.613
 45.370    510.000    503.839      6.161    497.547    502.996    497.547    498.389    497.547
 45.470    520.000    503.907     16.093    497.482    503.036    497.482    498.353    497.482
 45.570    530.000    503.995     26.005    497.420    503.093    497.420    498.322    497.420
 45.670    522.000    504.103     17.897    497.359    503.168    497.359    498.294    497.359
 45.770    485.000    504.232    -19.232    497.299    503.262    497.299    498.269    497.299
 45.870    531.099    504.385     26.715    497.242    503.376    497.242    498.250    497.242
 45.970    483.000    504.563    -21.563    497.185    503.514    497.185    498.234    497.185
 46.070    542.000    504.769     37.231    497.131    503.676    497.131    498.223    497.131
 46.170    498.000    505.009     -7.009    497.078    503.868    497.078    498.218    497.078
 46.270    521.000    505.285     15.715    497.027    504.093    497.027    498.218    497.027
 46.370    527.000    505.606     21.394    496.977    504.358    496.977    498.224    496.977
 46.470    515.761    505.978      9.782    496.929    504.669    496.929    498.237    496.929
 46.570    482.000    506.415    -24.415    496.882    505.039    496.882    498.256    496.882
 46.670    506.000    506.933     -0.933    496.837    505.485    496.837    498.284    496.837
 46.770    461.000    507.566    -46.566    496.794    506.037    496.794    498.320    496.794
 46.870    499.000    508.379     -9.379    496.752    506.762    496.752    498.367    496.752
 46.970    512.000    509.517      2.483    496.712    507.802    496.712    498.424    496.712
 47.070    467.000    511.270    -44.270    496.673    509.447    496.673    498.493    496.673
 47.170    473.837    514.166    -40.329    496.636    512.220    496.636    498.576    496.636
 47.270    520.000    518.997      1.003    496.600    516.913    496.600    498.675    496.600
 47.370    537.000    526.684     10.316    496.566    524.443    496.566    498.793    496.566
 47.470    579.198    537.910     41.288    496.534    535.489    496.534    498.932    496.534
 47.570    551.000    552.443     -1.443    496.503    549.817    496.503    499.095    496.503
 47.670    596.000    568.529     27.471    496.474    565.669    496.474    499.289    496.474
 47.770    592.000    582.503      9.497    496.446    579.378    496.446    499.518    496.446
 47.870    640.000    589.543     50.457    496.420    586.115    496.420    499.791    496.420
 47.970    559.000    586.800    -27.800    496.395    583.024    496.395    500.118    496.395
 48.070    608.878    576.180     32.699    496.372    571.991    496.372    500.517    496.372
 48.170    534.000    562.380    -28.380    496.350    557.686    496.350    501.012    496.350
 48.270    570.000    549.531     20.469    496.330    544.201    496.330    501.638    496.330
 48.370    566.396    539.952     26.444    496.311    533.800    496.311    502.449    496.311
 48.470    540.000    534.327      5.673    496.294    527.088    496.294    503.523    496.294
 48.570    599.000    532.319     66.681    496.278    523.625    496.278    504.967    496.278
 48.670    528.000    533.228     -5.228    496.264    522.572    496.264    506.915    496.264
 48.770    521.000    536.448    -15.448    496.251    523.166    496.251    509.529    496.251
 48.870    548.000    541.662      6.338    496.240    524.923    496.240    512.975    496.240
 48.970    552.872    548.835      4.037    496.230    527.667    496.230    517.394    496.230
 49.070    595.436    558.181     37.255    496.221    531.541    496.221    522.857    496.221
 49.170    562.000    570.279     -8.279    496.215    537.205    496.215    529.283    496.215
 49.270    563.000    586.646    -23.646    496.209    546.509    496.209    536.337    496.209
 49.370    610.000    611.178     -1.178    496.205    564.085    496.205    543.285    496.205
 49.470    618.757    652.790    -34.033    496.203    600.049    496.203    548.919    496.203
 49.570    743.000    728.628     14.372    496.201    672.951    496.201    551.834    496.201
 49.670    871.000    864.800      6.200    496.202    809.787    496.202    551.137    496.202
 49.770   1092.184   1089.243      2.941    496.203   1038.258    496.203    547.068    496.203
 49.870   1451.000   1413.516     37.484    496.207   1368.753    496.207    540.809    496.207
 49.970   1854.413   1809.338     45.075    496.211   1771.635    496.211    533.741    496.211
 50.070   2214.311   2194.844     19.467    496.217   2164.032    496.217    526.890    496.217
 50.170   2441.000   2448.840     -7.840    496.224   2424.189    496.224    520.827    496.224
 50.270   2434.000   2468.132    -34.132    496.233   2448.656    496.233    515.777    496.233
 50.370   2206.000   2242.343    -36.343    496.243   2226.988    496.243    511.755    496.243
 50.470   1931.944   1863.904     68.040    496.255   1851.691    496.255    508.658    496.255
 50.570   1415.000   1457.974    -42.974    496.267   1448.084    496.267    506.332    496.267
 50.670   1074.000   1116.786    -42.786    496.282   1108.594    496.282    504.610    496.282
 50.770    854.000    878.601    -24.601    496.297    871.655    496.297    503.339    496.297
 50.870    690.729    737.304    -46.575    496.314    731.288    496.314    502.394    496.314
 50.970    701.000    664.557     36.443    496.332    659.256    496.332    501.681    496.332
 51.070    629.000    629.672     -0.672    496.352    624.932    496.352    501.131    496.352
 51.170    635.000    610.333     24.667    496.373    606.041    496.373    500.697    496.373
 51.270    599.000    595.075      3.925    496.395    591.148    496.395    500.350    496.395
 51.370    596.000    580.565     15.435    496.418    576.939    496.418    500.067    496.418
 51.470    587.038    567.160     19.878    496.443    563.785    496.443    499.835    496.443
 51.570    546.000    555.878     -9.878    496.469    552.715    496.469    499.644    496.469
 51.670    608.000    547.295     60.705    496.496    544.314    496.496    499.487    496.496
 51.770    558.000    541.409     16.591    496.525    538.583    496.525    499.357    496.525
 51.870    543.000    537.825      5.175    496.555    535.133    496.555    499.252    496.555
 51.970    502.000    536.020    -34.020    496.586    533.443    496.586    499.167    496.586
 52.070    478.000    535.547    -57.547    496.619    533.068    496.619    499.101    496.619
 52.170    543.791    536.146      7.645    496.652    533.751    496.652    499.050    496.652
 52.270    550.140    537.791     12.349    496.687    535.466    496.687    499.013    496.687
 52.370    544.000    540.759      3.241    496.723    538.496    496.723    498.989    496.723
 52.470    568.793    545.818     22.975    496.761    543.604    496.761    498.976    496.761
 52.570    579.000    554.559     24.441    496.799    552.386    496.799    498.973    496.799
 52.670    551.437    569.851    -18.414    496.839    567.711    496.839    498.979    496.839
 52.770    598.675    596.164      2.510    496.880    594.049    496.880    498.994    496.880
 52.870    627.179    639.295    -12.117    496.922    637.198    496.922    499.017    496.922
 52.970    753.666    704.972     48.694    496.966    702.886    496.966    499.047    496.966
 53.070    824.000    796.149     27.851    497.010    794.070    497.010    499.085    497.010
 53.170    934.000    909.504     24.496    497.056    907.427    497.056    499.130    497.056
 53.270   1088.000   1032.163     55.837    497.103   1030.085    497.103    499.181    497.103
 53.370   1142.000   1140.139      1.861    497.151   1138.060    497.151    499.238    497.151
 53.470   1212.352   1202.482      9.870    497.200   1200.400    497.200    499.302    497.200
 53.570   1189.000   1196.528     -7.528    497.250   1194.439    497.250    499.372    497.250
 53.670   1154.591   1124.904     29.687    497.301   1122.797    497.301    499.448    497.301
 53.770   1048.402   1013.117     35.284    497.354   1010.981    497.354    499.529    497.354
 53.870    863.951    891.475    -27.524    497.408    889.299    497.408    499.618    497.408
 53.970    777.000    782.065     -5.065    497.462    779.842    497.462    499.712    497.462
 54.070    649.000    695.949    -46.949    497.518    693.674    497.518    499.813    497.518
 54.170    633.000    635.142     -2.142    497.575    632.811    497.575    499.920    497.575
 54.270    588.518    595.999     -7.481    497.633    593.606    497.633    500.034    497.633
 54.370    559.939    572.644    -12.705    497.692    570.187    497.692    500.154    497.692
 54.470    584.000    559.461     24.539    497.752    556.934    497.752    500.283    497.752
 54.570    518.865    552.263    -33.397    497.813    549.660    497.813    500.419    497.813
 54.670    558.000    548.421      9.579    497.875    545.736    497.875    500.563    497.875
 54.770    575.000    546.495     28.505    497.939    543.720    497.939    500.715    497.939
 54.870    519.000    545.775    -26.775    498.003    542.903    498.003    500.877    498.003
 54.970    541.000    545.943     -4.943    498.068    542.964    498.068    501.049    498.068
 55.070    596.000    546.873     49.127    498.134    543.778    498.134    501.231    498.134
 55.170    506.914    548.538    -41.624    498.201    545.316    498.201    501.424    498.201
 55.270    531.882    550.972    -19.089    498.270    547.612    498.270    501.630    498.270
 55.370    569.000    554.268     14.732    498.339    550.758    498.339    501.850    498.339
 55.470    533.533    558.613    -25.080    498.409    554.938    498.409    502.085    498.409
 55.570    603.750    564.368     39.383    498.480    560.513    498.480    502.335    498.480
 55.670    597.000    572.297     24.703    498.552    568.245    498.552    502.604    498.552
 55.770    608.000    584.026     23.974    498.625    579.757    498.625    502.893    498.625
 55.870    604.208    602.896      1.312    498.699    598.388    498.699    503.204    498.699
 55.970    650.952    635.213     15.739    498.774    630.441    498.774    503.540    498.774
 56.070    695.768    691.575      4.193    498.849    686.508    498.849    503.904    498.849
 56.170    797.803    787.292     10.511    498.926    781.895    498.926    504.300    498.926
 56.270    981.200    940.417     40.783    499.003    934.653    499.003    504.731    499.003
 56.370   1212.960   1166.094     46.865    499.082   1159.922    499.082    505.203    499.082
 56.470   1498.000   1467.497     30.503    499.161   1460.877    499.161    505.722    499.161
 56.570   1800.270   1825.920    -25.651    499.241   1818.812    499.241    506.295    499.241
 56.670   2261.594   2193.854     67.739    499.322   2186.219    499.322    506.931    499.322
 56.770   2587.043   2495.649     91.394    499.404   2487.441    499.404    507.640    499.404
 56.870   2548.000   2645.768    -97.768    499.486   2636.927    499.486    508.435    499.486
 56.970   2609.000   2592.977     16.023    499.570   2583.401    499.570    509.334    499.570
 57.070   2379.000   2357.613     21.387    499.654   2347.146    499.654    510.361    499.654
 57.170   1966.172   2014.848    -48.676    499.739   2003.291    499.739    511.546    499.739
 57.270   1584.748   1648.177    -63.429    499.825   1635.289    499.825    512.938    499.825
 57.370   1256.639   1319.370    -62.731    499.912   1304.858    499.912    514.604    499.912
 57.470   1086.000   1060.688     25.312    499.999   1044.173    499.999    516.646    499.999
 57.570    826.406    878.738    -52.332    500.087    859.705    500.087    519.209    500.087
 57.670    820.000    763.531     56.469    500.176    741.262    500.176    522.499    500.176
 57.770    727.022    698.511     28.512    500.266    672.014    500.266    526.792    500.266
 57.870    704.966    668.188     36.778    500.356    636.116    500.356    532.441    500.356
 57.970    646.438    661.982    -15.544    500.447    622.568    500.447    539.863    500.447
 58.070    626.059    674.820    -48.761    500.539    625.845    500.539    549.506    500.539
 58.170    712.000    705.825      6.175    500.631    644.639    500.631    561.799    500.631
 58.270    774.000    756.194     17.806    500.725    679.823    500.725    577.066    500.725
 58.370    827.000    826.945      0.055    500.819    732.308    500.819    595.416    500.819
 58.470    808.000    916.907   -108.907    500.913    801.170    500.913    616.603    500.913
 58.570    996.000   1021.204    -25.204    501.008    882.345    501.008    639.817    501.008
 58.670   1132.235   1130.700      1.535    501.104    968.345    501.104    663.413    501.104
 58.770   1273.475   1233.370     40.105    501.201   1049.865    501.201    684.670    501.201
 58.870   1279.000   1317.226    -38.226    501.298   1118.538    501.298    699.966    501.298
 58.970   1356.000   1372.147    -16.147    501.395   1167.685    501.395    705.856    501.395
 59.070   1494.000   1390.297    103.703    501.494   1190.987    501.494    700.822    501.494
 59.170   1378.000   1369.207      8.793    501.593   1184.606    501.593    686.226    501.593
 59.270   1391.000   1316.001     74.999    501.692   1152.282    501.692    665.444    501.692
 59.370   1296.000   1246.242     49.758    501.792   1105.934    501.792    642.122    501.792
 59.470   1113.486   1177.685    -64.199    501.893   1060.533    501.893    619.041    501.893
 59.570   1172.920   1126.212     46.708    501.994   1030.258    501.994    597.909    501.994
 59.670   1168.000   1105.645     62.355    502.096   1028.077    502.096    579.580    502.096
 59.770   1117.234   1126.471     -9.237    502.198   1064.204    502.198    564.330    502.198
 59.870   1248.000   1191.349     56.651    502.301   1141.390    502.301    552.069    502.301
 59.970   1353.000   1290.857     62.143    502.405   1250.537    502.405    542.483    502.405
 60.070   1499.000   1402.432     96.568    502.509   1369.513    502.509    535.148    502.509
 60.170   1462.684   1493.134    -30.449    502.613   1465.839    502.613    529.617    502.613
 60.270   1541.346   1528.455     12.891    502.718   1505.434    502.718    525.470    502.718
 60.370   1482.000   1488.417     -6.417    502.823   1468.668    502.823    522.353    502.823
 60.470   1432.428   1379.513     52.915    502.929   1362.299    502.929    519.987    502.929
 60.570   1247.000   1228.609     18.391    503.035   1213.382    503.035    518.164    503.035
 60.670   1040.000   1067.130    -27.130    503.142   1053.479    503.142    516.739    503.142
 60.770    966.654    920.020     46.634    503.249    907.630    503.249    515.613    503.249
 60.870    786.176    801.825    -15.649    503.356    790.449    503.356    514.722    503.356
 60.970    676.000    717.225    -41.225    503.464    706.662    503.464    514.021    503.464
 61.070    634.000    664.123    -30.123    503.573    654.206    503.573    513.483    503.573
 61.170    621.000    637.719    -16.719    503.681    628.301    503.681    513.086    503.681
 61.270    633.000    634.015     -1.015    503.791    624.971    503.791    512.813    503.791
 61.370    687.000    651.822     35.178    503.900    643.044    503.900    512.645    503.900
 61.470    732.690    692.950     39.740    504.010    684.348    504.010    512.560    504.010
 61.570    786.074    760.729     25.345    504.120    752.244    504.120    512.530    504.120
 61.670    895.000    857.274     37.726    504.231    848.885    504.231    512.515    504.231
 61.770    971.000    980.200     -9.200    504.341    971.939    504.341    512.468    504.341
 61.870   1082.000   1119.815    -37.815    504.453   1111.760    504.453    512.345    504.453
 61.970   1270.000   1257.777     12.223    504.564   1250.040    504.564    512.122    504.564
 62.070   1354.000   1368.337    -14.337    504.676   1361.031    504.676    511.805    504.676
 62.170   1413.477   1424.411    -10.934    504.788   1417.619    504.788    511.425    504.788
 62.270   1472.240   1409.590     62.650    504.900   1403.353    504.900    511.022    504.900
 62.370   1316.000   1328.148    -12.148    505.013   1322.462    505.013    510.628    505.013
 62.470   1258.945   1202.032     56.912    505.125   1196.859    505.125    510.265    505.125
 62.570   1036.741   1058.722    -21.981    505.238   1054.005    505.238    509.947    505.238
 62.670    933.362    921.405     11.957    505.352    917.084    505.352    509.679    505.352
 62.770    839.901    804.946     34.955    505.465    800.963    505.465    509.460    505.465
 62.870    672.000    715.632    -43.632    505.579    711.934    505.579    509.287    505.579
 62.970    622.000    652.960    -30.960    505.693    649.503    505.693    509.156    505.693
 63.070    596.000    612.394    -16.394    505.807    609.143    505.807    509.061    505.807
 63.170    633.000    588.060     44.940    505.921    584.985    505.921    508.996    505.921
 63.270    621.000    574.649     46.351    506.036    571.726    506.036    508.956    506.036
 63.370    566.975    568.355     -1.380    506.150    565.564    506.150    508.935    506.150
 63.470    590.000    567.077     22.923    506.265    564.404    506.265    508.931    506.265
 63.570    604.000    570.258     33.742    506.380    567.688    506.380    508.940    506.380
 63.670    589.000    578.612     10.388    506.495    576.132    506.495    508.959    506.495
 63.770    671.000    593.822     77.178    506.610    591.422    506.610    508.988    506.610
 63.870    632.582    618.138     14.443    506.725    615.807    506.725    509.024    506.725
 63.970    671.000    653.755     17.245    506.840    651.483    506.840    509.067    506.840
 64.070    700.121    701.955     -1.834    506.956    699.732    506.956    509.116    506.956
 64.170    799.000    762.110     36.890    507.071    759.928    507.071    509.170    507.071
 64.270    851.000    830.756     20.244    507.186    828.610    507.186    509.229    507.186
 64.370    921.000    901.004     19.996    507.302    898.894    507.302    509.292    507.302
 64.470    905.001    962.768    -57.767    507.417    960.698    507.417    509.360    507.417
 64.570   1029.311   1004.860     24.451    507.533   1002.836    507.533    509.431    507.533
 64.670    971.638   1019.267    -47.629    507.649   1017.298    507.649    509.505    507.649
 64.770   1053.867   1004.670     49.198    507.764   1002.761    507.764    509.583    507.764
 64.870    976.061    966.066      9.995    507.880    964.219    507.880    509.663    507.880
 64.970    946.397    912.071     34.326    507.995    910.283    507.995    509.747    507.995
 65.070    871.000    852.103     18.897    508.111    850.368    508.111    509.832    508.111
 65.170    815.000    793.918     21.082    508.226    792.229    508.226    509.921    508.226
 65.270    747.000    742.192      4.808    508.342    740.539    508.342    510.011    508.342
 65.370    706.000    698.646      7.354    508.457    697.022    508.457    510.104    508.457
 65.470    648.000    663.200    -15.200    508.572    661.597    508.572    510.199    508.572
 65.570    655.000    635.085     19.915    508.688    633.498    508.688    510.296    508.688
 65.670    619.000    613.341      5.659    508.803    611.766    508.803    510.395    508.803
 65.770    555.000    596.938    -41.938    508.918    595.373    508.918    510.496    508.918
 65.870    560.000    584.896    -24.896    509.033    583.338    509.033    510.598    509.033
 65.970    551.000    576.373    -25.373    509.147    574.823    509.147    510.702    509.147
 66.070    534.000    570.702    -36.702    509.262    569.159    509.262    510.808    509.262
 66.170    549.000    567.365    -18.365    509.376    565.827    509.376    510.915    509.376
 66.270    585.000    565.964     19.036    509.491    564.431    509.491    511.024    509.491
 66.370    553.000    566.218    -13.218    509.605    564.688    509.605    511.135    509.605
 66.470    605.000    567.992     37.008    509.719    566.464    509.719    511.247    509.719
 66.570    582.703    571.374     11.330    509.833    569.846    509.833    511.361    509.833
 66.670    574.000    576.803     -2.803    509.946    575.274    509.946    511.476    509.946
 66.770    586.000    585.297      0.703    510.060    583.764    510.060    511.593    510.060
 66.870    641.000    598.788     42.212    510.173    597.249    510.173    511.711    510.173
 66.970    596.000    620.564    -24.564    510.286    619.017    510.286    511.831    510.286
 67.070    653.000    655.698     -2.698    510.398    654.139    510.398    511.953    510.398
 67.170    677.556    711.232    -33.676    510.511    709.658    510.511    512.076    510.511
 67.270    763.000    795.765    -32.765    510.623    794.174    510.623    512.201    510.623
 67.370    894.142    918.109    -23.967    510.735    916.499    510.735    512.328    510.735
 67.470   1102.000   1084.865     17.135    510.846   1083.238    510.846    512.457    510.846
 67.570   1261.000   1297.204    -36.204    510.958   1295.564    510.958    512.587    510.958
 67.670   1603.000   1547.576     55.424    511.069   1545.932    511.069    512.720    511.069
 67.770   1846.253   1817.285     28.968    511.179   1815.647    511.179    512.855    511.179
 67.870   1993.230   2075.798    -82.568    511.290   2074.181    511.290    512.992    511.290
 67.970   2296.000   2283.137     12.863    511.400   2281.552    511.400    513.131    511.400
 68.070   2453.787   2398.169     55.618    511.509   2396.621    511.509    513.273    511.509
 68.170   2471.000   2393.946     77.054    511.619   2392.422    511.619    513.418    511.619
 68.270   2335.000   2271.608     63.392    511.728   2270.083    511.728    513.566    511.728
 68.370   2229.000   2059.694    169.306    511.836   2058.133    511.836    513.717    511.836
 68.470   1827.113   1799.638     27.475    511.944   1798.011    511.944    513.871    511.944
 68.570   1470.000   1530.899    -60.899    512.052   1529.182    512.052    514.029    512.052
 68.670   1335.342   1283.193     52.149    512.159   1281.373    512.159    514.192    512.159
 68.770   1023.000   1074.379    -51.379    512.266   1072.450    512.266    514.358    512.266
 68.870    916.900    911.299      5.602    512.373    909.260    512.373    514.530    512.373
 68.970    815.000    792.288     22.712    512.479    790.142    512.479    514.707    512.479
 69.070    711.000    710.494      0.506    512.585    708.244    512.585    514.889    512.585
 69.170    686.000    657.056     28.944    512.690    654.703    512.690    515.079    512.690
 69.270    628.000    623.449      4.551    512.794    620.992    512.794    515.275    512.794
 69.370    596.000    602.756     -6.756    512.899    600.190    512.899    515.479    512.899
 69.470    591.000    590.014      0.986    513.002    587.335    513.002    515.693    513.002
 69.570    610.000    582.006     27.994    513.106    579.203    513.106    515.916    513.106
 69.670    550.610    576.808    -26.198    513.208    573.872    513.208    516.150    513.208
 69.770    552.390    573.348    -20.958    513.310    570.265    513.310    516.397    513.310
 69.870    560.000    571.060    -11.060    513.412    567.817    513.412    516.657    513.412
 69.970    574.000    569.659      4.341    513.513    566.240    513.513    516.934    513.513
 70.070    568.000    569.014     -1.014    513.614    565.400    513.614    517.229    513.614
 70.170    584.000    569.086     14.914    513.714    565.256    513.714    517.544    513.714
 70.270    551.000    569.914    -18.914    513.813    565.843    513.813    517.883    513.813
 70.370    579.000    571.636      7.364    513.912    567.296    513.912    518.249    513.912
 70.470    577.000    574.546      2.454    514.010    569.905    514.010    518.647    514.010
 70.570    600.971    579.207     21.765    514.108    574.226    514.108    519.083    514.108
 70.670    620.000    586.611     33.389    514.205    581.243    514.205    519.564    514.205
 70.770    587.000    598.399    -11.399    514.302    592.587    514.302    520.101    514.302
 70.870    653.000    617.090     35.910    514.397    610.760    514.397    520.707    514.397
 70.970    651.000    646.247      4.753    514.493    639.304    514.493    521.406    514.493
 71.070    684.921    690.433     -5.511    514.587    682.747    514.587    522.228    514.587
 71.170    687.000    754.803    -67.803    514.681    746.200    514.681    523.220    514.681
 71.270    846.000    844.217      1.783    514.774    834.453    514.774    524.450    514.774
 71.370    959.000    961.861     -2.861    514.867    950.598    514.867    526.013    514.867
 71.470   1092.251   1107.592    -15.342    514.958   1094.362    514.958    528.041    514.958
 71.570   1306.000   1276.357     29.643    515.050   1260.527    515.050    530.704    515.050
 71.670   1493.065   1457.093     35.972    515.140   1437.823    515.140    534.212    515.140
 71.770   1657.672   1632.463     25.209    515.230   1608.678    515.230    538.805    515.230
 71.870   1829.000   1779.985     49.015    515.319   1750.359    515.319    544.738    515.319
 71.970   1868.000   1875.793     -7.793    515.407   1838.769    515.407    552.246    515.407
 72.070   1847.000   1902.001    -55.001    515.495   1855.842    515.495    561.502    515.495
 72.170   1806.000   1854.768    -48.768    515.581   1797.667    515.581    572.570    515.581
 72.270   1691.003   1746.400    -55.397    515.667   1676.655    515.667    585.337    515.667
 72.370   1576.390   1599.138    -22.749    515.753   1515.385    515.753    599.460    515.753
 72.470   1500.566   1436.470     64.096    515.837   1337.993    515.837    614.290    515.837
 72.570   1244.000   1277.536    -33.536    515.921   1164.642    515.921    628.804    515.921
 72.670   1050.000   1135.010    -85.010    516.004   1009.427    516.004    641.584    516.004
 72.770   1048.149   1015.005     33.144    516.086    880.146    516.086    650.944    516.086
 72.870    857.000    918.264    -61.264    516.167    779.088    516.167    655.343    516.167
 72.970    777.000    842.160    -65.160    516.248    704.445    516.248    653.961    516.248
 73.070    776.000    782.766     -6.766    516.327    652.001    516.327    647.091    516.327
 73.170    716.000    736.245    -20.245    516.406    616.662    516.406    635.986    516.406
 73.270    651.416    699.429    -48.014    516.484    593.592    516.484    622.319    516.484
 73.370    628.140    669.931    -41.790    516.561    578.824    516.561    607.666    516.561
 73.470    626.000    646.071    -20.071    516.637    569.458    516.637    593.249    516.637
 73.570    614.000    626.754    -12.754    516.713    563.568    516.713    579.900    516.713
 73.670    578.000    611.297    -33.297    516.787    559.981    516.787    568.107    516.787
 73.770    574.355    599.260    -24.905    516.861    558.035    516.861    558.091    516.861
 73.870    635.000    590.298     44.702    516.933    557.370    516.933    549.871    516.933
 73.970    579.726    584.069     -4.342    517.005    557.764    517.005    543.324    517.005
 74.070    648.000    580.170     67.830    517.076    559.026    517.076    538.238    517.076
 74.170    538.114    578.120    -40.006    517.146    560.924    517.146    534.366    517.146
 74.270    622.279    577.358     44.921    517.215    563.146    517.215    531.457    517.215
 74.370    599.000    577.257     21.743    517.283    565.292    517.283    529.285    517.283
 74.470    587.000    577.165      9.835    517.350    566.899    517.350    527.657    517.350
 74.570    645.000    576.490     68.510    517.416    567.524    517.416    526.425    517.416
 74.670    562.697    574.843    -12.146    517.481    566.892    517.481    525.475    517.481
 74.770    579.651    572.153      7.497    517.545    565.014    517.545    524.727    517.545
 74.870    651.000    568.668     82.332    517.609    562.191    517.609    524.123    517.609
 74.970    531.926    564.826    -32.900    517.671    558.904    517.671    523.626    517.671
 75.070    566.000    561.133      4.867    517.732    555.683    517.732    523.208    517.732
 75.170    599.000    558.088     40.912    517.792    553.048    517.792    522.852    517.792
 75.270    567.000    556.173     10.827    517.851    551.493    517.851    522.545    517.851
 75.370    591.000    555.870     35.130    517.909    551.508    517.909    522.280    517.909
 75.470    520.617    557.671    -37.054    517.967    553.591    517.967    522.048    517.967
 75.570    565.000    562.078      2.922    518.023    558.251    518.023    521.845    518.023
 75.670    569.000    569.571     -0.571    518.078    565.971    518.078    521.668    518.078
 75.770    543.865    580.527    -36.662    518.132    577.130    518.132    521.511    518.132
 75.870    552.106    595.093    -42.987    518.185    591.879    518.185    521.374    518.185
 75.970    620.000    613.048      6.952    518.237    609.999    518.237    521.252    518.237
 76.070    660.000    633.665     26.335    518.287    630.764    518.287    521.145    518.287
 76.170    673.000    655.619     17.381    518.337    652.855    518.337    521.051    518.337
 76.270    716.375    676.974     39.401    518.386    674.335    518.386    520.967    518.386
 76.370    758.000    695.265     62.735    518.433    692.742    518.433    520.893    518.433
 76.470    724.000    707.808     16.192    518.480    705.395    518.480    520.828    518.480
 76.570    747.000    712.358     34.642    518.525    710.050    518.525    520.771    518.525
 76.670    669.000    707.968    -38.968    518.569    705.761    518.569    520.719    518.569
 76.770    727.000    695.445     31.555    518.612    693.334    518.612    520.674    518.612
 76.870    688.142    676.947     11.195    518.654    674.927    518.654    520.635    518.654
 76.970    623.000    655.133    -32.133    518.695    653.197    518.695    520.600    518.695
 77.070    575.000    632.475    -57.475    518.735    630.617    518.735    520.569    518.735
 77.170    596.000    610.927    -14.927    518.773    609.141    518.773    520.543    518.773
 77.270    564.000    591.815    -27.815    518.810    590.095    518.810    520.519    518.810
 77.370    570.025    575.849     -5.824    518.847    574.190    518.847    520.498    518.847
 77.470    523.000    563.206    -40.206    518.882    561.602    518.882    520.480    518.882
 77.570    532.000    553.666    -21.666    518.916    552.114    518.916    520.465    518.916
 77.670    556.135    546.770      9.365    518.948    545.265    518.948    520.451    518.948
 77.770    582.465    541.963     40.502    518.980    540.502    518.980    520.439    518.980
 77.870    542.000    538.705      3.295    519.010    537.285    519.010    520.428    519.010
 77.970    513.000    536.533    -23.533    519.039    535.152    519.039    520.419    519.039
 78.070    522.000    535.093    -13.093    519.067    533.747    519.067    520.412    519.067
 78.170    522.000    534.129    -12.129    519.093    532.816    519.093    520.405    519.093
 78.270    539.015    533.456      5.558    519.119    532.175    519.119    520.399    519.119
 78.370    557.103    532.985     24.118    519.143    531.733    519.143    520.394    519.143
 78.470    517.095    532.686    -15.591    519.166    531.461    519.166    520.390    519.166
 78.570    487.000    532.511    -45.511    519.188    531.312    519.188    520.386    519.188
 78.670    467.000    532.450    -65.450    519.208    531.274    519.208    520.383    519.208
 78.770    495.000    532.508    -37.508    519.227    531.353    519.227    520.381    519.227
 78.870    549.924    532.701     17.223    519.245    531.565    519.245    520.380    519.245
 78.970    482.000    533.050    -51.050    519.262    531.930    519.262    520.380    519.262
 79.070    491.000    533.580    -42.580    519.277    532.475    519.277    520.381    519.277
 79.170    507.352    534.319    -26.968    519.291    533.226    519.291    520.383    519.291
 79.270    535.000    535.294     -0.294    519.304    534.208    519.304    520.387    519.304
 79.370    514.051    536.531    -22.480    519.316    535.450    519.316    520.394    519.316
 79.470    525.267    538.060    -12.794    519.326    536.980    519.326    520.402    519.326
 79.570    544.000    539.923      4.077    519.335    538.840    519.335    520.414    519.335
 79.670    529.503    542.182    -12.678    519.343    541.091    519.343    520.428    519.343
 79.770    506.000    544.936    -38.936    519.349    543.834    519.349    520.446    519.349
 79.870    535.000    548.338    -13.338    519.354    547.220    519.354    520.466    519.354
 79.970    579.000    552.622     26.378    519.358    551.485    519.358    520.489    519.358
 80.070    536.000    558.110    -22.110    519.360    556.952    519.360    520.515    519.360
 80.170    530.000    565.217    -35.217    519.361    564.035    519.361    520.541    519.361
 80.270    587.595    574.397     13.198    519.361    573.191    519.361    520.566    519.361
 80.370    554.000    586.054    -32.054    519.360    584.826    519.360    520.589    519.360
 80.470    548.000    600.433    -52.433    519.357    599.188    519.357    520.606    519.357
 80.570    655.635    617.518     38.117    519.352    616.264    519.352    520.615    519.352
 80.670    633.000    636.958     -3.958    519.347    635.706    519.347    520.612    519.347
 80.770    609.000    658.030    -49.030    519.340    656.792    519.340    520.597    519.340
 80.870    668.058    679.665    -11.607    519.331    678.454    519.331    520.568    519.331
 80.970    654.000    700.562    -46.562    519.322    699.388    519.322    520.529    519.322
 81.070    704.000    719.367    -15.367    519.311    718.237    519.311    520.480    519.311
 81.170    768.000    734.850     33.150    519.298    733.768    519.298    520.426    519.298
 81.270    772.000    746.016     25.984    519.285    744.985    519.285    520.368    519.285
 81.370    708.606    752.184    -43.577    519.269    751.201    519.269    520.309    519.269
 81.470    762.000    753.049      8.951    519.253    752.112    519.253    520.251    519.253
 81.570    717.686    748.701    -31.016    519.235    747.807    519.235    520.195    519.235
 81.670    786.000    739.588     46.412    519.216    738.731    519.216    520.141    519.216
 81.770    658.000    726.497    -68.497    519.195    725.671    519.195    520.089    519.195
 81.870    754.944    710.528     44.416    519.173    709.728    519.173    520.040    519.173
 81.970    652.448    692.943    -40.496    519.149    692.164    519.149    519.994    519.149
 82.070    638.595    674.909    -36.314    519.125    674.147    519.125    519.949    519.125
 82.170    622.000    657.286    -35.286    519.098    656.537    519.098    519.906    519.098
 82.270    634.000    640.574     -6.574    519.071    639.834    519.071    519.864    519.071
 82.370    620.000    625.007     -5.007    519.041    624.274    519.041    519.824    519.041
 82.470    607.000    610.712     -3.712    519.011    609.983    519.011    519.784    519.011
 82.570    626.000    597.821     28.179    518.979    597.095    518.979    519.744    518.979
 82.670    585.000    586.501     -1.501    518.946    585.776    518.946    519.703    518.946
 82.770    530.000    576.923    -46.923    518.911    576.196    518.911    519.663    518.911
 82.870    579.947    569.229     10.718    518.875    568.500    518.875    519.622    518.875
 82.970    555.060    563.519     -8.459    518.837    562.787    518.837    519.580    518.837
 83.070    545.000    559.839    -14.839    518.798    559.104    518.798    519.537    518.798
 83.170    523.000    558.167    -35.167    518.757    557.427    518.757    519.494    518.757
 83.270    568.000    558.390      9.610    518.715    557.646    518.715    519.449    518.715
 83.370    551.240    560.296     -9.056    518.672    559.546    518.672    519.404    518.672
 83.470    573.000    563.558      9.442    518.627    562.803    518.627    519.357    518.627
 83.570    516.000    567.739    -51.739    518.581    566.980    518.581    519.310    518.581
 83.670    544.000    572.306    -28.306    518.533    571.542    518.533    519.261    518.533
 83.770    613.658    576.653     37.006    518.484    575.884    518.484    519.211    518.484
 83.870    579.130    580.148     -1.018    518.434    579.377    518.434    519.160    518.434
 83.970    542.000    582.219    -40.219    518.382    581.447    518.382    519.108    518.382
 84.070    567.000    582.462    -15.462    518.328    581.691    518.328    519.055    518.328
 84.170    590.000    580.751      9.249    518.273    579.982    518.273    519.000    518.273
 84.270    601.568    577.265     24.303    518.217    576.499    518.217    518.945    518.217
 84.370    602.685    572.415     30.270    518.159    571.652    518.159    518.888    518.159
 84.470    522.759    566.716    -43.957    518.100    565.958    518.100    518.830    518.100
 84.570    603.650    560.684     42.966    518.039    559.929    518.039    518.770    518.039
 84.670    556.736    554.761      1.975    517.977    554.009    517.977    518.710    517.977
 84.770    550.000    549.290      0.710    517.913    548.540    517.913    518.648    517.913
 84.870    549.293    544.499      4.794    517.848    543.750    517.848    518.586    517.848
 84.970    541.000    540.505      0.495    517.781    539.756    517.781    518.522    517.781
 85.070    515.000    537.332    -22.332    517.713    536.581    517.713    518.456    517.713
 85.170    577.337    534.932     42.405    517.644    534.180    517.644    518.390    517.644
 85.270    563.000    533.219     29.781    517.573    532.464    517.573    518.322    517.573
 85.370    553.000    532.088     20.912    517.501    531.331    517.501    518.254    517.501
 85.470    542.694    531.445     11.248    517.427    530.683    517.427    518.184    517.427
 85.570    504.618    531.216    -26.598    517.351    530.449    517.351    518.112    517.351
 85.670    534.000    531.360      2.640    517.274    530.588    517.274    518.040    517.274
 85.770    553.000    531.877     21.123    517.196    531.099    517.196    517.967    517.196
 85.870    531.000    532.806     -1.806    517.117    532.023    517.117    517.892    517.117
 85.970    531.000    534.233     -3.233    517.035    533.442    517.035    517.816    517.035
 86.070    571.000    536.280     34.720    516.953    535.480    516.953    517.739    516.953
 86.170    539.363    539.099      0.264    516.869    538.290    516.869    517.661    516.869
 86.270    500.015    542.862    -42.847    516.783    542.041    516.783    517.582    516.783
 86.370    546.000    547.738     -1.738    516.696    546.904    516.696    517.502    516.696
 86.470    597.193    553.867     43.326    516.607    553.019    516.607    517.420    516.607
 86.570    554.000    561.328     -7.328    516.518    560.463    516.518    517.338    516.518
 86.670    548.040    570.099    -22.059    516.426    569.216    516.426    517.254    516.426
 86.770    543.822    580.028    -36.206    516.333    579.126    516.333    517.169    516.333
 86.870    575.000    590.802    -15.802    516.239    589.880    516.239    517.084    516.239
 86.970    623.000    601.938     21.062    516.143    600.994    516.143    516.997    516.143
 87.070    635.000    612.780     22.220    516.046    611.816    516.046    516.909    516.046
 87.170    655.000    622.532     32.468    515.947    621.550    515.947    516.821    515.947
 87.270    665.000    630.329     34.671    515.847    629.331    515.847    516.731    515.847
 87.370    670.225    635.367     34.858    515.746    634.356    515.746    516.640    515.746
 87.470    633.802    637.093     -3.291    515.643    636.073    515.643    516.549    515.643
 87.570    666.000    635.366     30.634    515.538    634.341    515.538    516.456    515.538
 87.670    594.000    630.504    -36.504    515.432    629.476    515.432    516.363    515.432
 87.770    577.836    623.183    -45.347    515.325    622.154    515.325    516.269    515.325
 87.870    622.000    614.274      7.726    515.216    613.244    515.216    516.174    515.216
 87.970    661.000    604.697     56.303    515.106    603.665    515.106    516.079    515.106
 88.070    586.307    595.318     -9.011    514.994    594.284    514.994    515.983    514.994
 88.170    600.626    586.892     13.735    514.881    585.853    514.881    515.886    514.881
 88.270    563.360    580.013    -16.653    514.767    578.969    514.767    515.789    514.767
 88.370    610.000    575.099     34.901    514.651    574.047    514.651    515.691    514.651
 88.470    623.000    572.376     50.624    514.533    571.313    514.533    515.592    514.533
 88.570    584.418    571.881     12.537    514.415    570.807    514.415    515.493    514.415
 88.670    574.000    573.474      0.526    514.294    572.387    514.294    515.394    514.294
 88.770    615.529    576.844     38.685    514.173    575.743    514.173    515.295    514.173
 88.870    609.719    581.569     28.150    514.050    580.452    514.050    515.196    514.050
 88.970    605.000    587.099     17.901    513.925    585.964    513.925    515.096    513.925
 89.070    614.000    592.783     21.217    513.800    591.630    513.800    514.997    513.800
 89.170    624.000    597.932     26.068    513.672    596.757    513.672    514.897    513.672
 89.270    621.000    601.864     19.136    513.544    600.665    513.544    514.798    513.544
 89.370    598.668    603.997     -5.329    513.414    602.771    513.414    514.700    513.414
 89.470    602.000    603.955     -1.955    513.282    602.698    513.282    514.602    513.282
 89.570    618.000    601.651     16.349    513.150    600.358    513.150    514.505    513.150
 89.670    592.242    597.295     -5.053    513.016    595.962    513.016    514.409    513.016
 89.770    575.000    591.322    -16.322    512.880    589.944    512.880    514.314    512.880
 89.870    609.000    584.273     24.727    512.743    582.846    512.743    514.221    512.743
 89.970    604.000    576.701     27.299    512.605    575.221    512.605    514.130    512.605
 90.070    547.000    569.099    -22.099    512.465    567.562    512.465    514.041    512.465
 90.170    523.847    561.870    -38.023    512.324    560.272    512.324    513.955    512.324
 90.270    593.655    555.313     38.342    512.182    553.648    512.182    513.872    512.182
 90.370    569.000    549.615     19.385    512.038    547.880    512.038    513.794    512.038
 90.470    523.000    544.866    -21.866    511.893    543.054    511.893    513.721    511.893
 90.570    512.000    541.071    -29.071    511.747    539.175    511.747    513.654    511.747
 90.670    521.000    538.174    -17.174    511.599    536.187    511.599    513.595    511.599
 90.770    511.000    536.085    -25.085    511.450    533.995    511.450    513.546    511.450
 90.870    532.433    534.697     -2.265    511.300    532.490    511.300    513.510    511.300
 90.970    495.417    533.911    -38.494    511.148    531.569    511.148    513.491    511.148
 91.070    541.000    533.646      7.354    510.995    531.149    510.995    513.493    510.995
 91.170    536.000    533.856      2.144    510.841    531.175    510.841    513.521    510.841
 91.270    540.009    534.530      5.479    510.685    531.631    510.685    513.583    510.685
 91.370    521.000    535.702    -14.702    510.529    532.542    510.529    513.686    510.529
 91.470    532.000    537.447     -5.447    510.370    533.973    510.370    513.839    510.370
 91.570    521.000    539.885    -18.885    510.211    536.035    510.211    514.055    510.211
 91.670    549.000    543.174      5.826    510.050    538.873    510.050    514.344    510.050
 91.770    541.000    547.507     -6.507    509.888    542.667    509.888    514.718    509.888
 91.870    555.000    553.100      1.900    509.725    547.620    509.725    515.192    509.725
 91.970    552.000    560.136     -8.136    509.561    553.902    509.561    515.777    509.561
 92.070    611.000    568.890     42.110    509.395    561.779    509.395    516.483    509.395
 92.170    569.000    579.523    -10.523    509.228    571.404    509.228    517.320    509.228
 92.270    587.000    592.127     -5.127    509.060    582.861    509.060    518.292    509.060
 92.370    636.490    606.715     29.775    508.891    596.166    508.891    519.400    508.891
 92.470    587.000    623.192    -36.192    508.720    611.229    508.720    520.636    508.720
 92.570    631.000    641.329    -10.329    508.548    627.834    508.548    521.989    508.548
 92.670    691.000    660.753     30.247    508.375    645.634    508.375    523.434    508.375
 92.770    700.252    680.950     19.302    508.201    664.144    508.201    524.940    508.201
 92.870    720.000    701.276     18.724    508.026    682.769    508.026    526.461    508.026
 92.970    754.000    721.015     32.985    507.849    700.853    507.849    527.936    507.849
 93.070    746.000    739.471      6.529    507.672    717.774    507.672    529.291    507.672
 93.170    764.167    756.091      8.075    507.493    733.065    507.493    530.440    507.493
 93.270    799.000    770.562     28.438    507.313    746.503    507.313    531.292    507.313
 93.370    792.000    782.850      9.150    507.132    758.136    507.132    531.766    507.132
 93.470    831.000    793.136     37.864    506.949    768.204    506.949    531.805    506.949
 93.570    794.749    801.718     -6.969    506.766    777.021    506.766    531.389    506.766
 93.670    812.665    808.956      3.709    506.582    784.922    506.582    530.543    506.582
 93.770    817.000    815.259      1.741    506.396    792.258    506.396    529.327    506.396
 93.870    862.000    821.109     40.891    506.209    799.425    506.209    527.825    506.209
 93.970    821.246    827.063     -5.817    506.022    806.891    506.022    526.129    506.022
 94.070    852.000    833.675     18.325    505.833    815.122    505.833    524.322    505.833
 94.170    842.805    841.346      1.459    505.643    824.449    505.643    522.479    505.643
 94.270    870.000    850.168     19.832    505.452    834.905    505.452    520.657    505.452
 94.370    876.000    859.818     16.182    505.260    846.122    505.260    518.900    505.260
 94.470    898.000    869.537     28.463    505.067    857.311    505.067    517.241    505.067
 94.570    942.000    878.187     63.813    504.873    867.312    504.873    515.701    504.873
 94.670    999.000    884.384    114.616    504.678    874.728    504.678    514.292    504.678
 94.770    928.000    886.698     41.302    504.482    878.125    504.482    513.020    504.482
 94.870    909.000    883.925     25.075    504.285    876.299    504.285    511.884    504.285
 94.970    955.000    875.368     79.632    504.086    868.557    504.086    510.879    504.086
 95.070    971.000    861.030    109.970    503.887    854.910    503.887    509.997    503.887
 95.170    823.792    841.631    -17.839    503.688    836.090    503.688    509.225    503.688
 95.270    815.706    818.470     -2.764    503.487    813.406    503.487    508.553    503.487
 95.370    839.000    793.198     45.802    503.285    788.521    503.285    507.968    503.285
 95.470    813.000    767.618     45.382    503.082    763.251    503.082    507.456    503.082
 95.570    756.000    743.538     12.462    502.878    739.417    502.878    507.007    502.878
 95.670    716.000    722.676     -6.676    502.674    718.745    502.674    506.611    502.674
 95.770    723.000    706.601     16.399    502.468    702.814    502.468    506.257    502.468
 95.870    724.000    696.702     27.298    502.262    693.022    502.262    505.939    502.262
 95.970    671.324    694.170    -22.847    502.055    690.566    502.055    505.650    502.055
 96.070    694.000    699.981     -5.981    501.847    696.426    501.847    505.384    501.847
 96.170    757.000    714.939     42.061    501.638    711.411    501.638    505.138    501.638
 96.270    757.542    739.580     17.962    501.428    736.062    501.428    504.909    501.428
 96.370    769.000    774.166     -5.166    501.218    770.641    501.218    504.694    501.218
 96.470    811.000    818.624     -7.624    501.006    815.079    501.006    504.492    501.006
 96.570    918.314    872.459     45.855    500.794    868.882    500.794    504.301    500.794
 96.670    964.000    934.675     29.325    500.581    931.056    500.581    504.120    500.581
 96.770    956.318   1003.696    -47.378    500.368   1000.025    500.368    503.949    500.368
 96.870   1050.000   1077.326    -27.326    500.153   1073.594    500.153    503.788    500.153
 96.970   1207.000   1152.735     54.265    499.938   1148.935    499.938    503.637    499.938
 97.070   1259.000   1226.501     32.499    499.722   1222.626    499.722    503.495    499.722
 97.170   1241.000   1294.721    -53.721    499.506   1290.765    499.506    503.364    499.506
 97.270   1419.355   1353.237     66.118    499.288   1349.193    499.288    503.244    499.288
 97.370   1443.000   1398.029     44.971    499.071   1393.889    499.071    503.135    499.071
 97.470   1425.000   1425.768     -0.768    498.852   1421.523    498.852    503.039    498.852
 97.570   1423.000   1434.414    -11.414    498.633   1430.052    498.633    502.956    498.633
 97.670   1472.068   1423.622     48.446    498.413   1419.128    498.413    502.889    498.413
 97.770   1365.000   1394.769    -29.769    498.193   1390.124    498.193    502.840    498.193
 97.870   1314.281   1350.598    -36.316    497.971   1345.777    497.971    502.812    497.971
 97.970   1277.703   1294.684    -16.981    497.750   1289.659    497.750    502.808    497.750
 98.070   1193.000   1230.946    -37.946    497.528   1225.685    497.528    502.833    497.528
 98.170   1151.000   1163.289    -12.289    497.305   1157.751    497.305    502.893    497.305
 98.270   1152.099   1095.377     56.722    497.082   1089.515    497.082    502.997    497.082
 98.370    976.169   1030.499    -54.330    496.858   1024.255    496.858    503.153    496.858
 98.470    964.000    971.495     -7.495    496.633    964.801    496.633    503.375    496.633
 98.570    896.000    920.731    -24.731    496.409    913.504    496.409    503.677    496.409
 98.670    902.000    880.112     21.888    496.183    872.249    496.183    504.079    496.183
 98.770    827.000    851.113    -24.113    495.958    842.492    495.958    504.603    495.958
 98.870    817.000    834.826    -17.826    495.731    825.298    495.731    505.276    495.731
 98.970    746.000    832.022    -86.022    495.505    821.407    495.505    506.127    495.505
 99.070    822.000    843.200    -21.200    495.278    831.286    495.278    507.190    495.278
 99.170    817.000    868.617    -51.617    495.050    855.155    495.050    508.502    495.050
 99.270    871.000    908.282    -37.282    494.823    892.986    494.823    510.103    494.823
 99.370    926.871    961.930    -35.059    494.595    944.472    494.595    512.031    494.595
 99.470   1033.000   1028.957      4.043    494.366   1008.975    494.366    514.326    494.366
 99.570   1159.919   1108.355     51.564    494.137   1085.448    494.137    517.023    494.137
 99.670   1209.000   1198.626     10.374    493.908   1172.366    493.908    520.149    493.908
 99.770   1249.000   1297.716    -48.716    493.679   1267.657    493.679    523.726    493.679
 99.870   1348.329   1402.958    -54.629    493.449   1368.646    493.449    527.761    493.449
 99.970   1572.000   1511.120     60.880    493.219   1472.107    493.219    532.246    493.219
100.070   1616.933   1618.422     -1.489    492.989   1574.289    492.989    537.155    492.989
100.170   1719.000   1720.744     -1.744    492.759   1671.118    492.759    542.440    492.759
100.270   1809.000   1813.936     -4.936    492.529   1758.517    492.529    548.027    492.529
100.370   1917.760   1894.173     23.587    492.298   1832.761    492.298    553.814    492.298
100.470   1995.953   1958.258     37.695    492.067   1890.788    492.067    559.667    492.067
100.570   2002.812   2003.762     -0.950    491.836   1930.336    491.836    565.416    491.836
100.670   2004.000   2029.015    -25.015    491.605   1949.942    491.605    570.853    491.605
100.770   2091.543   2033.080     58.463    491.374   1948.905    491.374    575.742    491.374
100.870   2020.670   2015.839      4.831    491.143   1927.365    491.143    579.823    491.143
100.970   1896.000   1978.225    -82.225    490.912   1886.509    490.912    582.842    490.912
101.070   1958.000   1922.428     35.572    490.680   1828.743    490.680    584.582    490.680
101.170   1824.227   1851.877    -27.650    490.449   1757.642    490.449    584.900    490.449
101.270   1792.793   1770.929     21.864    490.218   1677.602    490.218    583.753    490.218
101.370   1608.591   1684.337    -75.747    489.986   1593.309    489.986    581.213    489.986
101.470   1544.000   1596.712    -52.712    489.755   1509.207    489.755    577.444    489.755
101.570   1442.955   1512.090    -69.135    489.524   1429.105    489.524    572.678    489.524
101.670   1417.000   1433.676    -16.676    489.293   1355.949    489.293    567.173    489.293
101.770   1358.000   1363.714     -5.714    489.062   1291.729    489.062    561.185    489.062
101.870   1336.504   1303.462     33.042    488.831   1237.473    488.831    554.944    488.831
101.970   1306.906   1253.232     53.674    488.601   1193.297    488.601    548.647    488.601
102.070   1234.202   1212.474     21.728    488.370   1158.490    488.370    542.455    488.370
102.170   1150.000   1179.897    -29.897    488.140   1131.635    488.140    536.494    488.140
102.270   1106.000   1153.626    -47.626    487.910   1110.765    487.910    530.858    487.910
102.370   1170.000   1131.405     38.595    487.680   1093.556    487.680    525.614    487.680
102.470   1147.845   1110.846     37.000    487.451   1077.577    487.451    520.802    487.451
102.570   1034.000   1089.713    -55.713    487.221   1060.572    487.221    516.446    487.221
102.670   1043.000   1066.214    -23.214    486.992   1040.744    486.992    512.547    486.992
102.770   1085.583   1039.216     46.366    486.764   1016.970    486.764    509.095    486.764
102.870   1000.000   1008.319     -8.319    486.536    988.873    486.536    506.067    486.536
102.970    991.000    973.778     17.222    486.308    956.738    486.308    503.432    486.308
103.070    947.813    936.327     11.486    486.080    921.334    486.080    501.155    486.080
103.170    907.570    896.973     10.597    485.853    883.708    485.853    499.196    485.853
103.270    875.000    856.824     18.176    485.627    845.008    485.627    497.515    485.627
103.370    853.593    816.969     36.624    485.401    806.362    485.401    496.074    485.401
103.470    736.063    778.395    -42.332    485.175    768.793    485.175    494.837    485.175
103.570    725.000    741.938    -16.938    484.950    733.171    484.950    493.772    484.950
103.670    712.650    708.252      4.398    484.726    700.177    484.726    492.847    484.726
103.770    696.000    677.791     18.209    484.502    670.294    484.502    492.040    484.502
103.870    729.000    650.817     78.183    484.279    643.803    484.279    491.327    484.279
103.970    646.000    627.405     18.595    484.056    620.798    484.056    490.692    484.056
104.070    623.000    607.479     15.521    483.834    601.217    483.834    490.119    483.834
104.170    586.000    590.837     -4.837    483.613    584.871    483.613    489.597    483.613
104.270    560.395    577.192    -16.796    483.392    571.481    483.392    489.117    483.392
104.370    540.911    566.208    -25.297    483.173    560.720    483.173    488.671    483.173
104.470    540.000    557.530    -17.530    482.953    552.238    482.953    488.254    482.953
104.570    566.000    550.812     15.188    482.735    545.694    482.735    487.859    482.735
104.670    566.000    545.739     20.261    482.518    540.775    482.518    487.485    482.518
104.770    516.063    542.033    -25.970    482.301    537.206    482.301    487.129    482.301
104.870    561.000    539.469     21.531    482.085    534.764    482.085    486.790    482.085
104.970    548.000    537.876     10.124    481.870    533.281    481.870    486.464    481.870
105.070    515.608    537.129    -21.521    481.656    532.631    481.656    486.150    481.656
105.170    546.075    537.153      8.922    481.443    532.743    481.443    485.849    481.443
105.270    535.000    537.917     -2.917    481.231    533.585    481.231    485.557    481.231
105.370    550.000    539.424     10.576    481.020    535.161    481.020    485.276    481.020
105.470    558.000    541.728     16.272    480.810    537.524    480.810    485.004    480.810
105.570    575.000    544.889     30.111    480.601    540.738    480.601    484.740    480.601
105.670    566.834    548.988     17.847    480.394    544.881    480.394    484.485    480.394
105.770    563.000    554.107      8.893    480.187    550.039    480.187    484.238    480.187
105.870    573.878    560.323     13.555    479.981    556.286    479.981    483.998    479.981
105.970    573.344    567.683      5.661    479.777    563.671    479.777    483.766    479.777
106.070    599.627    576.203     23.424    479.574    572.210    479.574    483.541    479.574
106.170    605.000    585.848     19.152    479.372    581.869    479.372    483.322    479.372
106.270    636.686    596.529     40.157    479.171    592.558    479.171    483.110    479.171
106.370    623.180    608.097     15.083    478.971    604.128    478.971    482.905    478.971
106.470    610.000    620.339    -10.339    478.773    616.368    478.773    482.705    478.773
106.570    660.000    632.983     27.017    478.577    629.006    478.577    482.513    478.577
106.670    687.011    645.705     41.306    478.381    641.716    478.381    482.326    478.381
106.770    689.904    658.133     31.771    478.187    654.130    478.187    482.146    478.187
106.870    680.000    669.872     10.128    477.995    665.850    477.995    481.972    477.995
106.970    633.294    680.521    -47.226    477.804    676.475    477.804    481.803    477.804
107.070    689.000    689.708     -0.708    477.614    685.636    477.614    481.642    477.614
107.170    661.596    697.141    -35.545    477.426    693.039    477.426    481.486    477.426
107.270    718.000    702.649     15.351    477.240    698.513    477.240    481.336    477.240
107.370    667.000    706.222    -39.222    477.055    702.047    477.055    481.193    477.055
107.470    706.000    708.016     -2.016    476.872    703.798    476.872    481.057    476.872
107.570    663.000    708.329    -45.329    476.690    704.064    476.690    480.926    476.690
107.670    687.851    707.553    -19.702    476.510    703.236    476.510    480.803    476.510
107.770    649.000    706.111    -57.111    476.332    701.737    476.332    480.686    476.332
107.870    702.000    704.403     -2.403    476.156    699.967    476.156    480.576    476.156
107.970    698.725    702.769     -4.044    475.981    698.265    475.981    480.474    475.981
108.070    650.000    701.453    -51.453    475.808    696.875    475.808    480.378    475.808
108.170    705.182    700.594      4.588    475.638    695.937    475.638    480.291    475.638
108.270    719.058    700.214     18.844    475.469    695.472    475.469    480.211    475.469
108.370    662.931    700.220    -37.289    475.302    695.386    475.302    480.139    475.302
108.470    713.572    700.409     13.163    475.136    695.476    475.136    480.076    475.136
108.570    685.000    700.484    -15.484    474.973    695.446    474.973    480.022    474.973
108.670    735.855    700.087     35.768    474.812    694.936    474.812    479.976    474.812
108.770    717.000    698.835     18.165    474.653    693.564    474.653    479.941    474.653
108.870    660.000    696.374    -36.374    474.496    690.975    474.496    479.915    474.496
108.970    725.332    692.435     32.897    474.342    686.898    474.342    479.899    474.342
109.070    670.000    686.873    -16.873    474.189    681.189    474.189    479.895    474.189
109.170    668.000    679.693    -11.693    474.039    673.852    474.039    479.903    474.039
109.270    634.667    671.031    -36.364    473.890    665.023    473.890    479.922    473.890
109.370    685.000    661.132     23.868    473.745    654.945    473.745    479.955    473.745
109.470    628.096    650.305    -22.209    473.601    643.927    473.601    480.001    473.601
109.570    616.000    638.886    -22.886    473.460    632.304    473.460    480.063    473.460
109.670    655.000    627.209     27.791    473.321    620.410    473.321    480.140    473.321
109.770    608.772    615.591     -6.819    473.184    608.559    473.184    480.235    473.184
109.870    592.707    604.311    -11.604    473.050    597.030    473.050    480.348    473.050
109.970    618.840    593.610     25.230    472.919    586.062    472.919    480.482    472.919
110.070    570.000    583.683    -13.683    472.790    575.848    472.790    480.638    472.790
110.170    573.000    574.677     -1.677    472.664    566.531    472.664    480.819    472.664
110.270    593.479    566.691     26.788    472.540    558.210    472.540    481.029    472.540
110.370    599.000    559.780     39.220    472.419    550.934    472.419    481.271    472.419
110.470    597.904    553.960     43.945    472.300    544.715    472.300    481.549    472.300
110.570    525.655    549.209    -23.554    472.184    539.527    472.184    481.870    472.184
110.670    590.000    545.480     44.520    472.071    535.314    472.071    482.239    472.071
110.770    499.602    542.684    -43.083    471.961    531.981    471.961    482.664    471.961
110.870    572.215    540.772     31.443    471.854    529.467    471.854    483.157    471.854
110.970    554.000    539.680     14.320    471.749    527.699    471.749    483.727    471.749
111.070    504.759    539.306    -34.547    471.648    526.560    471.648    484.390    471.648
111.170    508.579    539.570    -30.991    471.549    525.954    471.549    485.161    471.549
111.270    525.000    540.406    -15.406    471.453    525.793    471.453    486.060    471.453
111.370    515.000    541.754    -26.754    471.361    526.000    471.361    487.109    471.361
111.470    538.000    543.573     -5.573    471.271    526.503    471.271    488.334    471.271
111.570    514.000    545.830    -31.830    471.185    527.244    471.185    489.763    471.185
111.670    563.000    548.510     14.490    471.101    528.174    471.101    491.429    471.101
111.770    544.271    551.610     -7.340    471.021    529.255    471.021    493.368    471.021
111.870    582.000    555.142     26.858    470.944    530.458    470.944    495.619    470.944
111.970    542.000    559.130    -17.130    470.871    531.770    470.871    498.222    470.871
112.070    563.000    563.614     -0.614    470.801    533.183    470.801    501.222    470.801
112.170    536.000    568.642    -32.642    470.734    534.704    470.734    504.662    470.734
112.270    581.000    574.274      6.726    470.670    536.347    470.670    508.587    470.670
112.370    566.734    580.576    -13.842    470.610    538.137    470.610    513.038    470.610
112.470    613.020    587.621     25.399    470.553    540.107    470.553    518.057    470.553
112.570    561.000    595.488    -34.488    470.500    542.301    470.500    523.676    470.500
112.670    582.000    604.258    -22.258    470.451    544.774    470.451    529.924    470.451
112.770    602.000    614.021    -12.021    470.405    547.597    470.405    536.817    470.405
112.870    628.761    624.876      3.884    470.363    550.863    470.363    544.364    470.363
112.970    672.000    636.936     35.064    470.324    554.690    470.324    552.556    470.324
113.070    614.000    650.333    -36.333    470.289    559.235    470.289    561.373    470.289
113.170    699.632    665.230     34.402    470.258    564.699    470.258    570.773    470.258
113.270    680.000    681.832     -1.832    470.231    571.350    470.231    580.696    470.231
113.370    731.931    700.401     31.531    470.207    579.529    470.207    591.059    470.207
113.470    635.000    721.270    -86.270    470.188    589.680    470.188    601.756    470.188
113.570    683.000    744.867    -61.867    470.172    602.362    470.172    612.652    470.172
113.670    779.694    771.736      7.957    470.161    618.282    470.161    623.585    470.161
113.770    801.000    802.558     -1.558    470.154    638.312    470.154    634.362    470.154
113.870    887.235    838.175     49.060    470.150    663.518    470.150    644.761    470.150
113.970    835.000    879.613    -44.613    470.151    695.179    470.151    654.530    470.151
114.070    895.567    928.106    -32.540    470.156    734.798    470.156    663.397    470.156
114.170    916.000    985.110    -69.110    470.165    784.115    470.165    671.078    470.165
114.270   1054.190   1052.314      1.876    470.179    845.097    470.179    677.295    470.179
114.370   1218.000   1131.641     86.359    470.196    919.913    470.196    681.802    470.196
114.470   1254.682   1225.231     29.451    470.219   1010.897    470.219    684.404    470.219
114.570   1391.000   1335.396     55.604    470.245   1120.479    470.245    684.985    470.245
114.670   1479.000   1464.550     14.450    470.276   1251.095    470.276    683.518    470.276
114.770   1577.977   1615.091    -37.114    470.312   1405.079    470.312    680.072    470.312
114.870   1804.000   1789.262     14.738    470.352   1584.518    470.352    674.802    470.352
114.970   2072.973   1988.972     84.000    470.397   1791.099    470.397    667.930    470.397
115.070   2378.000   2215.604    162.396    470.446   2025.942    470.446    659.720    470.446
115.170   2427.728   2469.817    -42.089    470.500   2289.424    470.500    650.454    470.500
115.270   2915.000   2751.360    163.640    470.559   2581.016    470.559    640.414    470.559
115.370   3207.000   3058.915    148.085    470.623   2899.135    470.623    629.863    470.623
115.470   3516.000   3389.965    126.035    470.691   3241.029    470.691    619.041    470.691
115.570   3774.362   3740.717     33.645    470.764   3602.699    470.764    608.156    470.764
115.670   4057.476   4106.077    -48.600    470.843   3978.870    470.843    597.388    470.843
115.770   4416.000   4479.669    -63.669    470.926   4363.023    470.926    586.886    470.926
115.870   4947.604   4853.929     93.675    471.014   4747.474    471.014    576.770    471.014
115.970   5249.000   5220.251     28.749    471.108   5123.522    471.108    567.137    471.108
116.070   5496.000   5569.196    -73.196    471.206   5481.658    471.206    558.059    471.206
116.170   5865.000   5890.782    -25.782    471.310   5811.854    471.310    549.583    471.310
116.270   6258.059   6174.881     83.178    471.419   6103.943    471.419    541.748    471.419
116.370   6456.000   6411.696     44.304    471.534   6348.116    471.534    534.566    471.534
116.470   6550.000   6592.383    -42.383    471.653   6535.528    471.653    528.038    471.653
116.570   6674.182   6709.737    -35.555    471.778   6658.984    471.778    522.150    471.778
116.670   6854.268   6758.859     95.410    471.909   6713.603    471.909    516.881    471.909
116.770   6709.000   6737.668    -28.668    472.045   6697.333    472.045    512.200    472.045
116.870   6784.306   6647.135    137.171    472.186   6611.174    472.186    508.070    472.186
116.970   6481.271   6491.151     -9.879    472.334   6459.056    472.334    504.450    472.334
117.070   6075.000   6276.092   -201.092    472.486   6247.393    472.486    501.297    472.486
117.170   5908.000   6010.183   -102.183    472.645   5984.453    472.645    498.566    472.645
117.270   5520.000   5702.810   -182.810    472.809   5679.663    472.809    496.214    472.809
117.370   5194.000   5363.883   -169.883    472.980   5342.973    472.980    494.198    472.980
117.470   4806.000   5003.305   -197.305    473.156   4984.329    473.156    492.477    473.156
117.570   4676.836   4630.569     46.268    473.337   4613.260    473.337    491.015    473.337
117.670   4245.000   4254.431     -9.431    473.525   4238.565    473.525    489.772    473.525
117.770   3891.000   3882.715      8.285    473.719   3868.085    473.719    488.728    473.719
117.870   3469.060   3522.113    -53.053    473.919   3508.549    473.919    487.851    473.919
117.970   3187.834   3178.116      9.719    474.126   3165.474    474.126    487.117    474.126
118.070   2931.000   2854.990     76.010    474.338   2843.147    474.338    486.505    474.338
118.170   2536.628   2555.837    -19.210    474.557   2544.692    474.557    485.997    474.557
118.270   2210.000   2282.572    -72.572    474.782   2272.039    474.782    485.578    474.782
118.370   2063.213   2036.104     27.110    475.013   2026.112    475.013    485.235    475.013
118.470   1784.000   1816.454    -32.454    475.251   1806.945    475.251    484.958    475.251
118.570   1598.884   1622.907    -24.024    475.495   1613.832    475.495    484.737    475.495
118.670   1464.000   1454.160      9.840    475.746   1445.477    475.746    484.566    475.746
118.770   1346.219   1308.479     37.741    476.003   1300.153    476.003    484.439    476.003
118.870   1124.872   1183.844    -58.972    476.267   1175.848    476.267    484.350    476.267
118.970   1020.962   1078.083    -57.122    476.538   1070.392    476.538    484.297    476.538
119.070    981.757    988.985     -7.228    476.815    981.576    476.815    484.275    476.815
119.170    896.000    914.390    -18.390    477.100    907.244    477.100    484.282    477.100
119.270    842.489    852.258     -9.768    477.391    845.358    477.391    484.317    477.391
119.370    826.000    800.718     25.282    477.689    794.048    477.689    484.376    477.689
119.470    704.000    758.094    -54.094    477.994    751.639    477.994    484.460    477.994
119.570    743.000    722.917     20.083    478.306    716.663    478.306    484.567    478.306
119.670    702.000    693.924      8.076    478.625    687.857    478.625    484.697    478.625
119.770    647.000    670.043    -23.043    478.952    664.150    478.952    484.847    478.952
119.870    610.956    650.383    -39.427    479.285    644.650    479.285    485.020    479.285
119.970    674.000    634.209     39.791    479.626    628.623    479.626    485.213    479.626
120.070    634.000    620.922     13.078    479.975    615.470    479.975    485.427    479.975
120.170    558.000    610.041    -52.041    480.330    604.711    480.330    485.661    480.330
120.270    575.623    601.180    -25.556    480.693    595.957    480.693    485.917    480.693
120.370    597.000    594.031      2.969    481.064    588.904    481.064    486.193    481.064
120.470    573.885    588.354    -14.469    481.442    583.309    481.442    486.490    481.442
120.570    619.000    583.956     35.044    481.828    578.980    481.828    486.808    481.828
120.670    567.000    580.687    -13.687    482.222    575.766    482.222    487.147    482.222
120.770    567.660    578.428    -10.769    482.624    573.549    482.624    487.507    482.624
120.870    579.000    577.083      1.917    483.033    572.232    483.033    487.889    483.033
120.970    619.129    576.575     42.554    483.450    571.739    483.450    488.292    483.450
121.070    537.000    576.838    -39.838    483.875    572.003    483.875    488.717    483.875
121.170    606.000    577.813     28.187    484.308    572.967    484.308    489.164    484.308
121.270    567.000    579.449    -12.449    484.750    574.577    484.750    489.631    484.750
121.370    570.524    581.691    -11.167    485.199    576.781    485.199    490.120    485.199
121.470    555.000    584.484    -29.484    485.657    579.525    485.657    490.630    485.657
121.570    587.000    587.770     -0.770    486.122    582.749    486.122    491.160    486.122
121.670    623.000    591.485     31.515    486.597    586.391    486.597    491.709    486.597
121.770    615.000    595.557     19.443    487.079    590.380    487.079    492.276    487.079
121.870    603.000    599.908      3.092    487.571    594.640    487.571    492.861    487.571
121.970    641.012    604.452     36.561    488.070    599.085    488.070    493.463    488.070
122.070    571.873    609.096    -37.223    488.578    603.624    488.578    494.078    488.578
122.170    591.783    613.741    -21.958    489.095    608.161    489.095    494.706    489.095
122.270    631.000    618.283     12.717    489.621    612.592    489.621    495.345    489.621
122.370    661.186    622.613     38.573    490.155    616.813    490.155    495.992    490.155
122.470    665.000    626.626     38.374    490.699    620.720    490.699    496.644    490.699
122.570    663.000    630.218     32.782    491.251    624.211    491.251    497.298    491.251
122.670    642.000    633.294      8.706    491.812    627.197    491.812    497.952    491.812
122.770    690.000    635.776     54.224    492.383    629.601    492.383    498.601    492.383
122.870    639.000    637.600      1.400    492.962    631.364    492.962    499.243    492.962
122.970    618.701    638.730    -20.029    493.551    632.451    493.551    499.875    493.551
123.070    625.551    639.152    -13.601    494.149    632.853    494.149    500.494    494.149
123.170    648.000    638.878      9.122    494.756    632.582    494.756    501.097    494.756
123.270    616.000    637.941    -21.941    495.372    631.675    495.372    501.684    495.372
123.370    647.000    636.394     10.606    495.999    630.183    495.999    502.253    495.999
123.470    597.175    634.301    -37.126    496.634    628.172    496.634    502.806    496.634
123.570    601.686    631.737    -30.051    497.279    625.715    497.279    503.343    497.279
123.670    613.068    628.781    -15.713    497.934    622.888    497.934    503.866    497.934
123.770    613.000    625.512    -12.512    498.599    619.768    498.599    504.378    498.599
123.870    630.000    622.008      7.992    499.274    616.432    499.274    504.883    499.274
123.970    638.000    618.343     19.657    499.958    612.948    499.958    505.382    499.958
124.070    662.000    614.583     47.417    500.652    609.381    500.652    505.881    500.652
124.170    626.999    610.787     16.212    501.357    605.787    501.357    506.381    501.357
124.270    622.000    607.006     14.994    502.071    602.212    502.071    506.886    502.071
124.370    646.000    603.278     42.722    502.796    598.693    502.796    507.399    502.796
124.470    574.000    599.633    -25.633    503.531    595.258    503.531    507.922    503.531
124.570    564.718    596.092    -31.374    504.276    591.926    504.276    508.456    504.276
124.670    611.856    592.668     19.188    505.031    588.706    505.031    509.005    505.031
124.770    617.316    589.367     27.949    505.797    585.605    505.797    509.569    505.797
124.870    557.992    586.189    -28.197    506.574    582.621    506.574    510.151    506.574
124.970    597.000    583.133     13.867    507.361    579.751    507.361    510.750    507.361
