neutron_powder_diffraction_0082
R_wp: 4.464
Temperature (K): 803.908
Counts: 83470.00
Wavelength (Ã…): 2.52098
COMMENTS
Test file for demonstrating the .xyy file format in Reel1.0
END OF HEADER
   tth       Y_obs     Y_calc      Y_res    Background    Phase_1_Nuc    Phase_1_Mag    Phase_2_Nuc    Phase_2_Mag
  9.970    592.000    587.156      4.844    586.039    587.155    586.039    586.039    586.039
 10.070    646.000    587.626     58.374    586.420    587.626    586.420    586.420    586.420
 10.170    559.185    588.100    -28.916    586.791    588.100    586.791    586.791    586.791
 10.270    627.000    588.580     38.420    587.152    588.579    587.152    587.152    587.152
 10.370    547.565    589.069    -41.504    587.505    589.068    587.505    587.505    587.505
 10.470    625.000    589.571     35.429    587.848    589.571    587.848    587.848    587.848
 10.570    665.000    590.095     74.905    588.182    590.094    588.182    588.182    588.182
 10.670    621.000    590.642     30.358    588.507    590.641    588.507    588.507    588.507
 10.770    633.000    591.222     41.778    588.822    591.221    588.822    588.822    588.822
 10.870    580.390    591.850    -11.460    589.129    591.848    589.129    589.129    589.129
 10.970    568.109    592.541    -24.432    589.427    592.539    589.427    589.427    589.427
 11.070    550.000    593.319    -43.319    589.716    593.317    589.716    589.716    589.716
 11.170    608.116    594.218     13.897    589.996    594.216    589.996    589.996    589.996
 11.270    553.321    595.289    -41.968    590.267    595.286    590.267    590.267    590.267
 11.370    606.622    596.617     10.006    590.530    596.613    590.530    590.530    590.530
 11.470    623.000    598.373     24.627    590.785    598.369    590.785    590.785    590.785
 11.570    668.000    600.964     67.036    591.031    600.959    591.031    591.031    591.031
 11.670    632.000    605.398     26.602    591.268    605.390    591.268    591.268    591.268
 11.770    683.000    613.482     69.518    591.497    613.469    591.497    591.497    591.497
 11.870    698.000    628.074     69.926    591.718    628.054    591.718    591.718    591.718
 11.970    671.000    651.972     19.028    591.931    651.939    591.931    591.931    591.931
 12.070    685.723    684.750      0.972    592.135    684.699    592.135    592.135    592.135
 12.170    694.000    718.325    -24.325    592.332    718.254    592.332    592.332    592.332
 12.270    740.000    734.825      5.175    592.520    734.746    592.520    592.520    592.520
 12.370    693.000    721.463    -28.463    592.700    721.391    592.700    592.700    592.700
 12.470    703.895    689.274     14.621    592.873    689.220    592.873    592.873    592.873
 12.570    685.128    656.350     28.778    593.038    656.314    593.038    593.038    593.038
 12.670    618.000    631.789    -13.789    593.195    631.767    593.195    593.195    593.195
 12.770    632.517    616.656     15.860    593.344    616.644    593.344    593.344    593.344
 12.870    622.000    608.423     13.577    593.486    608.415    593.486    593.486    593.486
 12.970    601.000    604.131     -3.131    593.621    604.126    593.621    593.621    593.621
 13.070    576.000    601.773    -25.773    593.748    601.769    593.748    593.748    593.748
 13.170    632.291    600.333     31.958    593.867    600.329    593.867    593.867    593.867
 13.270    599.000    599.362     -0.362    593.979    599.359    593.979    593.979    593.979
 13.370    623.818    598.648     25.170    594.084    598.646    594.084    594.084    594.084
 13.470    556.822    598.114    -41.292    594.182    598.112    594.182    594.182    594.182
 13.570    549.000    597.707    -48.707    594.272    597.705    594.272    594.272    594.272
 13.670    556.000    597.392    -41.392    594.356    597.390    594.356    594.356    594.356
 13.770    625.003    597.145     27.858    594.432    597.144    594.432    594.432    594.432
 13.870    586.000    596.948    -10.948    594.502    596.947    594.502    594.502    594.502
 13.970    606.000    596.790      9.210    594.564    596.789    594.564    594.564    594.564
 14.070    594.000    596.660     -2.660    594.620    596.659    594.620    594.620    594.620
 14.170    593.000    596.552     -3.552    594.669    596.552    594.669    594.669    594.669
 14.270    611.000    596.462     14.538    594.712    596.462    594.712    594.712    594.712
 14.370    551.000    596.387    -45.387    594.747    596.386    594.747    594.747    594.747
 14.470    574.000    596.317    -22.317    594.777    596.316    594.777    594.777    594.777
 14.570    557.003    596.253    -39.250    594.799    596.253    594.799    594.799    594.799
 14.670    577.000    596.194    -19.194    594.815    596.193    594.815    594.815    594.815
 14.770    579.000    596.138    -17.138    594.825    596.137    594.825    594.825    594.825
 14.870    585.000    596.083    -11.083    594.829    596.082    594.829    594.829    594.829
 14.970    637.000    596.029     40.971    594.826    596.029    594.826    594.826    594.826
 15.070    549.871    595.976    -46.106    594.817    595.976    594.817    594.817    594.817
 15.170    594.898    595.921     -1.023    594.802    595.921    594.802    594.802    594.802
 15.270    560.000    595.870    -35.870    594.781    595.869    594.781    594.781    594.781
 15.370    585.000    595.872    -10.872    594.754    595.872    594.754    594.754    594.754
 15.470    559.000    595.831    -36.831    594.721    595.831    594.721    594.721    594.721
 15.570    588.169    595.768     -7.599    594.682    595.768    594.682    594.682    594.682
 15.670    566.000    595.701    -29.701    594.637    595.701    594.637    594.637    594.637
 15.770    588.000    595.635     -7.635    594.586    595.635    594.586    594.586    594.586
 15.870    614.000    595.563     18.437    594.530    595.563    594.530    594.530    594.530
 15.970    567.000    595.485    -28.485    594.468    595.485    594.468    594.468    594.468
 16.070    564.000    595.403    -31.403    594.400    595.403    594.400    594.400    594.400
 16.170    589.000    595.318     -6.318    594.327    595.318    594.327    594.327    594.327
 16.270    558.937    595.237    -36.299    594.248    595.236    594.248    594.248    594.248
 16.370    563.000    595.149    -32.149    594.164    595.148    594.164    594.164    594.164
 16.470    607.000    595.051     11.949    594.074    595.051    594.074    594.074    594.074
 16.570    629.295    594.949     34.347    593.979    594.949    593.979    593.979    593.979
 16.670    569.800    594.847    -25.048    593.879    594.847    593.879    593.879    593.879
 16.770    574.000    594.792    -20.792    593.774    594.791    593.774    593.774    593.774
 16.870    592.000    594.689     -2.689    593.663    594.689    593.663    593.663    593.663
 16.970    557.000    594.571    -37.571    593.547    594.571    593.547    593.547    593.547
 17.070    609.000    594.453     14.547    593.427    594.453    593.427    593.427    593.427
 17.170    584.000    594.350    -10.350    593.301    594.350    593.301    593.301    593.301
 17.270    573.000    594.227    -21.227    593.170    594.227    593.170    593.170    593.170
 17.370    615.421    594.099     21.323    593.035    594.099    593.035    593.035    593.035
 17.470    562.000    593.959    -31.959    592.895    593.959    592.895    592.895    592.895
 17.570    581.000    593.815    -12.815    592.749    593.815    592.749    592.749    592.749
 17.670    560.000    593.667    -33.667    592.600    593.667    592.600    592.600    592.600
 17.770    585.000    593.514     -8.514    592.445    593.514    592.445    592.445    592.445
 17.870    574.000    593.358    -19.358    592.286    593.358    592.286    592.286    592.286
 17.970    556.000    593.198    -37.198    592.122    593.198    592.122    592.122    592.122
 18.070    588.000    593.035     -5.035    591.954    593.035    591.954    591.954    591.954
 18.170    551.406    592.886    -41.479    591.781    592.886    591.781    591.781    591.781
 18.270    625.788    592.728     33.060    591.604    592.728    591.604    591.604    591.604
 18.370    630.441    592.560     37.881    591.423    592.560    591.423    591.423    591.423
 18.470    644.682    592.409     52.272    591.237    592.409    591.237    591.237    591.237
 18.570    585.000    592.243     -7.243    591.047    592.243    591.047    591.047    591.047
 18.670    626.443    592.083     34.360    590.853    592.083    590.853    590.853    590.853
 18.770    590.076    591.954     -1.878    590.654    591.954    590.654    590.654    590.654
 18.870    545.838    591.766    -45.928    590.452    591.766    590.452    590.452    590.452
 18.970    636.750    591.568     45.181    590.245    591.568    590.245    590.245    590.245
 19.070    589.000    591.369     -2.369    590.034    591.369    590.034    590.034    590.034
 19.170    547.000    591.181    -44.181    589.820    591.181    589.820    589.820    589.820
 19.270    584.682    591.021     -6.339    589.601    591.021    589.601    589.601    589.601
 19.370    600.000    590.840      9.160    589.379    590.840    589.379    589.379    589.379
 19.470    579.000    590.629    -11.629    589.153    590.629    589.153    589.153    589.153
 19.570    588.000    590.412     -2.412    588.923    590.412    588.923    588.923    588.923
 19.670    531.000    590.192    -59.192    588.690    590.192    588.690    588.690    588.690
 19.770    585.312    589.970     -4.657    588.452    589.970    588.452    588.452    588.452
 19.870    554.000    589.749    -35.749    588.211    589.749    588.211    588.211    588.211
 19.970    543.439    589.522    -46.083    587.967    589.522    587.967    587.967    587.967
 20.070    626.542    589.293     37.249    587.719    589.293    587.719    587.719    587.719
 20.170    597.834    589.063      8.771    587.468    589.063    587.468    587.468    587.468
 20.270    570.000    588.831    -18.831    587.213    588.831    587.213    587.213    587.213
 20.370    545.385    588.596    -43.211    586.954    588.596    586.954    586.954    586.954
 20.470    570.000    588.358    -18.358    586.693    588.358    586.693    586.693    586.693
 20.570    585.000    588.114     -3.114    586.428    588.114    586.428    586.428    586.428
 20.670    550.000    587.870    -37.870    586.160    587.870    586.160    586.160    586.160
 20.770    626.009    587.623     38.386    585.889    587.623    585.889    585.889    585.889
 20.870    568.000    587.374    -19.374    585.614    587.374    585.614    585.614    585.614
 20.970    575.995    587.122    -11.127    585.336    587.122    585.336    585.336    585.336
 21.070    564.000    586.871    -22.871    585.056    586.871    585.056    585.056    585.056
 21.170    634.708    586.616     48.092    584.772    586.616    584.772    584.772    584.772
 21.270    514.000    586.360    -72.360    584.485    586.360    584.485    584.485    584.485
 21.370    580.000    586.102     -6.102    584.196    586.102    584.196    584.196    584.196
 21.470    608.000    585.844     22.156    583.903    585.844    583.903    583.903    583.903
 21.570    598.000    585.584     12.416    583.608    585.584    583.608    583.608    583.608
 21.670    573.000    585.325    -12.325    583.310    585.325    583.310    583.310    583.310
 21.770    523.000    585.065    -62.065    583.009    585.065    583.009    583.009    583.009
 21.870    604.787    584.805     19.982    582.705    584.805    582.705    582.705    582.705
 21.970    593.000    584.546      8.454    582.399    584.546    582.399    582.399    582.399
 22.070    613.000    584.288     28.712    582.090    584.288    582.090    582.090    582.090
 22.170    586.000    584.031      1.969    581.779    584.032    581.779    581.779    581.779
 22.270    550.949    583.777    -32.828    581.465    583.777    581.465    581.465    581.465
 22.370    589.000    583.526      5.474    581.148    583.526    581.148    581.148    581.148
 22.470    547.000    583.279    -36.279    580.829    583.279    580.829    580.829    580.829
 22.570    594.000    583.036     10.964    580.508    583.036    580.508    580.508    580.508
 22.670    542.750    582.799    -40.049    580.184    582.800    580.184    580.184    580.184
 22.770    607.000    582.569     24.431    579.858    582.570    579.858    579.858    579.858
 22.870    550.916    582.348    -31.432    579.529    582.348    579.529    579.529    579.529
 22.970    590.243    582.137      8.105    579.198    582.138    579.198    579.198    579.198
 23.070    632.554    581.941     50.614    578.865    581.941    578.865    578.865    578.865
 23.170    554.000    581.761    -27.761    578.530    581.762    578.530    578.530    578.530
 23.270    563.375    581.604    -18.229    578.193    581.605    578.193    578.193    578.193
 23.370    560.574    581.475    -20.901    577.854    581.476    577.854    577.854    577.854
 23.470    531.151    581.382    -50.231    577.512    581.383    577.512    577.512    577.512
 23.570    543.000    581.334    -38.334    577.169    581.335    577.169    577.169    577.169
 23.670    585.000    581.347      3.653    576.823    581.349    576.823    576.823    576.823
 23.770    547.000    581.443    -34.443    576.476    581.444    576.476    576.476    576.476
 23.870    586.603    581.651      4.952    576.127    581.653    576.127    576.127    576.127
 23.970    615.000    582.026     32.974    575.775    582.028    575.775    575.775    575.775
 24.070    558.000    582.669    -24.669    575.422    582.672    575.422    575.422    575.422
 24.170    617.000    583.813     33.187    575.068    583.818    575.068    575.068    575.068
 24.270    639.000    585.987     53.013    574.711    585.993    574.711    574.711    574.711
 24.370    603.126    590.244     12.881    574.353    590.253    574.353    574.353    574.353
 24.470    601.865    598.228      3.637    573.993    598.243    573.993    573.993    573.993
 24.570    625.000    611.642     13.358    573.631    611.667    573.631    573.631    573.631
 24.670    663.000    630.771     32.229    573.268    630.809    573.268    573.268    573.268
 24.770    647.000    652.095     -5.095    572.903    652.149    572.903    572.903    572.903
 24.870    669.000    666.544      2.456    572.536    666.609    572.536    572.536    572.536
 24.970    612.525    664.808    -52.284    572.169    664.873    572.169    572.169    572.169
 25.070    713.000    648.039     64.961    571.799    648.091    571.799    571.799    571.799
 25.170    668.439    626.145     42.295    571.428    626.181    571.428    571.428    571.428
 25.270    609.000    607.291      1.709    571.056    607.314    571.056    571.056    571.056
 25.370    590.000    594.258     -4.258    570.683    594.272    570.683    570.683    570.683
 25.470    553.000    586.428    -33.428    570.308    586.436    570.308    570.308    570.308
 25.570    614.000    582.051     31.949    569.932    582.057    569.932    569.932    569.932
 25.670    553.784    579.569    -25.785    569.554    579.573    569.554    569.554    569.554
 25.770    607.000    578.026     28.974    569.175    578.029    569.175    569.175    569.175
 25.870    585.000    576.954      8.046    568.796    576.956    568.796    568.796    568.796
 25.970    550.600    576.152    -25.551    568.415    576.154    568.415    568.415    568.415
 26.070    533.074    575.530    -42.456    568.032    575.531    568.032    568.032    568.032
 26.170    521.077    575.044    -53.968    567.649    575.046    567.649    567.649    567.649
 26.270    524.699    574.672    -49.973    567.265    574.673    567.265    567.265    567.265
 26.370    651.000    574.399     76.601    566.879    574.400    566.879    566.879    566.879
 26.470    529.527    574.221    -44.694    566.493    574.221    566.493    566.493    566.493
 26.570    675.000    574.137    100.863    566.106    574.137    566.106    566.106    566.106
 26.670    614.000    574.154     39.846    565.717    574.154    565.717    565.717    565.717
 26.770    621.000    574.284     46.716    565.328    574.284    565.328    565.328    565.328
 26.870    609.000    574.546     34.454    564.938    574.545    564.938    564.938    564.938
 26.970    592.404    574.966     17.437    564.547    574.966    564.547    564.547    564.547
 27.070    596.106    575.585     20.521    564.156    575.584    564.156    564.156    564.156
 27.170    630.914    576.458     54.456    563.763    576.457    563.763    563.763    563.763
 27.270    622.000    577.666     44.334    563.370    577.664    563.370    563.370    563.370
 27.370    611.310    579.336     31.974    562.976    579.334    562.976    562.976    562.976
 27.470    633.000    581.694     51.306    562.581    581.691    562.581    562.581    562.581
 27.570    722.000    585.234    136.766    562.186    585.230    562.186    562.186    562.186
 27.670    653.000    591.206     61.794    561.790    591.200    561.790    561.790    561.790
 27.770    662.000    602.638     59.362    561.394    602.627    561.394    561.394    561.394
 27.870    626.000    625.581      0.419    560.996    625.562    560.996    560.996    560.996
 27.970    652.526    668.815    -16.289    560.599    668.782    560.599    560.599    560.599
 28.070    687.450    739.069    -51.619    560.201    739.016    560.201    560.201    560.201
 28.170    828.823    830.928     -2.105    559.802    830.858    559.802    559.802    559.802
 28.270    881.586    916.267    -34.681    559.403    916.192    559.403    559.403    559.403
 28.370    979.000    949.356     29.644    559.003    949.292    559.003    559.003    559.003
 28.470    957.000    910.474     46.526    558.604    910.430    558.604    558.604    558.604
 28.570    853.000    838.776     14.224    558.203    838.745    558.203    558.203    558.203
 28.670    788.000    784.903      3.097    557.803    784.879    557.803    557.803    557.803
 28.770    748.338    772.746    -24.408    557.402    772.724    557.402    557.402    557.402
 28.870    825.893    797.850     28.044    557.000    797.830    557.000    557.000    557.000
 28.970    841.000    833.521      7.479    556.599    833.509    556.599    556.599    556.599
 29.070    910.000    842.594     67.406    556.197    842.593    556.197    556.197    556.197
 29.170    776.299    806.552    -30.253    555.795    806.559    555.795    555.795    555.795
 29.270    783.587    744.235     39.352    555.393    744.243    555.393    555.393    555.393
 29.370    742.577    683.163     59.414    554.991    683.170    554.991    554.991    554.991
 29.470    711.000    637.130     73.870    554.588    637.134    554.588    554.588    554.588
 29.570    634.000    607.808     26.192    554.186    607.810    554.186    554.186    554.186
 29.670    626.000    591.076     34.924    553.783    591.076    553.783    553.783    553.783
 29.770    662.000    581.878     80.122    553.381    581.877    553.381    553.381    553.381
 29.870    621.994    576.580     45.414    552.978    576.579    552.978    552.978    552.978
 29.970    643.000    573.231     69.769    552.575    573.229    552.575    552.575    552.575
 30.070    614.289    570.967     43.322    552.173    570.965    552.173    552.173    552.173
 30.170    619.000    569.467     49.533    551.770    569.464    551.770    551.770    551.770
 30.270    615.000    568.685     46.315    551.368    568.681    551.368    551.368    551.368
 30.370    605.601    568.826     36.775    550.965    568.821    550.965    550.965    550.965
 30.470    616.000    570.424     45.576    550.563    570.417    550.563    550.563    550.563
 30.570    609.000    574.392     34.608    550.161    574.382    550.161    550.161    550.161
 30.670    641.000    581.814     59.186    549.759    581.797    549.759    549.759    549.759
 30.770    625.000    593.282     31.718    549.357    593.256    549.357    549.357    549.357
 30.870    616.000    607.803      8.197    548.955    607.767    548.955    548.955    548.955
 30.970    694.000    621.408     72.592    548.554    621.364    548.554    548.554    548.554
 31.070    650.000    627.066     22.934    548.153    627.019    548.153    548.153    548.153
 31.170    680.000    620.440     59.560    547.752    620.400    547.752    547.752    547.752
 31.270    624.000    605.765     18.235    547.352    605.736    547.352    547.352    547.352
 31.370    574.556    590.063    -15.507    546.951    590.043    546.951    546.951    546.951
 31.470    531.468    577.333    -45.865    546.552    577.321    546.552    546.552    546.552
 31.570    613.000    568.586     44.414    546.152    568.579    546.152    546.152    546.152
 31.670    616.000    563.220     52.780    545.753    563.215    545.753    545.753    545.753
 31.770    591.000    560.124     30.876    545.354    560.120    545.354    545.354    545.354
 31.870    610.184    558.335     51.850    544.956    558.331    544.956    544.956    544.956
 31.970    544.159    557.250    -13.091    544.559    557.247    544.559    544.559    544.559
 32.070    576.000    556.565     19.435    544.161    556.562    544.161    544.161    544.161
 32.170    558.000    556.145      1.855    543.764    556.143    543.764    543.764    543.764
 32.270    577.000    555.937     21.063    543.368    555.935    543.368    543.368    543.368
 32.370    555.000    555.925     -0.925    542.973    555.923    542.973    542.973    542.973
 32.470    571.000    556.110     14.890    542.577    556.108    542.577    542.577    542.577
 32.570    590.000    556.509     33.491    542.183    556.507    542.183    542.183    542.183
 32.670    545.000    557.152    -12.152    541.789    557.151    541.789    541.789    541.789
 32.770    606.612    558.088     48.524    541.396    558.086    541.396    541.396    541.396
 32.870    547.000    559.385    -12.385    541.003    559.383    541.003    541.003    541.003
 32.970    576.000    561.146     14.854    540.611    561.144    540.611    540.611    540.611
 33.070    548.000    563.530    -15.530    540.219    563.528    540.219    540.219    540.219
 33.170    575.000    566.811      8.189    539.829    566.808    539.829    539.829    539.829
 33.270    539.000    571.526    -32.526    539.439    571.523    539.439    539.439    539.439
 33.370    592.000    578.798     13.202    539.050    578.794    539.050    539.050    539.050
 33.470    564.000    590.884    -26.884    538.661    590.877    538.661    538.661    538.661
 33.570    640.456    611.804     28.651    538.273    611.794    538.273    538.273    538.273
 33.670    628.192    647.441    -19.248    537.887    647.425    537.887    537.887    537.887
 33.770    670.000    704.130    -34.130    537.500    704.106    537.500    537.500    537.500
 33.870    714.000    785.059    -71.059    537.115    785.024    537.115    537.115    537.115
 33.970    916.000    884.433     31.567    536.731    884.388    536.731    536.731    536.731
 34.070    946.000    980.072    -34.072    536.347    980.022    536.347    536.347    536.347
 34.170   1068.000   1032.442     35.558    535.965   1032.399    535.965    535.965    535.965
 34.270   1017.986   1011.566      6.420    535.583   1011.540    535.583    535.583    535.583
 34.370    946.000    930.631     15.369    535.202    930.622    535.202    535.202    535.202
 34.470    823.000    828.925     -5.925    534.822    828.924    534.822    534.822    534.822
 34.570    708.365    737.190    -28.825    534.443    737.193    534.443    534.443    534.443
 34.670    667.000    668.198     -1.198    534.065    668.201    534.065    534.065    534.065
 34.770    633.489    622.320     11.169    533.688    622.321    533.688    533.688    533.688
 34.870    567.000    594.224    -27.224    533.312    594.225    533.312    533.312    533.312
 34.970    588.000    577.580     10.420    532.937    577.579    532.937    532.937    532.937
 35.070    578.000    567.453     10.547    532.563    567.452    532.563    532.563    532.563
 35.170    556.639    560.809     -4.170    532.190    560.808    532.190    532.190    532.190
 35.270    552.000    556.050     -4.050    531.818    556.049    531.818    531.818    531.818
 35.370    565.516    552.400     13.116    531.447    552.399    531.447    531.447    531.447
 35.470    539.330    549.476    -10.146    531.077    549.476    531.077    531.077    531.077
 35.570    575.000    547.069     27.931    530.709    547.068    530.709    530.709    530.709
 35.670    518.000    545.048    -27.048    530.341    545.047    530.341    530.341    530.341
 35.770    530.000    543.324    -13.324    529.975    543.324    529.975    529.975    529.975
 35.870    507.325    541.834    -34.509    529.609    541.834    529.609    529.609    529.609
 35.970    524.530    540.531    -16.001    529.245    540.531    529.245    529.245    529.245
 36.070    492.615    539.379    -46.765    528.882    539.379    528.882    528.882    528.882
 36.170    509.566    538.352    -28.785    528.520    538.352    528.520    528.520    528.520
 36.270    524.000    537.429    -13.429    528.160    537.428    528.160    528.160    528.160
 36.370    520.000    536.594    -16.594    527.801    536.594    527.801    527.801    527.801
 36.470    560.197    535.838     24.359    527.442    535.838    527.442    527.442    527.442
 36.570    498.000    535.150    -37.150    527.086    535.150    527.086    527.086    527.086
 36.670    501.818    534.527    -32.709    526.730    534.528    526.730    526.730    526.730
 36.770    489.000    533.967    -44.967    526.376    533.968    526.376    526.376    526.376
 36.870    498.078    533.475    -35.397    526.022    533.475    526.022    526.022    526.022
 36.970    518.000    533.065    -15.065    525.671    533.065    525.671    525.671    525.671
 37.070    499.000    532.777    -33.777    525.320    532.778    525.320    525.320    525.320
 37.170    548.000    532.699     15.301    524.971    532.700    524.971    524.971    524.971
 37.270    530.857    532.990     -2.133    524.623    532.991    524.623    524.623    524.623
 37.370    504.000    533.878    -29.878    524.277    533.879    524.277    524.277    524.277
 37.470    536.000    535.598      0.402    523.932    535.600    523.932    523.932    523.932
 37.570    575.000    538.235     36.765    523.588    538.237    523.588    523.588    523.588
 37.670    526.000    541.500    -15.500    523.245    541.503    523.245    523.245    523.245
 37.770    540.000    544.496     -4.496    522.904    544.501    522.904    522.904    522.904
 37.870    543.000    545.787     -2.787    522.565    545.794    522.565    522.565    522.565
 37.970    509.000    544.513    -35.513    522.227    544.521    522.227    522.227    522.227
 38.070    545.253    541.402      3.850    521.890    541.413    521.890    521.890    521.890
 38.170    518.000    537.726    -19.726    521.554    537.737    521.554    521.554    521.554
 38.270    579.562    534.279     45.283    521.220    534.290    521.220    521.220    521.220
 38.370    580.242    531.426     48.815    520.888    531.435    520.888    520.888    520.888
 38.470    563.699    529.260     34.440    520.557    529.266    520.557    520.557    520.557
 38.570    490.000    527.699    -37.699    520.227    527.704    520.227    520.227    520.227
 38.670    488.000    526.579    -38.579    519.899    526.582    519.899    519.899    519.899
 38.770    484.000    525.748    -41.748    519.573    525.750    519.573    519.573    519.573
 38.870    567.751    525.101     42.650    519.248    525.103    519.248    519.248    519.248
 38.970    500.000    524.569    -24.569    518.924    524.570    518.924    518.924    518.924
 39.070    513.000    524.108    -11.108    518.602    524.109    518.602    518.602    518.602
 39.170    471.000    523.693    -52.693    518.282    523.694    518.282    518.282    518.282
 39.270    540.000    523.311     16.689    517.963    523.312    517.963    517.963    517.963
 39.370    476.452    522.953    -46.500    517.645    522.953    517.645    517.645    517.645
 39.470    499.000    522.614    -23.614    517.329    522.614    517.329    517.329    517.329
 39.570    517.794    522.291     -4.497    517.015    522.292    517.015    517.015    517.015
 39.670    481.000    521.984    -40.984    516.702    521.985    516.702    516.702    516.702
 39.770    539.000    521.691     17.309    516.391    521.692    516.391    516.391    516.391
 39.870    500.000    521.412    -21.412    516.081    521.412    516.081    516.081    516.081
 39.970    513.000    521.145     -8.145    515.773    521.146    515.773    515.773    515.773
 40.070    532.870    520.892     11.977    515.467    520.893    515.467    515.467    515.467
 40.170    493.000    520.653    -27.653    515.162    520.653    515.162    515.162    515.162
 40.270    500.000    520.427    -20.427    514.859    520.428    514.859    514.859    514.859
 40.370    456.000    520.217    -64.217    514.558    520.218    514.558    514.558    514.558
 40.470    559.686    520.023     39.663    514.258    520.024    514.258    514.258    514.258
 40.570    539.000    519.848     19.152    513.960    519.849    513.960    513.960    513.960
 40.670    496.000    519.693    -23.693    513.663    519.694    513.663    513.663    513.663
 40.770    558.864    519.561     39.303    513.368    519.562    513.368    513.368    513.368
 40.870    543.475    519.456     24.019    513.075    519.457    513.075    513.075    513.075
 40.970    520.121    519.381      0.739    512.783    519.383    512.783    512.783    512.783
 41.070    543.047    519.344     23.703    512.493    519.345    512.493    512.493    512.493
 41.170    476.000    519.350    -43.350    512.205    519.352    512.205    512.205    512.205
 41.270    548.000    519.411     28.589    511.918    519.412    511.918    511.918    511.918
 41.370    533.000    519.537     13.463    511.633    519.539    511.633    511.633    511.633
 41.470    533.000    519.747     13.253    511.350    519.749    511.350    511.350    511.350
 41.570    494.000    520.065    -26.065    511.069    520.068    511.069    511.069    511.069
 41.670    533.000    520.533     12.467    510.789    520.535    510.789    510.789    510.789
 41.770    472.023    521.221    -49.198    510.511    521.223    510.511    510.511    510.511
 41.870    542.000    522.266     19.734    510.235    522.270    510.235    510.235    510.235
 41.970    479.775    523.936    -44.161    509.960    523.940    509.960    509.960    509.960
 42.070    492.000    526.714    -34.714    509.687    526.719    509.687    509.687    509.687
 42.170    547.000    531.379     15.621    509.416    531.387    509.416    509.416    509.416
 42.270    514.000    538.989    -24.989    509.147    539.000    509.147    509.147    509.147
 42.370    553.000    550.649      2.351    508.879    550.666    508.879    508.879    508.879
 42.470    543.000    567.008    -24.008    508.613    567.032    508.613    508.613    508.613
 42.570    545.000    587.513    -42.513    508.349    587.548    508.349    508.349    508.349
 42.670    558.000    609.480    -51.480    508.087    609.528    508.087    508.087    508.087
 42.770    683.221    627.312     55.910    507.826    627.371    507.826    507.826    507.826
 42.870    602.925    633.738    -30.813    507.567    633.804    507.567    507.567    507.567
 42.970    561.000    625.288    -64.288    507.310    625.351    507.310    507.310    507.310
 43.070    610.333    606.150      4.183    507.055    606.203    507.055    507.055    507.055
 43.170    594.000    583.688     10.312    506.801    583.729    506.801    506.801    506.801
 43.270    527.072    563.188    -36.115    506.549    563.218    506.549    506.549    506.549
 43.370    513.227    547.018    -33.791    506.299    547.039    506.299    506.299    506.299
 43.470    535.000    535.530     -0.530    506.051    535.544    506.051    506.051    506.051
 43.570    492.000    527.977    -35.977    505.805    527.986    505.805    505.805    505.805
 43.670    515.000    523.234     -8.234    505.560    523.240    505.560    505.560    505.560
 43.770    540.000    520.267     19.733    505.317    520.272    505.317    505.317    505.317
 43.870    564.472    518.333     46.139    505.076    518.337    505.076    505.076    505.076
 43.970    508.841    516.981     -8.141    504.837    516.985    504.837    504.837    504.837
 44.070    499.097    515.967    -16.870    504.600    515.969    504.600    504.600    504.600
 44.170    528.818    515.163     13.655    504.364    515.165    504.364    504.364    504.364
 44.270    526.000    514.505     11.495    504.131    514.507    504.131    504.131    504.131
 44.370    511.000    513.956     -2.956    503.899    513.958    503.899    503.899    503.899
 44.470    506.000    513.493     -7.493    503.668    513.494    503.668    503.668    503.668
 44.570    524.000    513.099     10.901    503.440    513.100    503.440    503.440    503.440
 44.670    560.870    512.762     48.108    503.214    512.763    503.214    503.214    503.214
 44.770    534.000    512.475     21.525    502.989    512.476    502.989    502.989    502.989
 44.870    506.000    512.230     -6.230    502.766    512.231    502.766    502.766    502.766
 44.970    535.557    512.023     23.534    502.545    512.023    502.545    502.545    502.545
 45.070    574.000    511.850     62.150    502.326    511.850    502.326    502.326    502.326
 45.170    556.975    511.708     45.267    502.108    511.708    502.108    502.108    502.108
 45.270    469.983    511.596    -41.613    501.893    511.597    501.893    501.893    501.893
 45.370    501.000    511.513    -10.513    501.679    511.513    501.679    501.679    501.679
 45.470    490.000    511.458    -21.458    501.467    511.458    501.467    501.467    501.467
 45.570    501.000    511.431    -10.431    501.257    511.432    501.257    501.257    501.257
 45.670    518.702    511.434      7.268    501.049    511.434    501.049    501.049    501.049
 45.770    497.108    511.466    -14.357    500.842    511.466    500.842    500.842    500.842
 45.870    520.757    511.530      9.227    500.638    511.529    500.638    500.638    500.638
 45.970    557.847    511.627     46.220    500.435    511.627    500.435    500.435    500.435
 46.070    495.000    511.762    -16.762    500.234    511.761    500.234    500.234    500.234
 46.170    476.000    511.937    -35.937    500.035    511.936    500.035    500.035    500.035
 46.270    494.893    512.158    -17.265    499.838    512.157    499.838    499.838    499.838
 46.370    558.000    512.430     45.570    499.642    512.429    499.642    499.642    499.642
 46.470    528.000    512.762     15.238    499.449    512.761    499.449    499.449    499.449
 46.570    521.000    513.165      7.835    499.257    513.164    499.257    499.257    499.257
 46.670    483.085    513.652    -30.567    499.067    513.650    499.067    499.067    499.067
 46.770    481.337    514.245    -32.908    498.879    514.243    498.879    498.879    498.879
 46.870    521.000    514.980      6.020    498.693    514.978    498.693    498.693    498.693
 46.970    500.000    515.921    -15.921    498.508    515.919    498.508    498.508    498.508
 47.070    469.669    517.187    -47.518    498.325    517.184    498.325    498.325    498.325
 47.170    555.203    518.991     36.213    498.145    518.986    498.145    498.145    498.145
 47.270    546.799    521.681     25.118    497.966    521.675    497.966    497.966    497.966
 47.370    523.755    525.760     -2.005    497.789    525.751    497.789    497.789    497.789
 47.470    551.000    531.834     19.166    497.613    531.821    497.613    497.613    497.613
 47.570    540.000    540.447     -0.447    497.440    540.428    497.440    497.440    497.440
 47.670    557.000    551.804      5.196    497.268    551.778    497.268    497.268    497.268
 47.770    615.937    565.411     50.526    497.098    565.375    497.098    497.098    497.098
 47.870    550.921    579.660    -28.739    496.930    579.614    496.930    496.930    496.930
 47.970    584.000    591.510     -7.510    496.764    591.457    496.764    496.764    496.764
 48.070    636.373    597.153     39.220    496.599    597.098    496.599    496.599    496.599
 48.170    605.000    594.608     10.392    496.437    594.557    496.437    496.437    496.437
 48.270    559.805    585.687    -25.882    496.276    585.645    496.276    496.276    496.276
 48.370    538.227    574.212    -35.985    496.117    574.179    496.117    496.117    496.117
 48.470    549.000    563.370    -14.370    495.960    563.346    495.960    495.960    495.960
 48.570    567.000    554.943     12.057    495.804    554.927    495.804    495.804    495.804
 48.670    515.000    549.587    -34.587    495.651    549.575    495.651    495.651    495.651
 48.770    586.238    547.244     38.994    495.499    547.236    495.499    495.499    495.499
 48.870    580.007    547.528     32.479    495.349    547.522    495.349    495.349    495.349
 48.970    534.000    550.022    -16.022    495.201    550.018    495.201    495.201    495.201
 49.070    550.000    554.501     -4.501    495.054    554.497    495.054    495.054    495.054
 49.170    597.352    561.104     36.248    494.910    561.100    494.910    494.910    494.910
 49.270    548.253    570.601    -22.348    494.767    570.597    494.767    494.767    494.767
 49.370    563.000    584.961    -21.961    494.626    584.956    494.626    494.626    494.626
 49.470    575.000    608.416    -33.416    494.486    608.408    494.486    494.486    494.486
 49.570    628.000    648.987    -20.987    494.349    648.972    494.349    494.349    494.349
 49.670    706.000    719.787    -13.787    494.213    719.762    494.213    494.213    494.213
 49.770    830.000    838.523     -8.523    494.079    838.480    494.079    494.079    494.079
 49.870   1021.746   1023.153     -1.407    493.947   1023.085    493.947    493.947    493.947
 49.970   1296.000   1282.848     13.152    493.816   1282.756    493.816    493.816    493.816
 50.070   1558.853   1606.083    -47.230    493.687   1605.972    493.687    493.687    493.687
 50.170   1963.670   1949.690     13.980    493.560   1949.582    493.560    493.560    493.560
 50.270   2192.492   2234.250    -41.758    493.435   2234.178    493.435    493.435    493.435
 50.370   2396.174   2362.312     33.861    493.312   2362.316    493.312    493.312    493.312
 50.470   2356.000   2279.424     76.576    493.190   2279.518    493.190    493.190    493.190
 50.570   2119.301   2023.956     95.345    493.070   2024.117    493.070    493.070    493.070
 50.670   1644.000   1690.021    -46.021    492.951   1690.204    492.951    492.951    492.951
 50.770   1265.000   1363.428    -98.428    492.835   1363.598    492.835    492.835    492.835
 50.870    984.000   1095.521   -111.521    492.720   1095.661    492.720    492.720    492.720
 50.970    912.448    904.014      8.434    492.607    904.122    492.607    492.607    492.607
 51.070    730.000    782.714    -52.714    492.495    782.795    492.495    492.495    492.495
 51.170    762.849    713.308     49.541    492.386    713.371    492.386    492.386    492.386
 51.270    708.726    675.188     33.538    492.278    675.240    492.278    492.278    492.278
 51.370    655.000    651.531      3.469    492.171    651.576    492.171    492.171    492.171
 51.470    680.434    632.281     48.152    492.067    632.320    492.067    492.067    492.067
 51.570    569.676    614.048    -44.373    491.964    614.080    491.964    491.964    491.964
 51.670    615.000    597.131     17.869    491.862    597.156    491.862    491.862    491.862
 51.770    568.000    582.607    -14.607    491.763    582.626    491.763    491.763    491.763
 51.870    619.422    571.161     48.261    491.665    571.175    491.665    491.665    491.665
 51.970    593.373    562.910     30.463    491.569    562.920    491.569    491.569    491.569
 52.070    588.000    557.543     30.457    491.474    557.551    491.474    491.474    491.474
 52.170    578.000    554.561     23.439    491.381    554.566    491.381    491.381    491.381
 52.270    540.101    553.494    -13.393    491.290    553.499    491.290    491.290    491.290
 52.370    593.000    554.056     38.944    491.200    554.061    491.200    491.200    491.200
 52.470    547.075    556.242     -9.167    491.112    556.246    491.112    491.112    491.112
 52.570    580.000    560.425     19.575    491.025    560.428    491.025    491.025    491.025
 52.670    532.985    567.509    -34.524    490.941    567.512    490.941    490.941    490.941
 52.770    590.000    579.144     10.856    490.858    579.146    490.858    490.858    490.858
 52.870    586.000    597.923    -11.923    490.776    597.925    490.776    490.776    490.776
 52.970    624.000    627.390     -3.390    490.696    627.391    490.696    490.696    490.696
 53.070    648.000    671.613    -23.613    490.618    671.614    490.618    490.618    490.618
 53.170    770.000    734.182     35.818    490.541    734.183    490.541    490.541    490.541
 53.270    814.541    816.507     -1.966    490.466    816.510    490.466    490.466    490.466
 53.370    917.000    915.808      1.192    490.392    915.814    490.392    490.392    490.392
 53.470   1016.418   1022.867     -6.449    490.320   1022.880    490.320    490.320    490.320
 53.570   1110.610   1120.249     -9.639    490.250   1120.271    490.250    490.250    490.250
 53.670   1202.731   1183.866     18.866    490.181   1183.899    490.181    490.181    490.181
 53.770   1211.000   1192.779     18.221    490.113   1192.823    490.113    490.113    490.113
 53.870   1195.000   1143.652     51.348    490.048   1143.701    490.048    490.048    490.048
 53.970    986.000   1053.716    -67.716    489.983   1053.763    489.983    489.983    489.983
 54.070   1017.846    947.839     70.007    489.921    947.881    489.921    489.921    489.921
 54.170    856.000    845.870     10.130    489.859    845.904    489.859    489.859    489.859
 54.270    784.837    759.174     25.663    489.800    759.200    489.800    489.800    489.800
 54.370    662.000    692.068    -30.068    489.742    692.087    489.742    489.742    489.742
 54.470    640.000    644.064     -4.064    489.685    644.078    489.685    489.685    489.685
 54.570    666.479    611.990     54.489    489.630    612.001    489.630    489.630    489.630
 54.670    618.576    591.774     26.802    489.576    591.781    489.576    489.576    489.576
 54.770    563.737    579.653    -15.916    489.524    579.659    489.524    489.524    489.524
 54.870    583.434    572.757     10.677    489.473    572.762    489.473    489.473    489.473
 54.970    572.000    569.182      2.818    489.424    569.186    489.424    489.424    489.424
 55.070    596.000    567.805     28.195    489.376    567.809    489.376    489.376    489.376
 55.170    552.922    568.033    -15.111    489.330    568.037    489.330    489.330    489.330
 55.270    537.828    569.602    -31.773    489.285    569.605    489.285    489.285    489.285
 55.370    554.000    572.439    -18.439    489.241    572.443    489.241    489.241    489.241
 55.470    529.398    576.612    -47.214    489.199    576.616    489.199    489.199    489.199
 55.570    603.664    582.325     21.338    489.158    582.329    489.158    489.158    489.158
 55.670    617.000    589.991     27.009    489.119    589.995    489.119    489.119    489.119
 55.770    572.556    600.397    -27.841    489.081    600.400    489.081    489.081    489.081
 55.870    654.971    615.009     39.962    489.045    615.012    489.045    489.045    489.045
 55.970    655.000    636.460     18.540    489.010    636.462    489.010    489.010    489.010
 56.070    646.000    669.175    -23.175    488.976    669.176    488.976    488.976    488.976
 56.170    681.190    719.957    -38.767    488.944    719.955    488.944    488.944    488.944
 56.270    834.203    798.124     36.079    488.913    798.118    488.913    488.913    488.913
 56.370    873.034    914.671    -41.637    488.883    914.660    488.883    488.883    488.883
 56.470    952.000   1079.881   -127.881    488.855   1079.865    488.855    488.855    488.855
 56.570   1261.499   1299.493    -37.994    488.828   1299.475    488.828    488.828    488.828
 56.670   1645.348   1569.851     75.497    488.803   1569.839    488.803    488.803    488.803
 56.770   1844.000   1872.845    -28.845    488.779   1872.850    488.779    488.779    488.779
 56.870   2247.885   2171.302     76.583    488.756   2171.339    488.756    488.756    488.756
 56.970   2410.997   2408.026      2.970    488.734   2408.116    488.734    488.734    488.734
 57.070   2467.595   2519.178    -51.583    488.714   2519.332    488.714    488.714    488.714
 57.170   2571.098   2468.552    102.546    488.695   2468.768    488.695    488.695    488.695
 57.270   2256.000   2274.434    -18.434    488.677   2274.688    488.677    488.677    488.677
 57.370   2075.793   1994.707     81.085    488.660   1994.963    488.660    488.660    488.660
 57.470   1684.436   1691.129     -6.693    488.645   1691.361    488.645    488.645    488.645
 57.570   1348.398   1408.605    -60.207    488.631   1408.798    488.631    488.631    488.631
 57.670   1162.000   1172.161    -10.161    488.618   1172.312    488.618    488.618    488.618
 57.770    940.253    990.663    -50.409    488.607    990.773    488.607    488.607    488.607
 57.870    911.674    861.872     49.802    488.596    861.948    488.596    488.596    488.596
 57.970    801.000    777.595     23.405    488.587    777.645    488.587    488.587    488.587
 58.070    698.828    728.132    -29.303    488.579    728.162    488.579    488.579    488.579
 58.170    653.355    705.279    -51.924    488.572    705.294    488.572    488.572    488.572
 58.270    696.917    703.628     -6.712    488.567    703.631    488.567    488.567    488.567
 58.370    720.000    720.439     -0.439    488.563    720.432    488.563    488.563    488.563
 58.470    729.293    754.604    -25.311    488.559    754.588    488.559    488.559    488.559
 58.570    851.243    805.227     46.016    488.557    805.204    488.557    488.557    488.557
 58.670    811.254    870.124    -58.870    488.556    870.095    488.556    488.556    488.556
 58.770    952.000    944.585      7.415    488.557    944.557    488.557    488.557    488.557
 58.870   1004.633   1021.256    -16.622    488.558   1021.232    488.558    488.558    488.558
 58.970   1149.034   1092.085     56.949    488.560   1092.072    488.560    488.560    488.560
 59.070   1133.000   1150.773    -17.773    488.564   1150.772    488.564    488.564    488.564
 59.170   1326.000   1192.422    133.578    488.569   1192.435    488.569    488.569    488.569
 59.270   1257.000   1212.184     44.816    488.574   1212.209    488.574    488.574    488.574
 59.370   1272.000   1208.033     63.967    488.581   1208.065    488.581    488.581    488.581
 59.470   1163.514   1185.486    -21.972    488.589   1185.514    488.589    488.589    488.589
 59.570   1234.000   1156.725     77.275    488.598   1156.735    488.598    488.598    488.598
 59.670   1194.000   1134.624     59.376    488.608   1134.606    488.608    488.608    488.608
 59.770   1246.000   1128.666    117.334    488.619   1128.612    488.619    488.619    488.619
 59.870   1193.000   1145.191     47.809    488.631   1145.095    488.631    488.631    488.631
 59.970   1199.000   1188.378     10.622    488.644   1188.237    488.644    488.644    488.644
 60.070   1283.000   1258.455     24.545    488.658   1258.268    488.658    488.658    488.658
 60.170   1315.917   1348.285    -32.367    488.673   1348.058    488.673    488.673    488.673
 60.270   1383.615   1441.202    -57.587    488.689   1440.947    488.689    488.689    488.689
 60.370   1590.000   1511.848     78.152    488.706   1511.587    488.706    488.706    488.706
 60.470   1574.000   1533.090     40.910    488.724   1532.849    488.724    488.724    488.724
 60.570   1565.000   1490.067     74.933    488.743   1489.870    488.743    488.743    488.743
 60.670   1455.000   1390.003     64.997    488.763   1389.858    488.763    488.763    488.763
 60.770   1339.000   1255.942     83.058    488.784   1255.844    488.784    488.784    488.784
 60.870   1044.707   1113.042    -68.335    488.806   1112.981    488.806    488.806    488.806
 60.970   1040.000    980.489     59.511    488.829    980.453    488.829    488.829    488.829
 61.070    833.000    869.898    -36.898    488.852    869.876    488.852    488.852    488.852
 61.170    772.000    786.396    -14.396    488.877    786.380    488.877    488.877    488.877
 61.270    776.471    730.565     45.906    488.902    730.549    488.902    488.902    488.902
 61.370    716.000    700.653     15.347    488.928    700.632    488.928    488.928    488.928
 61.470    754.869    694.581     60.288    488.955    694.551    488.955    488.955    488.955
 61.570    763.000    711.204     51.796    488.983    711.163    488.983    488.983    488.983
 61.670    747.412    750.549     -3.136    489.012    750.492    489.012    489.012    489.012
 61.770    801.000    813.035    -12.035    489.041    812.959    489.041    489.041    489.041
 61.870    885.000    898.000    -13.000    489.072    897.902    489.072    489.072    489.072
 61.970    988.000   1001.947    -13.947    489.103   1001.828    489.103    489.103    489.103
 62.070   1175.975   1116.910     59.065    489.135   1116.773    489.135    489.135    489.135
 62.170   1227.959   1229.222     -1.263    489.168   1229.074    489.168    489.168    489.168
 62.270   1261.000   1319.626    -58.626    489.201   1319.482    489.201    489.201    489.201
 62.370   1326.754   1367.201    -40.446    489.236   1367.076    489.236    489.236    489.236
 62.470   1341.000   1358.455    -17.455    489.271   1358.362    489.271    489.271    489.271
 62.570   1307.569   1295.544     12.025    489.307   1295.485    489.307    489.307    489.307
 62.670   1198.070   1194.684      3.386    489.343   1194.653    489.343    489.343    489.343
 62.770   1025.000   1076.798    -51.798    489.380   1076.786    489.380    489.380    489.380
 62.870    874.000    959.651    -85.651    489.418    959.651    489.418    489.418    489.418
 62.970    834.273    855.085    -20.811    489.457    855.090    489.457    489.457    489.457
 63.070    743.000    769.219    -26.219    489.496    769.226    489.496    489.496    489.496
 63.170    667.000    703.611    -36.611    489.536    703.615    489.536    489.536    489.536
 63.270    636.000    656.689    -20.689    489.577    656.691    489.577    489.577    489.577
 63.370    636.000    625.249     10.751    489.618    625.247    489.618    489.618    489.618
 63.470    625.000    605.728     19.272    489.660    605.723    489.660    489.660    489.660
 63.570    628.543    595.102     33.441    489.703    595.095    489.703    489.703    489.703
 63.670    617.295    591.347     25.949    489.746    591.336    489.746    489.746    489.746
 63.770    644.000    593.558     50.442    489.790    593.544    489.790    489.790    489.790
 63.870    618.000    601.852     16.148    489.835    601.833    489.835    489.835    489.835
 63.970    672.201    617.122     55.079    489.880    617.095    489.880    489.880    489.880
 64.070    690.687    640.682     50.005    489.925    640.646    489.925    489.925    489.925
 64.170    683.000    673.811      9.189    489.971    673.763    489.971    489.971    489.971
 64.270    684.000    717.191    -33.191    490.018    717.130    490.018    490.018    490.018
 64.370    808.000    770.296     37.704    490.065    770.219    490.065    490.065    490.065
 64.470    880.000    830.757     49.243    490.113    830.665    490.113    490.113    490.113
 64.570    859.000    893.812    -34.812    490.162    893.707    490.162    490.162    490.162
 64.670    905.484    952.105    -46.621    490.210    951.993    490.210    490.210    490.210
 64.770   1021.000    996.622     24.378    490.260    996.511    490.260    490.260    490.260
 64.870   1040.000   1019.379     20.621    490.309   1019.278    490.309    490.309    490.309
 64.970   1046.000   1016.739     29.261    490.360   1016.655    490.360    490.360    490.360
 65.070   1015.000    990.780     24.220    490.410    990.718    490.410    490.410    490.410
 65.170    930.897    947.949    -17.052    490.462    947.910    490.462    490.462    490.462
 65.270    911.000    896.449     14.551    490.513    896.430    490.513    490.513    490.513
 65.370    785.000    843.688    -58.688    490.565    843.687    490.565    490.565    490.565
 65.470    770.000    794.642    -24.642    490.618    794.655    490.618    490.618    490.618
 65.570    776.749    751.556     25.193    490.671    751.579    490.671    490.671    490.671
 65.670    675.000    714.601    -39.601    490.724    714.629    490.724    490.724    490.724
 65.770    664.000    683.149    -19.149    490.778    683.178    490.778    490.778    490.778
 65.870    608.000    656.721    -48.721    490.832    656.747    490.832    490.832    490.832
 65.970    669.358    635.093     34.265    490.886    635.115    490.886    490.886    490.886
 66.070    620.000    618.023      1.977    490.941    618.039    490.941    490.941    490.941
 66.170    568.787    605.137    -36.349    490.996    605.149    490.996    490.996    490.996
 66.270    608.000    595.993     12.007    491.051    596.001    491.051    491.051    491.051
 66.370    576.000    590.156    -14.156    491.107    590.162    491.107    491.107    491.107
 66.470    587.000    587.251     -0.251    491.163    587.255    491.163    491.163    491.163
 66.570    582.247    586.992     -4.745    491.219    586.995    491.219    491.219    491.219
 66.670    562.000    589.249    -27.249    491.276    589.252    491.276    491.276    491.276
 66.770    629.000    594.140     34.860    491.333    594.143    491.333    491.333    491.333
 66.870    601.000    602.176     -1.176    491.390    602.180    491.390    491.390    491.390
 66.970    573.000    614.452    -41.452    491.447    614.456    491.447    491.447    491.447
 67.070    685.385    632.879     52.506    491.505    632.882    491.505    491.505    491.505
 67.170    606.242    660.418    -54.176    491.563    660.420    491.563    491.563    491.563
 67.270    679.915    701.244    -21.329    491.621    701.245    491.621    491.621    491.621
 67.370    715.981    760.690    -44.708    491.679    760.689    491.679    491.679    491.679
 67.470    790.000    844.813    -54.813    491.737    844.811    491.737    491.737    491.737
 67.570   1028.003    959.464     68.539    491.796    959.465    491.796    491.796    491.796
 67.670   1038.000   1108.846    -70.846    491.855   1108.854    491.855    491.855    491.855
 67.770   1346.554   1293.707     52.847    491.913   1293.730    491.913    491.913    491.913
 67.870   1373.000   1509.458   -136.458    491.973   1509.507    491.973    491.973    491.973
 67.970   1792.409   1744.446     47.963    492.032   1744.533    492.032    492.032    492.032
 68.070   1959.000   1978.559    -19.559    492.091   1978.698    492.091    492.091    492.091
 68.170   2191.000   2182.875      8.125    492.150   2183.077    492.150    492.150    492.150
 68.270   2245.000   2322.789    -77.789    492.210   2323.060    492.210    492.210    492.210
 68.370   2352.000   2368.095    -16.095    492.270   2368.424    492.270    492.270    492.270
 68.470   2411.186   2307.594    103.592    492.329   2307.960    492.329    492.329    492.329
 68.570   2254.655   2155.955     98.700    492.389   2156.325    492.389    492.389    492.389
 68.670   2015.000   1945.057     69.943    492.449   1945.406    492.449    492.449    492.449
 68.770   1781.972   1709.255     72.717    492.509   1709.565    492.509    492.509    492.509
 68.870   1432.000   1476.279    -44.279    492.568   1476.541    492.568    492.568    492.568
 68.970   1240.000   1264.893    -24.893    492.628   1265.104    492.628    492.628    492.628
 69.070   1143.734   1085.560     58.174    492.688   1085.724    492.688    492.688    492.688
 69.170    976.000    941.928     34.072    492.748    942.051    492.748    492.748    492.748
 69.270    790.590    832.585    -41.995    492.808    832.675    492.808    492.808    492.808
 69.370    699.000    752.949    -53.949    492.868    753.014    492.868    492.868    492.868
 69.470    742.000    697.033     44.967    492.928    697.080    492.928    492.928    492.928
 69.570    714.000    658.812     55.188    492.987    658.846    492.987    492.987    492.987
 69.670    633.000    633.074     -0.074    493.047    633.099    493.047    493.047    493.047
 69.770    654.000    615.776     38.224    493.107    615.794    493.107    493.107    493.107
 69.870    585.000    604.044    -19.044    493.166    604.058    493.166    493.166    493.166
 69.970    608.000    595.980     12.020    493.226    595.992    493.226    493.226    493.226
 70.070    563.476    590.407    -26.931    493.285    590.417    493.285    493.285    493.285
 70.170    565.049    586.636    -21.588    493.344    586.643    493.344    493.344    493.344
 70.270    602.000    584.292     17.708    493.403    584.298    493.403    493.403    493.403
 70.370    582.000    583.206     -1.206    493.462    583.210    493.462    493.462    493.462
 70.470    600.000    583.361     16.639    493.521    583.364    493.521    493.521    493.521
 70.570    569.000    584.886    -15.886    493.580    584.887    493.580    493.580    493.580
 70.670    582.000    588.093     -6.093    493.638    588.092    493.638    493.638    493.638
 70.770    628.101    593.551     34.551    493.696    593.547    493.696    493.696    493.696
 70.870    608.000    602.193      5.807    493.754    602.187    493.754    493.754    493.754
 70.970    672.000    615.446     56.554    493.812    615.435    493.812    493.812    493.812
 71.070    573.000    635.337    -62.337    493.870    635.320    493.870    493.870    493.870
 71.170    681.000    664.553     16.447    493.927    664.528    493.927    493.927    493.927
 71.270    681.352    706.352    -25.000    493.985    706.317    493.985    493.985    493.985
 71.370    726.000    764.283    -38.283    494.042    764.233    494.042    494.042    494.042
 71.470    832.000    841.650     -9.650    494.098    841.583    494.098    494.098    494.098
 71.570    859.000    940.749    -81.749    494.155    940.662    494.155    494.155    494.155
 71.670    998.000   1061.943    -63.943    494.211   1061.834    494.211    494.211    494.211
 71.770   1206.000   1202.707      3.293    494.267   1202.576    494.267    494.267    494.267
 71.870   1360.000   1356.752      3.248    494.322   1356.603    494.322    494.322    494.322
 71.970   1483.164   1513.307    -30.142    494.378   1513.144    494.378    494.378    494.378
 72.070   1648.000   1656.809     -8.809    494.432   1656.643    494.432    494.432    494.432
 72.170   1709.000   1767.955    -58.955    494.487   1767.798    494.487    494.487    494.487
 72.270   1847.000   1827.631     19.369    494.541   1827.497    494.541    494.541    494.541
 72.370   1865.000   1823.778     41.222    494.595   1823.676    494.595    494.595    494.595
 72.470   1820.000   1757.149     62.851    494.649   1757.082    494.649    494.649    494.649
 72.570   1769.000   1640.897    128.103    494.702   1640.860    494.702    494.702    494.702
 72.670   1510.000   1494.402     15.598    494.754   1494.389    494.754    494.754    494.754
 72.770   1256.544   1336.657    -80.113    494.807   1336.659    494.807    494.807    494.807
 72.870   1253.195   1182.702     70.493    494.859   1182.714    494.859    494.859    494.859
 72.970   1021.414   1042.793    -21.380    494.910   1042.810    494.910    494.910    494.910
 73.070    930.216    922.768      7.448    494.961    922.785    494.961    494.961    494.961
 73.170    816.000    824.792     -8.792    495.012    824.807    495.012    495.012    495.012
 73.270    855.000    748.257    106.743    495.062    748.269    495.062    495.062    495.062
 73.370    663.145    690.737    -27.592    495.112    690.747    495.112    495.112    495.112
 73.470    699.000    648.899     50.101    495.161    648.907    495.161    495.161    495.161
 73.570    678.000    619.241     58.759    495.210    619.247    495.210    495.210    495.210
 73.670    624.796    598.595     26.202    495.258    598.599    495.258    495.258    495.258
 73.770    653.000    584.385     68.615    495.306    584.389    495.306    495.306    495.306
 73.870    649.000    574.691     74.309    495.353    574.697    495.353    495.353    495.353
 73.970    532.273    568.180    -35.907    495.400    568.187    495.400    495.400    495.400
 74.070    646.000    563.975     82.025    495.446    563.985    495.446    495.446    495.446
 74.170    609.669    561.511     48.158    495.492    561.524    495.492    495.492    495.492
 74.270    515.243    560.409    -45.166    495.537    560.426    495.537    495.537    495.537
 74.370    557.909    560.372     -2.463    495.582    560.395    495.582    495.582    495.582
 74.470    651.000    561.118     89.882    495.626    561.146    495.626    495.626    495.626
 74.570    544.394    562.324    -17.930    495.669    562.358    495.669    495.669    495.669
 74.670    602.000    563.608     38.392    495.712    563.647    495.712    495.712    495.712
 74.770    573.163    564.533      8.631    495.754    564.576    495.754    495.754    495.754
 74.870    656.000    564.675     91.325    495.796    564.721    495.796    495.796    495.796
 74.970    601.000    563.756     37.244    495.837    563.803    495.837    495.837    495.837
 75.070    575.190    561.761     13.429    495.877    561.806    495.877    495.877    495.877
 75.170    650.000    558.963     91.037    495.917    559.004    495.917    495.917    495.917
 75.270    615.000    555.826     59.174    495.956    555.862    495.956    495.956    495.956
 75.370    631.000    552.882     78.118    495.994    552.911    495.994    495.994    495.994
 75.470    581.000    550.655     30.345    496.032    550.677    496.032    496.032    496.032
 75.570    585.000    549.645     35.355    496.069    549.662    496.069    496.069    496.069
 75.670    525.488    550.335    -24.847    496.106    550.344    496.106    496.106    496.106
 75.770    536.000    553.181    -17.181    496.141    553.184    496.141    496.141    496.141
 75.870    561.000    558.604      2.396    496.176    558.600    496.176    496.176    496.176
 75.970    579.558    566.939     12.619    496.211    566.929    496.211    496.211    496.211
 76.070    582.000    578.384      3.616    496.244    578.366    496.244    496.244    496.244
 76.170    562.375    592.916    -30.541    496.277    592.890    496.277    496.277    496.277
 76.270    603.000    610.210     -7.210    496.309    610.177    496.309    496.309    496.309
 76.370    645.000    629.565     15.435    496.340    629.524    496.340    496.340    496.340
 76.470    671.862    649.832     22.030    496.371    649.783    496.371    496.371    496.371
 76.570    656.000    669.369    -13.369    496.401    669.314    496.401    496.401    496.401
 76.670    707.000    686.070     20.930    496.430    686.011    496.430    496.430    496.430
 76.770    701.000    697.601      3.399    496.458    697.540    496.458    496.458    496.458
 76.870    709.000    701.973      7.027    496.485    701.914    496.485    496.485    496.485
 76.970    676.000    698.297    -22.297    496.512    698.244    496.512    496.512    496.512
 77.070    640.302    687.197    -46.896    496.538    687.151    496.538    496.538    496.538
 77.170    660.952    670.501     -9.549    496.563    670.462    496.563    496.563    496.563
 77.270    644.000    650.501     -6.501    496.587    650.470    496.587    496.587    496.587
 77.370    639.000    629.336      9.664    496.610    629.311    496.610    496.610    496.610
 77.470    609.000    608.695      0.305    496.633    608.676    496.633    496.633    496.633
 77.570    562.589    589.762    -27.173    496.654    589.748    496.654    496.654    496.654
 77.670    580.126    573.250      6.876    496.675    573.240    496.675    496.675    496.675
 77.770    561.000    559.473      1.527    496.695    559.465    496.695    496.695    496.695
 77.870    500.000    548.422    -48.422    496.714    548.417    496.714    496.714    496.714
 77.970    515.247    539.867    -24.620    496.732    539.864    496.732    496.732    496.732
 78.070    515.000    533.443    -18.443    496.749    533.440    496.749    496.749    496.749
 78.170    550.040    528.746     21.294    496.765    528.744    496.765    496.765    496.765
 78.270    530.000    525.376      4.624    496.781    525.374    496.781    496.781    496.781
 78.370    524.000    522.986      1.014    496.795    522.985    496.795    496.795    496.795
 78.470    500.000    521.301    -21.301    496.809    521.300    496.809    496.809    496.809
 78.570    484.223    520.114    -35.891    496.821    520.113    496.821    496.821    496.821
 78.670    568.450    519.280     49.170    496.833    519.279    496.833    496.833    496.833
 78.770    555.000    518.705     36.295    496.844    518.704    496.844    496.844    496.844
 78.870    526.000    518.331      7.669    496.854    518.331    496.854    496.854    496.854
 78.970    528.669    518.130     10.539    496.862    518.129    496.862    496.862    496.862
 79.070    481.000    518.090    -37.090    496.870    518.090    496.870    496.870    496.870
 79.170    460.000    518.217    -58.217    496.877    518.217    496.877    496.877    496.877
 79.270    496.918    518.526    -21.608    496.883    518.526    496.883    496.883    496.883
 79.370    507.416    519.043    -11.627    496.888    519.042    496.888    496.888    496.888
 79.470    516.000    519.801     -3.801    496.892    519.800    496.892    496.892    496.892
 79.570    533.000    520.845     12.155    496.894    520.844    496.894    496.894    496.894
 79.670    472.477    522.233    -49.756    496.896    522.231    496.896    496.896    496.896
 79.770    512.979    524.038    -11.059    496.897    524.036    496.897    496.897    496.897
 79.870    550.000    526.359     23.641    496.897    526.357    496.897    496.897    496.897
 79.970    528.000    529.327     -1.327    496.895    529.324    496.895    496.895    496.895
 80.070    522.000    533.108    -11.108    496.893    533.105    496.893    496.893    496.893
 80.170    567.000    537.908     29.092    496.890    537.904    496.890    496.890    496.890
 80.270    548.000    543.970      4.030    496.885    543.967    496.885    496.885    496.885
 80.370    571.025    551.578     19.447    496.880    551.576    496.880    496.880    496.880
 80.470    637.000    561.040     75.960    496.873    561.039    496.873    496.873    496.873
 80.570    592.000    572.665     19.335    496.866    572.666    496.866    496.866    496.866
 80.670    629.000    586.699     42.301    496.857    586.703    496.857    496.857    496.857
 80.770    614.000    603.239     10.761    496.847    603.247    496.847    496.847    496.847
 80.870    604.000    622.139    -18.139    496.836    622.152    496.836    496.836    496.836
 80.970    605.000    642.942    -37.942    496.824    642.960    496.824    496.824    496.824
 81.070    616.723    664.844    -48.122    496.811    664.868    496.811    496.811    496.811
 81.170    658.163    686.737    -28.574    496.797    686.768    496.797    496.797    496.797
 81.270    680.000    707.345    -27.345    496.781    707.383    496.781    496.781    496.781
 81.370    745.000    725.429     19.571    496.765    725.474    496.765    496.765    496.765
 81.470    691.000    739.953    -48.953    496.747    740.005    496.747    496.747    496.747
 81.570    706.000    750.164    -44.164    496.728    750.223    496.728    496.728    496.728
 81.670    711.422    755.638    -44.217    496.708    755.704    496.708    496.708    496.708
 81.770    734.000    756.308    -22.308    496.687    756.379    496.687    496.687    496.687
 81.870    737.000    752.404    -15.404    496.665    752.479    496.665    496.665    496.665
 81.970    676.000    744.340    -68.340    496.642    744.417    496.642    496.642    496.642
 82.070    751.000    732.672     18.328    496.617    732.750    496.617    496.617    496.617
 82.170    712.000    718.144     -6.144    496.591    718.222    496.591    496.591    496.591
 82.270    653.000    701.684    -48.684    496.564    701.760    496.564    496.564    496.564
 82.370    642.992    684.247    -41.255    496.536    684.320    496.536    496.536    496.536
 82.470    714.493    666.613     47.881    496.507    666.682    496.507    496.507    496.507
 82.570    687.323    649.299     38.024    496.477    649.364    496.477    496.477    496.477
 82.670    686.605    632.625     53.980    496.445    632.684    496.445    496.445    496.445
 82.770    616.000    616.851     -0.851    496.412    616.904    496.412    496.412    496.412
 82.870    629.454    602.273     27.181    496.378    602.318    496.378    496.378    496.378
 82.970    529.000    589.221    -60.221    496.343    589.259    496.343    496.343    496.343
 83.070    541.000    577.999    -36.999    496.306    578.029    496.306    496.306    496.306
 83.170    598.395    568.836     29.559    496.268    568.858    496.268    496.268    496.268
 83.270    523.000    561.864    -38.864    496.230    561.878    496.230    496.230    496.230
 83.370    605.470    557.122     48.348    496.189    557.128    496.189    496.189    496.189
 83.470    506.770    554.554    -47.783    496.148    554.551    496.148    496.148    496.148
 83.570    548.000    554.008     -6.008    496.105    553.997    496.105    496.105    496.105
 83.670    556.000    555.238      0.762    496.062    555.220    496.062    496.062    496.062
 83.770    527.231    557.900    -30.669    496.016    557.874    496.016    496.016    496.016
 83.870    564.000    561.554      2.446    495.970    561.521    495.970    495.970    495.970
 83.970    574.000    565.666      8.334    495.922    565.627    495.922    495.922    495.922
 84.070    585.298    569.589     15.709    495.874    569.546    495.874    495.874    495.874
 84.170    529.205    572.775    -43.570    495.823    572.729    495.823    495.823    495.823
 84.270    556.790    574.595    -17.805    495.772    574.548    495.772    495.772    495.772
 84.370    519.000    574.607    -55.607    495.719    574.560    495.719    495.719    495.719
 84.470    582.000    572.659      9.341    495.665    572.614    495.665    495.665    495.665
 84.570    621.073    568.917     52.156    495.610    568.876    495.610    495.610    495.610
 84.670    530.753    563.790    -33.037    495.554    563.753    495.554    495.554    495.554
 84.770    551.000    557.786     -6.786    495.496    557.754    495.496    495.496    495.496
 84.870    552.752    551.407      1.345    495.437    551.379    495.437    495.437    495.437
 84.970    563.811    545.078     18.734    495.377    545.055    495.377    495.377    495.377
 85.070    524.000    539.128    -15.128    495.315    539.110    495.315    495.315    495.315
 85.170    496.770    533.789    -37.019    495.252    533.774    495.252    495.252    495.252
 85.270    501.000    529.197    -28.197    495.188    529.184    495.188    495.188    495.188
 85.370    559.000    525.406     33.594    495.123    525.396    495.123    495.123    495.123
 85.470    470.000    522.410    -52.410    495.056    522.401    495.056    495.056    495.056
 85.570    505.000    520.156    -15.156    494.988    520.148    494.988    494.988    494.988
 85.670    491.683    518.566    -26.882    494.919    518.558    494.919    494.919    494.919
 85.770    505.000    517.564    -12.564    494.848    517.557    494.848    494.848    494.848
 85.870    525.000    517.077      7.923    494.776    517.070    494.776    494.776    494.776
 85.970    527.000    517.056      9.944    494.703    517.049    494.703    494.703    494.703
 86.070    533.472    517.480     15.992    494.628    517.471    494.628    494.628    494.628
 86.170    521.000    518.360      2.640    494.552    518.350    494.552    494.552    494.552
 86.270    492.000    519.738    -27.738    494.475    519.726    494.475    494.475    494.475
 86.370    518.489    521.689     -3.200    494.397    521.674    494.397    494.397    494.397
 86.470    561.000    524.309     36.691    494.317    524.290    494.317    494.317    494.317
 86.570    546.000    527.709     18.291    494.236    527.686    494.236    494.236    494.236
 86.670    570.163    532.006     38.157    494.153    531.978    494.153    494.153    494.153
 86.770    504.584    537.302    -32.718    494.070    537.268    494.070    494.070    494.070
 86.870    547.000    543.671      3.329    493.985    543.629    493.985    493.985    493.985
 86.970    563.175    551.130     12.045    493.898    551.080    493.898    493.898    493.898
 87.070    557.000    559.622     -2.622    493.811    559.562    493.811    493.811    493.811
 87.170    602.000    568.986     33.014    493.722    568.916    493.722    493.722    493.722
 87.270    599.000    578.943     20.057    493.631    578.863    493.631    493.631    493.631
 87.370    561.000    589.079    -28.079    493.540    588.989    493.540    493.540    493.540
 87.470    636.000    598.841     37.159    493.447    598.742    493.447    493.447    493.447
 87.570    589.000    607.560    -18.560    493.353    607.455    493.353    493.353    493.353
 87.670    638.000    614.510     23.490    493.257    614.401    493.257    493.257    493.257
 87.770    633.000    619.034     13.966    493.160    618.924    493.160    493.160    493.160
 87.870    607.112    620.709    -13.597    493.062    620.603    493.062    493.062    493.062
 87.970    609.514    619.471     -9.957    492.962    619.371    492.962    492.962    492.962
 88.070    653.000    615.636     37.364    492.862    615.546    492.862    492.862    492.862
 88.170    569.973    609.806    -39.833    492.759    609.728    492.759    492.759    492.759
 88.270    600.000    602.723     -2.723    492.656    602.657    492.656    492.656    492.656
 88.370    590.000    595.153     -5.153    492.551    595.100    492.551    492.551    492.551
 88.470    557.121    587.810    -30.690    492.445    587.769    492.445    492.445    492.445
 88.570    560.000    581.315    -21.315    492.338    581.285    492.338    492.338    492.338
 88.670    558.000    576.158    -18.158    492.229    576.139    492.229    492.229    492.229
 88.770    570.000    572.683     -2.683    492.119    572.674    492.119    492.119    492.119
 88.870    549.000    571.070    -22.070    492.008    571.071    492.008    492.008    492.008
 88.970    538.117    571.336    -33.219    491.895    571.346    491.895    491.895    491.895
 89.070    565.874    573.340     -7.466    491.781    573.359    491.781    491.781    491.781
 89.170    579.000    576.796      2.204    491.666    576.823    491.666    491.666    491.666
 89.270    569.000    581.284    -12.284    491.549    581.319    491.549    491.549    491.549
 89.370    591.000    586.271      4.729    491.431    586.313    491.431    491.431    491.431
 89.470    556.000    591.132    -35.132    491.312    591.182    491.312    491.312    491.312
 89.570    618.000    595.198     22.802    491.192    595.253    491.192    491.192    491.192
 89.670    603.000    597.823      5.177    491.070    597.884    491.070    491.070    491.070
 89.770    563.000    598.508    -35.508    490.947    598.572    490.947    490.947    490.947
 89.870    647.094    597.006     50.088    490.823    597.071    490.823    490.823    490.823
 89.970    621.000    593.382     27.618    490.697    593.446    490.697    490.697    490.697
 90.070    637.530    587.965     49.564    490.570    588.027    490.570    490.570    490.570
 90.170    543.000    581.246    -38.246    490.442    581.303    490.442    490.442    490.442
 90.270    571.000    573.753     -2.753    490.313    573.806    490.313    490.313    490.313
 90.370    596.196    565.980     30.216    490.182    566.026    490.182    490.182    490.182
 90.470    547.138    558.340    -11.202    490.050    558.380    490.050    490.050    490.050
 90.570    562.892    551.157     11.735    489.917    551.191    489.917    489.917    489.917
 90.670    531.000    544.661    -13.661    489.782    544.689    489.782    489.782    489.782
 90.770    514.000    538.999    -24.999    489.647    539.022    489.647    489.647    489.647
 90.870    548.672    534.240     14.432    489.510    534.258    489.510    489.510    489.510
 90.970    496.076    530.392    -34.316    489.371    530.406    489.371    489.371    489.371
 91.070    490.000    527.418    -37.418    489.232    527.428    489.232    489.232    489.232
 91.170    574.286    525.253     49.033    489.091    525.260    489.091    489.091    489.091
 91.270    520.000    523.820     -3.820    488.949    523.824    488.949    488.949    488.949
 91.370    522.000    523.047     -1.047    488.806    523.050    488.806    488.806    488.806
 91.470    490.000    522.881    -32.881    488.661    522.882    488.661    488.661    488.661
 91.570    520.000    523.292     -3.292    488.516    523.292    488.516    488.516    488.516
 91.670    502.000    524.283    -22.283    488.369    524.281    488.369    488.369    488.369
 91.770    490.000    525.893    -35.893    488.221    525.889    488.221    488.221    488.221
 91.870    492.185    528.193    -36.008    488.072    528.187    488.072    488.072    488.072
 91.970    558.338    531.290     27.048    487.921    531.282    487.921    487.921    487.921
 92.070    485.000    535.316    -50.316    487.769    535.305    487.769    487.769    487.769
 92.170    570.422    540.422     29.999    487.617    540.409    487.617    487.617    487.617
 92.270    546.000    546.770     -0.770    487.463    546.753    487.463    487.463    487.463
 92.370    555.000    554.512      0.488    487.307    554.491    487.307    487.307    487.307
 92.470    623.000    563.781     59.219    487.151    563.756    487.151    487.151    487.151
 92.570    603.201    574.673     28.528    486.993    574.642    486.993    486.993    486.993
 92.670    553.000    587.228    -34.228    486.835    587.192    486.835    486.835    486.835
 92.770    604.000    601.416      2.584    486.675    601.374    486.675    486.675    486.675
 92.870    615.000    617.123     -2.123    486.514    617.074    486.514    486.514    486.514
 92.970    679.734    634.131     45.603    486.351    634.076    486.351    486.351    486.351
 93.070    651.000    652.115     -1.115    486.188    652.054    486.188    486.188    486.188
 93.170    649.550    670.640    -21.091    486.024    670.574    486.024    486.024    486.024
 93.270    679.000    689.182    -10.182    485.858    689.112    485.858    485.858    485.858
 93.370    700.945    707.191     -6.246    485.691    707.117    485.691    485.691    485.691
 93.470    694.408    724.189    -29.781    485.524    724.114    485.524    485.524    485.524
 93.570    740.000    739.881      0.119    485.355    739.805    485.355    485.355    485.355
 93.670    768.000    754.219     13.781    485.185    754.143    485.185    485.185    485.185
 93.770    707.000    767.374    -60.374    485.014    767.299    485.014    485.014    485.014
 93.870    775.051    779.635     -4.584    484.842    779.562    484.842    484.842    484.842
 93.970    799.000    791.274      7.726    484.668    791.203    484.668    484.668    484.668
 94.070    807.861    802.463      5.398    484.494    802.394    484.494    484.494    484.494
 94.170    827.000    813.271     13.729    484.319    813.205    484.319    484.319    484.319
 94.270    784.379    823.718    -39.339    484.143    823.655    484.143    484.143    484.143
 94.370    816.000    833.877    -17.877    483.965    833.817    483.965    483.965    483.965
 94.470    868.000    843.897     24.103    483.787    843.841    483.787    483.787    483.787
 94.570    820.000    853.871    -33.871    483.607    853.819    483.607    483.607    483.607
 94.670    890.000    863.752     26.248    483.427    863.704    483.427    483.427    483.427
 94.770    872.480    873.222     -0.743    483.246    873.179    483.246    483.246    483.246
 94.870    852.185    881.634    -29.449    483.063    881.597    483.063    483.063    483.063
 94.970    865.000    888.032    -23.032    482.880    888.002    482.880    482.880    482.880
 95.070    872.574    891.274    -18.700    482.695    891.251    482.695    482.695    482.695
 95.170    933.000    890.239     42.761    482.510    890.224    482.510    482.510    482.510
 95.270    821.305    884.114    -62.808    482.324    884.107    482.324    482.324    482.324
 95.370    888.000    872.657     15.343    482.137    872.657    482.137    482.137    482.137
 95.470    892.000    856.316     35.684    481.949    856.322    481.949    481.949    481.949
 95.570    825.000    836.154    -11.154    481.760    836.164    481.760    481.760    481.760
 95.670    789.339    813.628    -24.289    481.570    813.641    481.570    481.570    481.570
 95.770    847.000    790.362     56.638    481.379    790.376    481.379    481.379    481.379
 95.870    771.000    767.976      3.024    481.187    767.989    481.187    481.187    481.187
 95.970    726.000    747.993    -21.993    480.994    748.004    480.994    480.994    480.994
 96.070    739.000    731.800      7.200    480.801    731.808    480.801    480.801    480.801
 96.170    707.346    720.624    -13.279    480.607    720.628    480.607    480.607    480.607
 96.270    666.313    715.529    -49.216    480.412    715.527    480.412    480.412    480.412
 96.370    687.000    717.399    -30.399    480.216    717.391    480.216    480.216    480.216
 96.470    740.568    726.937     13.631    480.019    726.921    480.019    480.019    480.019
 96.570    720.000    744.648    -24.648    479.821    744.625    479.821    479.821    479.821
 96.670    775.000    770.826      4.174    479.623    770.796    479.623    479.623    479.623
 96.770    809.000    805.527      3.473    479.424    805.489    479.424    479.424    479.424
 96.870    798.000    848.532    -50.532    479.224    848.487    479.224    479.224    479.224
 96.970    898.000    899.304     -1.304    479.023    899.252    479.023    479.023    479.023
 97.070    924.000    956.937    -32.937    478.822    956.880    478.822    478.822    478.822
 97.170    966.655   1020.107    -53.452    478.620   1020.046    478.620    478.620    478.620
 97.270   1079.000   1087.028     -8.028    478.417   1086.965    478.417    478.417    478.417
 97.370   1210.000   1155.424     54.576    478.213   1155.361    478.213    478.213    478.213
 97.470   1235.000   1222.516     12.484    478.009   1222.457    478.009    478.009    478.009
 97.570   1319.290   1285.087     34.203    477.804   1285.035    477.804    477.804    477.804
 97.670   1408.441   1339.619     68.822    477.599   1339.577    477.599    477.599    477.599
 97.770   1403.000   1382.593     20.407    477.392   1382.565    477.392    477.392    477.392
 97.870   1364.077   1410.973    -46.896    477.185   1410.962    477.185    477.185    477.185
 97.970   1406.000   1422.744    -16.744    476.978   1422.751    476.978    476.978    476.978
 98.070   1429.000   1417.332     11.668    476.770   1417.356    476.770    476.770    476.770
 98.170   1459.000   1395.700     63.300    476.561   1395.741    476.561    476.561    476.561
 98.270   1345.000   1360.099    -15.099    476.352   1360.154    476.352    476.352    476.352
 98.370   1329.000   1313.599     15.401    476.142   1313.663    476.142    476.142    476.142
 98.470   1274.000   1259.616     14.384    475.932   1259.686    475.932    475.932    475.932
 98.570   1193.000   1201.560     -8.560    475.721   1201.634    475.721    475.721    475.721
 98.670   1204.627   1142.618     62.009    475.510   1142.691    475.510    475.510    475.510
 98.770   1092.000   1085.633      6.367    475.298   1085.702    475.298    475.298    475.298
 98.870   1013.338   1033.027    -19.689    475.086   1033.091    475.086    475.086    475.086
 98.970   1012.283    986.995     25.289    474.873    987.052    474.873    474.873    474.873
 99.070    929.000    949.260    -20.260    474.659    949.309    474.659    474.659    474.659
 99.170    958.850    921.223     37.627    474.446    921.264    474.446    474.446    474.446
 99.270    927.371    903.996     23.374    474.232    904.029    474.232    474.232    474.232
 99.370    888.000    898.396    -10.396    474.017    898.421    474.017    474.017    474.017
 99.470    935.160    904.949     30.211    473.802    904.968    473.802    473.802    473.802
 99.570    913.000    923.928    -10.928    473.587    923.942    473.587    473.587    473.587
 99.670    904.000    955.327    -51.327    473.371    955.338    473.371    473.371    473.371
 99.770   1036.000    998.853     37.147    473.155    998.863    473.155    473.155    473.155
 99.870   1016.000   1053.921    -37.921    472.939   1053.932    472.939    472.939    472.939
 99.970   1064.574   1119.617    -55.043    472.723   1119.633    472.723    472.723    472.723
100.070   1191.000   1194.658     -3.658    472.506   1194.681    472.506    472.506    472.506
100.170   1246.241   1277.343    -31.102    472.289   1277.377    472.289    472.289    472.289
100.270   1379.000   1365.520     13.480    472.071   1365.568    472.071    472.071    472.071
100.370   1488.000   1456.575     31.425    471.854   1456.641    471.854    471.854    471.854
100.470   1544.121   1547.495     -3.374    471.636   1547.582    471.636    471.636    471.636
100.570   1653.000   1635.027     17.973    471.418   1635.137    471.418    471.418    471.418
100.670   1812.000   1715.935     96.065    471.200   1716.070    471.200    471.200    471.200
100.770   1842.000   1787.317     54.683    470.982   1787.479    470.982    470.982    470.982
100.870   1828.000   1846.847    -18.847    470.764   1847.034    470.764    470.764    470.764
100.970   1883.000   1892.839     -9.839    470.545   1893.049    470.545    470.545    470.545
101.070   1943.000   1924.133     18.867    470.327   1924.364    470.327    470.327    470.327
101.170   1880.000   1939.909    -59.909    470.108   1940.158    470.108    470.108    470.108
101.270   1993.000   1939.605     53.395    469.889   1939.867    469.889    469.889    469.889
101.370   1840.170   1923.052    -82.883    469.670   1923.324    469.670    469.670    469.670
101.470   1932.000   1890.770     41.230    469.452   1891.047    469.452    469.452    469.452
101.570   1886.000   1844.249     41.751    469.233   1844.526    469.233    469.233    469.233
101.670   1815.000   1786.027     28.973    469.014   1786.299    469.014    469.014    469.014
101.770   1710.932   1719.457     -8.525    468.796   1719.720    468.796    468.796    468.796
101.870   1624.971   1648.269    -23.298    468.577   1648.520    468.577    468.577    468.577
101.970   1654.000   1576.092     77.908    468.359   1576.327    468.359    468.359    468.359
102.070   1515.000   1506.079      8.921    468.141   1506.298    468.141    468.141    468.141
102.170   1463.000   1440.699     22.301    467.922   1440.901    467.922    467.922    467.922
102.270   1380.437   1381.650     -1.213    467.704   1381.836    467.704    467.704    467.704
102.370   1318.000   1329.860    -11.860    467.486   1330.029    467.486    467.486    467.486
102.470   1287.000   1285.522      1.478    467.269   1285.678    467.269    467.269    467.269
102.570   1182.995   1248.146    -65.151    467.051   1248.290    467.051    467.051    467.051
102.670   1270.543   1216.726     53.817    466.834   1216.861    466.834    466.834    466.834
102.770   1174.000   1189.730    -15.730    466.617   1189.857    466.617    466.617    466.617
102.870   1191.000   1165.326     25.674    466.401   1165.449    466.401    466.401    466.401
102.970   1147.000   1141.607      5.393    466.185   1141.726    466.185    466.185    466.185
103.070   1072.000   1116.839    -44.839    465.969   1116.956    465.969    465.969    465.969
103.170   1135.216   1089.708     45.508    465.753   1089.823    465.753    465.753    465.753
103.270   1090.000   1059.483     30.517    465.538   1059.596    465.538    465.538    465.538
103.370   1056.894   1026.045     30.849    465.323   1026.156    465.323    465.323    465.323
103.470    976.000    989.786    -13.786    465.109    989.893    465.109    465.109    465.109
103.570    983.000    951.438     31.562    464.895    951.540    464.895    464.895    464.895
103.670    901.000    911.899    -10.899    464.682    911.996    464.682    464.682    464.682
103.770    872.163    872.096      0.067    464.469    872.186    464.469    464.469    464.469
103.870    856.586    832.893     23.693    464.257    832.977    464.257    464.257    464.257
103.970    836.000    795.066     40.934    464.045    795.142    464.045    464.045    464.045
104.070    780.000    759.253     20.747    463.834    759.321    463.834    463.834    463.834
104.170    788.000    725.953     62.047    463.624    726.014    463.624    463.624    463.624
104.270    743.000    695.528     47.472    463.414    695.582    463.414    463.414    463.414
104.370    656.372    668.196    -11.824    463.205    668.243    463.205    463.205    463.205
104.470    660.000    644.048     15.952    462.996    644.088    462.996    462.996    462.996
104.570    660.542    623.058     37.484    462.788    623.092    462.788    462.788    462.788
104.670    591.000    605.106    -14.106    462.581    605.135    462.581    462.581    462.581
104.770    578.000    589.999    -11.999    462.375    590.023    462.375    462.375    462.375
104.870    596.000    577.498     18.502    462.170    577.518    462.170    462.170    462.170
104.970    572.000    567.338      4.662    461.965    567.354    461.965    461.965    461.965
105.070    594.000    559.251     34.749    461.761    559.264    461.761    461.761    461.761
105.170    534.000    552.980    -18.980    461.558    552.990    461.558    461.558    461.558
105.270    581.000    548.295     32.705    461.356    548.302    461.356    461.356    461.356
105.370    554.000    544.998      9.002    461.155    545.003    461.155    461.155    461.155
105.470    519.000    542.930    -23.930    460.955    542.932    460.955    460.955    460.955
105.570    550.000    541.970      8.030    460.756    541.970    460.756    460.756    460.756
105.670    590.000    542.036     47.964    460.558    542.034    460.558    460.558    460.558
105.770    555.000    543.078     11.922    460.361    543.074    460.361    460.361    460.361
105.870    598.000    545.078     52.922    460.165    545.072    460.165    460.165    460.165
105.970    534.000    548.039    -14.039    459.970    548.030    459.970    459.970    459.970
106.070    568.215    551.981     16.234    459.777    551.970    459.777    459.777    459.777
106.170    575.000    556.935     18.065    459.584    556.922    459.584    459.584    459.584
106.270    561.000    562.932     -1.932    459.393    562.916    459.393    459.393    459.393
106.370    576.000    569.993      6.007    459.203    569.975    459.203    459.203    459.203
106.470    528.000    578.123    -50.123    459.014    578.101    459.014    459.014    459.014
106.570    600.699    587.291     13.408    458.827    587.266    458.827    458.827    458.827
106.670    544.807    597.417    -52.610    458.641    597.390    458.641    458.641    458.641
106.770    624.000    608.417     15.583    458.456    608.386    458.456    458.456    458.456
106.870    575.497    620.138    -44.641    458.272    620.105    458.272    458.272    458.272
106.970    623.000    632.362     -9.362    458.090    632.326    458.090    458.090    458.090
107.070    615.000    644.829    -29.829    457.910    644.791    457.910    457.910    457.910
107.170    648.000    657.233     -9.233    457.731    657.194    457.731    457.731    457.731
107.270    668.000    669.227     -1.227    457.553    669.186    457.553    457.553    457.553
107.370    685.000    680.434      4.566    457.377    680.394    457.377    457.377    457.377
107.470    643.000    690.476    -47.476    457.203    690.436    457.203    457.203    457.203
107.570    686.000    699.007    -13.007    457.030    698.968    457.030    457.030    457.030
107.670    741.000    705.760     35.240    456.859    705.723    456.859    456.859    456.859
107.770    655.000    710.595    -55.595    456.689    710.562    456.689    456.689    456.689
107.870    724.893    713.533     11.360    456.521    713.503    456.521    456.521    456.521
107.970    676.000    714.753    -38.753    456.355    714.727    456.355    456.355    456.355
108.070    697.000    714.570    -17.570    456.191    714.548    456.191    456.191    456.191
108.170    677.000    713.382    -36.382    456.029    713.363    456.029    456.029    456.029
108.270    719.206    711.611      7.595    455.868    711.596    455.868    455.868    455.868
108.370    672.000    709.655    -37.655    455.709    709.645    455.709    455.709    455.709
108.470    711.998    707.852      4.145    455.552    707.846    455.552    455.552    455.552
108.570    698.248    706.453     -8.205    455.397    706.450    455.397    455.397    455.397
108.670    698.000    705.612     -7.612    455.245    705.612    455.245    455.245    455.245
108.770    684.844    705.377    -20.534    455.094    705.382    455.094    455.094    455.094
108.870    718.000    705.697     12.303    454.945    705.704    454.945    454.945    454.945
108.970    650.000    706.413    -56.413    454.798    706.425    454.798    454.798    454.798
109.070    650.000    707.280    -57.280    454.653    707.295    454.653    454.653    454.653
109.170    752.496    707.973     44.523    454.511    707.991    454.511    454.511    454.511
109.270    734.000    708.119     25.881    454.371    708.140    454.371    454.371    454.371
109.370    706.000    707.334     -1.334    454.233    707.357    454.233    454.233    454.233
109.470    693.000    705.272    -12.272    454.097    705.298    454.097    454.097    454.097
109.570    678.000    701.676    -23.676    453.964    701.704    453.964    453.964    453.964
109.670    686.813    696.415     -9.602    453.832    696.444    453.832    453.832    453.832
109.770    716.000    689.503     26.497    453.704    689.533    453.704    453.704    453.704
109.870    715.000    681.086     33.914    453.578    681.117    453.578    453.578    453.578
109.970    656.070    671.412    -15.342    453.454    671.443    453.454    453.454    453.454
110.070    650.000    660.790    -10.790    453.332    660.820    453.332    453.332    453.332
110.170    652.038    649.550      2.488    453.214    649.578    453.214    453.214    453.214
110.270    642.000    638.016      3.984    453.097    638.042    453.097    453.097    453.097
110.370    653.546    626.488     27.058    452.984    626.513    452.984    452.984    452.984
110.470    595.752    615.232    -19.481    452.873    615.255    452.873    452.873    452.873
110.570    624.000    604.475     19.525    452.765    604.495    452.765    452.765    452.765
110.670    619.000    594.401     24.599    452.659    594.419    452.659    452.659    452.659
110.770    639.000    585.152     53.848    452.556    585.167    452.556    452.556    452.556
110.870    612.000    576.834     35.166    452.457    576.847    452.457    452.457    452.457
110.970    535.997    569.510    -33.513    452.359    569.521    452.359    452.359    452.359
111.070    589.000    563.208     25.792    452.265    563.217    452.265    452.265    452.265
111.170    515.076    557.926    -42.850    452.174    557.933    452.174    452.174    452.174
111.270    558.377    553.635      4.742    452.086    553.640    452.086    452.086    452.086
111.370    503.794    550.284    -46.490    452.001    550.288    452.001    452.001    452.001
111.470    541.000    547.809     -6.809    451.918    547.811    451.918    451.918    451.918
111.570    573.996    546.135     27.861    451.839    546.135    451.839    451.839    451.839
111.670    554.772    545.179      9.593    451.763    545.178    451.763    451.763    451.763
111.770    556.000    544.860     11.140    451.691    544.858    451.691    451.691    451.691
111.870    566.000    545.097     20.903    451.621    545.094    451.621    451.621    451.621
111.970    597.000    545.823     51.177    451.555    545.819    451.555    451.555    451.555
112.070    514.000    546.967    -32.967    451.492    546.963    451.492    451.492    451.492
112.170    531.000    548.472    -17.472    451.432    548.467    451.432    451.432    451.432
112.270    566.000    550.289     15.711    451.376    550.284    451.376    451.376    451.376
112.370    537.000    552.379    -15.379    451.324    552.373    451.324    451.324    451.324
112.470    557.488    554.722      2.766    451.274    554.716    451.274    451.274    451.274
112.570    570.000    557.316     12.684    451.229    557.310    451.229    451.229    451.229
112.670    526.952    560.160    -33.208    451.187    560.154    451.187    451.187    451.187
112.770    603.401    563.270     40.132    451.148    563.263    451.148    451.148    451.148
112.870    597.903    566.676     31.227    451.113    566.669    451.113    451.113    451.113
112.970    536.063    570.423    -34.360    451.082    570.416    451.082    451.082    451.082
113.070    573.000    574.571     -1.571    451.055    574.563    451.055    451.055    451.055
113.170    566.942    579.197    -12.255    451.031    579.190    451.031    451.031    451.031
113.270    612.000    584.402     27.598    451.011    584.394    451.011    451.011    451.011
113.370    582.000    590.315     -8.315    450.996    590.306    450.996    450.996    450.996
113.470    545.849    597.097    -51.248    450.984    597.087    450.984    450.984    450.984
113.570    594.180    604.958    -10.779    450.976    604.948    450.976    450.976    450.976
113.670    639.000    614.164     24.836    450.972    614.152    450.972    450.972    450.972
113.770    617.000    625.051     -8.051    450.972    625.036    450.972    450.972    450.972
113.870    664.000    638.039     25.961    450.977    638.022    450.977    450.977    450.977
113.970    651.000    653.653     -2.653    450.985    653.632    450.985    450.985    450.985
114.070    736.000    672.539     63.461    450.998    672.515    450.998    450.998    450.998
114.170    696.000    695.484      0.516    451.015    695.454    451.015    451.015    451.015
114.270    769.725    723.431     46.294    451.036    723.394    451.036    451.036    451.036
114.370    785.000    757.495     27.505    451.062    757.450    451.062    451.062    451.062
114.470    783.000    798.979    -15.979    451.092    798.923    451.092    451.092    451.092
114.570    862.320    849.370     12.950    451.127    849.302    451.127    451.127    451.127
114.670    911.000    910.341      0.659    451.166    910.258    451.166    451.166    451.166
114.770   1063.000    983.732     79.268    451.210    983.632    451.210    451.210    451.210
114.870   1018.767   1071.520    -52.753    451.258   1071.400    451.258    451.258    451.258
114.970   1199.000   1175.775     23.225    451.311   1175.632    451.311    451.311    451.311
115.070   1352.400   1298.595     53.805    451.369   1298.426    451.369    451.369    451.369
115.170   1495.000   1442.025     52.975    451.431   1441.828    451.431    451.431    451.431
115.270   1687.000   1607.960     79.040    451.499   1607.733    451.499    451.499    451.499
115.370   1719.821   1798.033    -78.212    451.571   1797.774    451.571    451.571    451.571
115.470   2169.000   2013.489    155.511    451.648   2013.197    451.648    451.648    451.648
115.570   2401.000   2255.055    145.945    451.730   2254.730    451.730    451.730    451.730
115.670   2591.069   2522.814     68.255    451.817   2522.456    451.817    451.817    451.817
115.770   2798.209   2816.076    -17.868    451.910   2815.687    451.910    451.910    451.910
115.870   3241.000   3133.275    107.725    452.007   3132.857    452.007    452.007    452.007
115.970   3545.000   3471.875     73.125    452.109   3471.435    452.109    452.109    452.109
116.070   3703.486   3828.315   -124.828    452.217   3827.857    452.217    452.217    452.217
116.170   4266.872   4197.966     68.907    452.330   4197.498    452.330    452.330    452.330
116.270   4651.000   4575.134     75.866    452.449   4574.666    452.449    452.449    452.449
116.370   4996.000   4953.089     42.911    452.572   4952.631    452.572    452.572    452.572
116.470   5312.000   5324.129    -12.129    452.702   5323.693    452.702    452.702    452.702
116.570   5528.180   5679.701   -151.521    452.836   5679.300    452.836    452.836    452.836
116.670   6077.000   6010.587     66.413    452.977   6010.235    452.977    452.977    452.977
116.770   6297.000   6307.196    -10.196    453.123   6306.905    453.123    453.123    453.123
116.870   6427.000   6559.984   -132.984    453.274   6559.768    453.274    453.274    453.274
116.970   6851.000   6760.033     90.967    453.432   6759.904    453.432    453.432    453.432
117.070   6763.520   6899.743   -136.224    453.595   6899.709    453.595    453.595    453.595
117.170   6949.810   6973.559    -23.748    453.764   6973.625    453.764    453.764    453.764
117.270   7081.312   6978.582    102.730    453.939   6978.751    453.939    453.939    453.939
117.370   6969.000   6914.922     54.078    454.119   6915.188    454.119    454.119    454.119
117.470   6736.837   6785.670    -48.833    454.306   6786.026    454.306    454.306    454.306
117.570   6459.753   6596.519   -136.766    454.499   6596.953    454.499    454.499    454.499
117.670   6397.656   6355.132     42.524    454.698   6355.630    454.698    454.698    454.698
117.770   5911.000   6070.408   -159.408    454.903   6070.954    454.903    454.903    454.903
117.870   5759.134   5751.794      7.339    455.115   5752.374    455.115    455.115    455.115
117.970   5324.113   5408.720    -84.607    455.333   5409.318    455.333    455.333    455.333
118.070   4955.000   5050.163    -95.163    455.557   5050.765    455.557    455.557    455.557
118.170   4744.204   4684.541     59.662    455.787   4685.135    455.787    455.787    455.787
118.270   4230.000   4319.247    -89.247    456.024   4319.822    456.024    456.024    456.024
118.370   3939.000   3960.726    -21.726    456.268   3961.273    456.268    456.268    456.268
118.470   3697.000   3614.387     82.613    456.518   3614.899    456.518    456.518    456.518
118.570   3279.000   3284.580     -5.580    456.774   3285.051    456.774    456.774    456.774
118.670   2881.000   2974.617    -93.617    457.038   2975.045    457.038    457.038    457.038
118.770   2663.000   2686.831    -23.831    457.308   2687.214    457.308    457.308    457.308
118.870   2444.832   2422.650     22.182    457.585   2422.987    457.585    457.585    457.585
118.970   2184.184   2182.706      1.478    457.869   2182.999    457.869    457.869    457.869
119.070   1904.000   1966.944    -62.944    458.160   1967.196    458.160    458.160    458.160
119.170   1722.999   1774.741    -51.743    458.458   1774.954    458.458    458.458    458.458
119.270   1563.969   1605.020    -41.051    458.763   1605.197    458.763    458.763    458.763
119.370   1432.000   1456.363    -24.363    459.075   1456.508    459.075    459.075    459.075
119.470   1252.029   1327.116    -75.087    459.395   1327.233    459.395    459.395    459.395
119.570   1269.113   1215.488     53.625    459.721   1215.581    459.721    459.721    459.721
119.670   1151.000   1119.630     31.370    460.055   1119.703    460.055    460.055    460.055
119.770   1070.000   1037.712     32.288    460.397   1037.769    460.397    460.397    460.397
119.870    994.023    967.979     26.044    460.745    968.023    460.745    460.745    460.745
119.970    939.000    908.793     30.207    461.102    908.825    461.102    461.102    461.102
120.070    872.139    858.657     13.481    461.466    858.682    461.466    461.466    461.466
120.170    774.768    816.238    -41.470    461.837    816.257    461.837    461.837    461.837
120.270    800.000    780.364     19.636    462.216    780.379    462.216    462.216    462.216
120.370    704.000    750.023    -46.023    462.604    750.035    462.604    462.604    462.604
120.470    678.000    724.355    -46.355    462.998    724.365    462.998    462.998    462.998
120.570    696.000    702.634     -6.634    463.401    702.642    463.401    463.401    463.401
120.670    674.000    684.257    -10.257    463.812    684.265    463.812    463.812    463.812
120.770    646.731    668.726    -21.995    464.231    668.735    464.231    464.231    464.231
120.870    655.595    655.633     -0.038    464.658    655.641    464.658    464.658    464.658
120.970    602.000    644.642    -42.642    465.093    644.651    465.093    465.093    465.093
121.070    584.000    635.482    -51.482    465.536    635.491    465.536    465.536    465.536
121.170    618.000    627.929     -9.929    465.988    627.940    465.988    465.988    465.988
121.270    609.000    621.802    -12.802    466.448    621.813    466.448    466.448    466.448
121.370    597.000    616.948    -19.948    466.916    616.960    466.916    466.916    466.916
121.470    585.000    613.242    -28.242    467.393    613.255    467.393    467.393    467.393
121.570    620.345    610.575      9.770    467.879    610.589    467.879    467.879    467.879
121.670    599.000    608.854     -9.854    468.373    608.869    468.373    468.373    468.373
121.770    641.592    607.992     33.600    468.876    608.009    468.876    468.876    468.876
121.870    634.000    607.912     26.088    469.388    607.931    469.388    469.388    469.388
121.970    652.234    608.539     43.695    469.908    608.559    469.908    469.908    469.908
122.070    578.000    609.796    -31.796    470.438    609.819    470.438    470.438    470.438
122.170    582.977    611.610    -28.633    470.976    611.635    470.976    470.976    470.976
122.270    580.270    613.900    -33.630    471.523    613.927    471.523    471.523    471.523
122.370    626.000    616.584      9.416    472.080    616.614    472.080    472.080    472.080
122.470    622.000    619.574      2.426    472.646    619.606    472.646    472.646    472.646
122.570    605.000    622.775    -17.775    473.221    622.811    473.221    473.221    473.221
122.670    628.000    626.089      1.911    473.806    626.128    473.806    473.806    473.806
122.770    681.033    629.411     51.622    474.400    629.452    474.400    474.400    474.400
122.870    678.829    632.630     46.199    475.003    632.674    475.003    475.003    475.003
122.970    626.000    635.634     -9.634    475.616    635.681    475.616    475.616    475.616
123.070    640.248    638.309      1.939    476.238    638.359    476.238    476.238    476.238
123.170    692.845    640.546     52.299    476.871    640.599    476.871    476.871    476.871
123.270    651.000    642.245      8.755    477.513    642.300    477.513    477.513    477.513
123.370    673.558    643.319     30.238    478.165    643.376    478.165    478.165    478.165
123.470    625.000    643.702    -18.702    478.827    643.761    478.827    478.827    478.827
123.570    667.000    643.352     23.648    479.499    643.412    479.499    479.499    479.499
123.670    678.000    642.253     35.747    480.181    642.314    480.181    480.181    480.181
123.770    676.000    640.418     35.582    480.873    640.479    480.873    480.873    480.873
123.870    679.596    637.883     41.714    481.575    637.944    481.575    481.575    481.575
123.970    638.000    634.703      3.297    482.288    634.763    482.288    482.288    482.288
124.070    642.000    630.949     11.051    483.011    631.008    483.011    483.011    483.011
124.170    613.000    626.702    -13.702    483.744    626.759    483.744    483.744    483.744
124.270    639.795    622.047     17.748    484.488    622.102    484.488    484.488    484.488
124.370    656.000    617.071     38.929    485.243    617.124    485.243    485.243    485.243
124.470    651.000    611.860     39.140    486.008    611.911    486.008    486.008    486.008
124.570    592.000    606.498    -14.498    486.785    606.546    486.785    486.785    486.785
124.670    564.146    601.065    -36.919    487.571    601.110    487.571    487.571    487.571
124.770    600.000    595.633      4.367    488.369    595.676    488.369    488.369    488.369
124.870    643.000    590.272     52.728    489.178    590.311    489.178    489.178    489.178
124.970    647.000    585.042     61.958    489.998    585.078    489.998    489.998    489.998
