neutron_powder_diffraction_0025
R_wp: 3.697
Temperature (K): 519.093
Counts: 83319.00
Wavelength (Ã…): 2.52098
COMMENTS
Test file for demonstrating the .xyy file format in Reel1.0
END OF HEADER
   tth       Y_obs     Y_calc      Y_res    Background    Phase_1_Nuc    Phase_1_Mag    Phase_2_Nuc    Phase_2_Mag
  9.970    744.000    716.720     27.280    715.050    716.102    715.667    715.050    715.050
 10.070    743.000    715.775     27.225    714.014    715.151    714.638    714.014    714.014
 10.170    761.632    714.847     46.785    712.982    714.216    713.613    712.982    712.982
 10.270    749.000    713.937     35.063    711.956    713.299    712.593    711.956    711.956
 10.370    689.000    713.049    -24.049    710.934    712.404    711.578    710.934    710.934
 10.470    749.000    712.186     36.814    709.917    711.534    710.568    709.917    709.917
 10.570    699.000    711.353    -12.353    708.905    710.694    709.563    708.905    708.905
 10.670    708.000    710.556     -2.556    707.897    709.889    708.563    707.897    707.897
 10.770    761.000    709.801     51.199    706.894    709.127    707.567    706.894    706.894
 10.870    726.000    709.101     16.899    705.896    708.419    706.577    705.896    705.896
 10.970    695.355    708.468    -13.113    704.903    707.778    705.591    704.903    704.903
 11.070    706.000    707.922     -1.922    703.914    707.225    704.610    703.914    703.914
 11.170    734.000    707.490     26.510    702.930    706.785    703.634    702.930    702.930
 11.270    744.151    707.214     36.937    701.951    706.500    702.662    701.951    701.951
 11.370    677.000    707.157    -30.157    700.977    706.435    701.696    700.977    700.977
 11.470    783.000    707.443     75.557    700.007    706.712    700.734    700.007    700.007
 11.570    731.000    708.334     22.666    699.042    707.593    699.777    699.042    699.042
 11.670    798.000    710.416     87.584    698.081    709.664    698.826    698.081    698.081
 11.770    730.880    714.870     16.010    697.125    714.107    697.879    697.125    697.125
 11.870    705.995    723.646    -17.651    696.174    722.868    696.937    696.174    696.174
 11.970    794.055    739.031     55.024    695.228    738.235    695.999    695.228    695.228
 12.070    843.000    762.103     80.897    694.286    761.284    695.066    694.286    694.286
 12.170    851.000    789.899     61.101    693.349    789.054    694.139    693.349    693.349
 12.270    840.000    812.449     27.551    692.416    811.581    693.216    692.416    692.416
 12.370    866.497    816.048     50.449    691.488    815.167    692.297    691.488    691.488
 12.470    762.240    797.129    -34.889    690.565    796.249    691.384    690.565    690.565
 12.570    725.000    767.639    -42.639    689.647    766.766    690.475    689.647    689.647
 12.670    790.795    740.344     50.451    688.733    739.475    689.572    688.733    688.733
 12.770    763.768    720.355     43.414    687.823    719.487    688.673    687.823    687.823
 12.870    685.062    707.667    -22.605    686.919    706.795    687.779    686.919    686.919
 12.970    638.000    700.148    -62.148    686.018    699.269    686.890    686.018    686.018
 13.070    675.000    695.608    -20.608    685.123    694.720    686.005    685.123    685.123
 13.170    713.749    692.577     21.171    684.232    691.680    685.125    684.232    684.232
 13.270    692.311    690.297      2.014    683.346    689.389    684.250    683.346    683.346
 13.370    659.000    688.424    -29.424    682.464    687.505    683.380    682.464    682.464
 13.470    679.000    686.802     -7.802    681.587    685.872    682.515    681.587    681.587
 13.570    650.602    685.354    -34.752    680.714    684.412    681.655    680.714    680.714
 13.670    706.031    684.033     21.998    679.846    683.079    680.799    679.846    679.846
 13.770    645.000    682.807    -37.807    678.983    681.840    679.948    678.983    678.983
 13.870    637.226    681.654    -44.429    678.124    680.675    679.102    678.124    678.124
 13.970    702.000    680.560     21.440    677.270    679.567    678.261    677.270    677.270
 14.070    641.779    679.512    -37.732    676.420    678.506    677.424    676.420    676.420
 14.170    676.000    678.505     -2.505    675.575    677.486    676.593    675.575    675.575
 14.270    693.000    677.547     15.453    674.734    676.514    675.766    674.734    674.734
 14.370    671.350    676.606     -5.256    673.898    675.558    674.945    673.898    673.898
 14.470    698.000    675.678     22.322    673.066    674.616    674.128    673.066    673.066
 14.570    644.000    674.769    -30.769    672.239    673.692    673.315    672.239    672.239
 14.670    646.000    673.877    -27.877    671.416    672.785    672.508    671.416    671.416
 14.770    713.000    673.000     40.000    670.598    671.892    671.705    670.598    670.598
 14.870    708.383    672.137     36.246    669.784    671.013    670.907    669.784    669.784
 14.970    621.000    671.286    -50.286    668.975    670.147    670.114    668.975    668.975
 15.070    697.762    670.446     27.315    668.170    669.291    669.326    668.170    668.170
 15.170    644.454    669.617    -25.164    667.370    668.445    668.542    667.370    667.370
 15.270    667.008    668.799     -1.791    666.574    667.609    667.763    666.574    666.574
 15.370    666.000    667.994     -1.994    665.783    666.786    666.990    665.783    665.783
 15.470    687.112    667.193     19.919    664.996    665.968    666.221    664.996    664.996
 15.570    709.000    666.400     42.601    664.213    665.156    665.457    664.213    664.213
 15.670    668.301    665.614      2.687    663.435    664.352    664.697    663.435    663.435
 15.770    664.000    664.836     -0.836    662.662    663.554    663.943    662.662    662.662
 15.870    652.779    664.065    -11.286    661.892    662.764    663.194    661.892    661.892
 15.970    661.000    663.301     -2.301    661.128    661.980    662.449    661.128    661.128
 16.070    637.000    662.544    -25.544    660.367    661.202    661.709    660.367    660.367
 16.170    634.000    661.794    -27.794    659.611    660.430    660.974    659.611    659.611
 16.270    700.247    661.050     39.197    658.859    659.665    660.244    658.859    658.859
 16.370    677.357    660.312     17.046    658.112    658.905    659.519    658.112    658.112
 16.470    646.000    659.580    -13.580    657.369    658.150    658.799    657.369    657.369
 16.570    671.000    658.855     12.145    656.631    657.402    658.083    656.631    656.631
 16.670    700.000    658.141     41.859    655.896    656.664    657.373    655.896    655.896
 16.770    647.585    657.430     -9.845    655.167    655.928    656.668    655.167    655.167
 16.870    642.000    656.723    -14.723    654.441    655.196    655.967    654.441    654.441
 16.970    702.897    656.021     46.876    653.720    654.469    655.272    653.720    653.720
 17.070    635.749    655.325    -19.576    653.003    653.746    654.581    653.003    653.003
 17.170    656.000    654.637      1.363    652.290    653.032    653.896    652.290    652.290
 17.270    688.121    653.987     34.135    651.582    652.352    653.216    651.582    651.582
 17.370    618.000    653.369    -35.369    650.878    651.704    652.543    650.878    650.878
 17.470    567.000    652.702    -85.702    650.178    651.007    651.873    650.178    650.178
 17.570    612.000    652.035    -40.035    649.483    650.310    651.207    649.483    649.483
 17.670    677.000    651.373     25.627    648.792    649.618    650.547    648.792    648.792
 17.770    669.214    650.718     18.496    648.105    648.931    649.892    648.105    648.105
 17.870    677.000    650.070     26.930    647.422    648.250    649.242    647.422    647.422
 17.970    641.000    649.449     -8.449    646.744    647.596    648.597    646.744    646.744
 18.070    644.879    648.818     -3.939    646.070    646.931    647.957    646.070    646.070
 18.170    633.000    648.186    -15.186    645.400    646.263    647.322    645.400    645.400
 18.270    665.496    647.558     17.937    644.734    645.599    646.693    644.734    644.734
 18.370    616.459    646.937    -30.477    644.073    644.940    646.069    644.073    644.073
 18.470    659.634    646.321     13.313    643.416    644.286    645.450    643.416    643.416
 18.570    610.858    645.711    -34.852    642.762    643.636    644.837    642.762    642.762
 18.670    618.341    645.107    -26.765    642.114    642.991    644.229    642.114    642.114
 18.770    638.970    644.508     -5.539    641.469    642.351    643.626    641.469    641.469
 18.870    595.543    643.921    -48.378    640.828    641.720    643.029    640.828    640.828
 18.970    645.000    643.343      1.657    640.192    641.097    642.437    640.192    640.192
 19.070    629.000    642.763    -13.763    639.560    640.471    641.851    639.560    639.560
 19.170    602.598    642.188    -39.590    638.931    639.849    641.270    638.931    638.931
 19.270    685.167    641.620     43.547    638.307    639.232    640.695    638.307    638.307
 19.370    661.000    641.063     19.937    637.688    638.623    640.128    637.688    637.688
 19.470    627.000    640.566    -13.566    637.072    638.056    639.581    637.072    637.072
 19.570    674.150    640.034     34.115    636.460    637.465    639.029    636.460    636.460
 19.670    630.000    639.495     -9.495    635.853    636.870    638.478    635.853    635.853
 19.770    605.000    638.981    -33.981    635.249    636.298    637.932    635.249    635.249
 19.870    603.644    638.457    -34.814    634.650    635.714    637.392    634.650    634.650
 19.970    644.000    637.936      6.064    634.054    635.131    636.859    634.054    634.054
 20.070    582.000    637.420    -55.420    633.463    634.552    636.332    633.463    633.463
 20.170    598.000    636.921    -38.921    632.876    633.981    635.816    632.876    632.876
 20.270    635.000    636.467     -1.467    632.293    633.440    635.319    632.293    632.293
 20.370    631.902    635.990     -4.088    631.714    632.889    634.814    631.714    631.714
 20.470    598.000    635.574    -37.574    631.138    632.398    634.314    631.138    631.138
 20.570    620.000    635.111    -15.111    630.567    631.859    633.819    630.567    630.567
 20.670    639.643    634.651      4.993    630.000    631.319    633.332    630.000    630.000
 20.770    616.795    634.208    -17.413    629.437    630.795    632.851    629.437    629.437
 20.870    615.000    633.762    -18.762    628.878    630.263    632.377    628.878    628.878
 20.970    679.641    633.357     46.284    628.323    629.768    631.911    628.323    628.323
 21.070    636.000    632.922      3.078    627.771    629.242    631.452    627.771    627.771
 21.170    644.000    632.493     11.507    627.224    628.717    631.000    627.224    627.224
 21.270    620.934    632.077    -11.142    626.681    628.200    630.557    626.681    626.681
 21.370    639.000    631.682      7.318    626.141    627.695    630.128    626.141    626.141
 21.470    630.000    631.286     -1.286    625.606    627.191    629.701    625.606    625.606
 21.570    628.053    630.911     -2.858    625.074    626.703    629.282    625.074    625.074
 21.670    596.000    630.532    -34.532    624.547    626.208    628.871    624.547    624.547
 21.770    657.194    630.163     27.030    624.023    625.717    628.469    624.023    624.023
 21.870    642.504    629.806     12.698    623.503    625.232    628.077    623.503    623.503
 21.970    638.000    629.461      8.539    622.987    624.754    627.694    622.987    622.987
 22.070    666.000    629.128     36.872    622.475    624.283    627.321    622.475    622.475
 22.170    597.828    628.810    -30.982    621.966    623.819    626.958    621.966    621.966
 22.270    621.000    628.507     -7.507    621.462    623.364    626.605    621.462    621.462
 22.370    635.000    628.218      6.782    620.961    622.915    626.264    620.961    620.961
 22.470    647.000    627.945     19.055    620.464    622.477    625.934    620.464    620.464
 22.570    637.860    627.691     10.169    619.971    622.048    625.616    619.971    619.971
 22.670    643.000    627.456     15.544    619.482    621.628    625.311    619.482    619.482
 22.770    583.234    627.242    -44.009    618.997    621.220    625.019    618.997    618.997
 22.870    627.000    627.057     -0.057    618.515    620.829    624.742    618.515    618.515
 22.970    630.000    626.890      3.110    618.037    620.448    624.478    618.037    618.037
 23.070    629.000    626.749      2.251    617.563    620.083    624.230    617.563    617.563
 23.170    613.000    626.640    -13.640    617.093    619.737    623.997    617.093    617.093
 23.270    598.000    626.567    -28.567    616.626    619.412    623.780    616.626    616.626
 23.370    605.000    626.533    -21.533    616.163    619.114    623.583    616.163    616.163
 23.470    653.000    626.548     26.452    615.704    618.848    623.404    615.704    615.704
 23.570    623.000    626.617     -3.617    615.248    618.620    623.245    615.248    615.248
 23.670    622.000    626.752     -4.752    614.797    618.442    623.108    614.797    614.797
 23.770    617.000    626.969     -9.969    614.348    618.326    622.993    614.348    614.348
 23.870    618.064    627.289     -9.225    613.904    618.291    622.903    613.904    613.904
 23.970    663.000    627.741     35.259    613.463    618.367    622.839    613.463    613.463
 24.070    630.000    628.374      1.626    613.026    618.599    622.803    613.026    613.026
 24.170    624.000    629.281     -5.281    612.593    619.078    622.798    612.593    612.593
 24.270    622.339    630.656     -8.317    612.163    619.997    622.826    612.163    612.163
 24.370    639.000    632.924      6.076    611.736    621.775    622.890    611.736    611.736
 24.470    592.000    636.903    -44.903    611.314    625.233    622.992    611.314    611.314
 24.570    693.968    643.893     50.075    610.895    631.664    623.136    610.895    610.895
 24.670    668.000    655.338     12.662    610.479    642.511    623.326    610.479    610.479
 24.770    685.000    671.811     13.189    610.067    658.344    623.566    610.067    610.067
 24.870    698.000    691.241      6.759    609.659    677.082    623.862    609.659    609.659
 24.970    718.000    707.129     10.871    609.254    692.219    624.220    609.254    609.254
 25.070    745.000    710.693     34.307    608.853    694.960    624.644    608.853    608.853
 25.170    701.000    699.586      1.414    608.455    682.946    625.144    608.455    608.455
 25.270    706.000    681.335     24.665    608.061    663.704    625.728    608.061    608.061
 25.370    687.000    664.269     22.731    607.670    645.558    626.405    607.670    607.670
 25.470    638.315    652.012    -13.698    607.283    632.123    627.187    607.283    607.283
 25.570    642.000    644.721     -2.721    606.899    623.541    628.087    606.899    606.899
 25.670    603.775    641.110    -37.335    606.519    618.512    629.122    606.519    606.519
 25.770    612.999    639.763    -26.764    606.142    615.599    630.309    606.142    606.142
 25.870    682.711    639.695     43.016    605.769    613.795    631.670    605.769    605.769
 25.970    640.000    640.386     -0.386    605.399    612.553    633.233    605.399    605.399
 26.070    632.836    641.615     -8.779    605.033    611.620    635.027    605.033    605.033
 26.170    664.000    643.306     20.694    604.670    610.883    637.092    604.670    604.670
 26.270    625.243    645.451    -20.208    604.310    610.286    639.474    604.310    604.310
 26.370    647.000    648.084     -1.084    603.954    609.804    642.232    603.954    603.954
 26.470    647.831    651.251     -3.420    603.601    609.417    645.433    603.601    603.601
 26.570    639.000    655.022    -16.022    603.251    609.106    649.163    603.251    603.251
 26.670    647.000    659.510    -12.510    602.905    608.874    653.538    602.905    602.905
 26.770    684.000    664.860     19.140    602.562    608.719    658.699    602.562    602.562
 26.870    689.000    671.262     17.738    602.223    608.646    664.834    602.223    602.223
 26.970    701.000    678.971     22.029    601.887    608.665    672.187    601.887    601.887
 27.070    683.000    688.331     -5.331    601.554    608.790    681.087    601.554    601.554
 27.170    688.987    699.812    -10.825    601.224    609.044    691.984    601.224    601.224
 27.270    718.000    714.072      3.928    600.898    609.458    705.501    600.898    600.898
 27.370    663.000    732.052    -69.052    600.575    610.080    722.534    600.575    600.575
 27.470    768.000    755.156     12.844    600.256    610.981    744.414    600.256    600.256
 27.570    757.000    785.705    -28.705    599.939    612.280    773.342    599.939    599.939
 27.670    828.000    828.564     -0.564    599.626    614.224    813.936    599.626    599.626
 27.770    942.000    897.374     44.626    599.316    617.500    879.140    599.316    599.316
 27.870   1021.154   1033.881    -12.726    599.009    624.211   1008.578    599.009    599.009
 27.970   1276.000   1347.402    -71.402    598.706    639.854   1306.040    598.706    598.706
 28.070   2046.000   2047.091     -1.091    598.405    674.946   1970.129    598.405    598.405
 28.170   3161.000   3368.316   -207.316    598.108    741.329   3224.401    598.108    598.108
 28.270   5230.000   5303.689    -73.689    597.814    838.673   5061.929    597.814    597.814
 28.370   7118.814   7268.796   -149.982    597.523    937.715   6927.756    597.523    597.523
 28.470   8059.000   8138.665    -79.665    597.236    982.157   7753.223    597.236    597.236
 28.570   7438.636   7267.972    170.664    596.951    940.110   6924.626    596.951    596.951
 28.670   5413.379   5476.763    -63.383    596.670    853.906   5219.502    596.670    596.670
 28.770   3949.500   3980.241    -30.742    596.391    786.411   3790.210    596.391    596.391
 28.870   3401.000   3390.303     10.697    596.116    770.021   3216.331    596.116    596.116
 28.970   3770.853   3649.834    121.019    595.844    801.318   3444.248    595.844    595.844
 29.070   4334.903   4263.436     71.467    595.575    850.255   4008.665    595.575    595.575
 29.170   4542.000   4545.769     -3.769    595.309    872.489   4268.618    595.309    595.309
 29.270   4172.000   4087.717     84.283    595.046    841.141   3841.816    595.046    595.046
 29.370   3104.000   3159.545    -55.545    594.786    776.081   2978.524    594.786    594.786
 29.470   2279.651   2233.291     46.360    594.529    710.946   2117.120    594.529    594.529
 29.570   1568.120   1557.335     10.785    594.275    663.401   1488.379    594.275    594.275
 29.670   1107.036   1157.204    -50.168    594.024    635.301   1116.024    594.024    594.024
 29.770   1026.000    950.994     75.006    593.776    620.883    923.935    593.776    593.776
 29.870    868.000    848.631     19.369    593.531    613.798    828.386    593.531    593.531
 29.970    819.000    793.159     25.841    593.289    610.038    776.421    593.289    593.289
 30.070    783.644    758.130     25.513    593.050    607.751    743.435    593.050    593.050
 30.170    774.358    733.262     41.095    592.814    606.236    719.842    592.814    592.814
 30.270    775.000    714.623     60.377    592.581    605.257    701.947    592.581    592.581
 30.370    715.000    700.518     14.482    592.351    604.775    688.091    592.351    592.351
 30.470    716.939    690.290     26.649    592.123    604.940    677.471    592.123    592.123
 30.570    685.000    684.208      0.792    591.899    606.196    669.903    591.899    591.899
 30.670    699.000    683.619     15.381    591.677    609.438    665.846    591.677    591.677
 30.770    740.356    690.761     49.595    591.458    615.934    666.264    591.458    591.458
 30.870    690.000    707.514    -17.514    591.243    626.738    671.983    591.243    591.243
 30.970    774.351    732.889     41.462    591.030    641.448    682.416    591.030    591.030
 31.070    716.124    759.898    -43.774    590.819    656.671    693.975    590.819    590.819
 31.170    780.000    774.623      5.377    590.612    665.563    699.595    590.612    590.612
 31.270    764.253    765.487     -1.234    590.407    662.424    693.401    590.407    590.407
 31.370    744.000    736.565      7.435    590.205    649.308    677.411    590.205    590.205
 31.470    656.682    701.856    -45.174    590.006    633.182    658.647    590.006    590.006
 31.570    728.000    672.139     55.861    589.810    619.412    642.517    589.810    589.810
 31.670    688.000    651.236     36.764    589.617    609.913    630.926    589.617    589.617
 31.770    639.336    638.295      1.041    589.426    604.280    623.433    589.426    589.426
 31.870    689.000    630.752     58.248    589.238    601.254    618.730    589.238    589.238
 31.970    676.606    626.257     50.349    589.052    599.682    615.623    589.052    589.052
 32.070    574.879    623.336    -48.456    588.870    598.844    613.358    588.870    588.870
 32.170    602.421    621.254    -18.833    588.690    598.385    611.556    588.690    588.690
 32.270    606.000    619.696    -13.696    588.512    598.158    610.048    588.512    588.512
 32.370    637.000    618.530     18.470    588.338    598.107    608.758    588.338    588.338
 32.470    687.000    617.699     69.301    588.166    598.212    607.650    588.166    588.166
 32.570    567.922    617.179    -49.256    587.996    598.472    606.701    587.996    587.996
 32.670    624.882    616.967      7.915    587.830    598.895    605.899    587.830    587.830
 32.770    611.610    617.079     -5.469    587.665    599.504    605.238    587.665    587.665
 32.870    664.000    617.550     46.450    587.504    600.330    604.722    587.504    587.504
 32.970    676.000    618.437     57.563    587.345    601.423    604.357    587.345    587.345
 33.070    613.688    619.829     -6.141    587.188    602.852    604.163    587.188    587.188
 33.170    700.000    621.860     78.140    587.035    604.722    604.169    587.035    587.035
 33.270    638.000    624.753     13.247    586.883    607.202    604.431    586.883    586.883
 33.370    657.605    628.924     28.681    586.735    610.603    605.052    586.735    586.735
 33.470    593.824    635.262    -41.438    586.588    615.586    606.259    586.588    586.588
 33.570    652.000    645.727      6.273    586.445    623.608    608.556    586.445    586.445
 33.670    683.000    664.356     18.644    586.303    637.664    612.984    586.303    586.303
 33.770    695.098    698.223     -3.125    586.165    663.003    621.367    586.165    586.165
 33.870    756.000    757.027     -1.027    586.028    706.819    636.208    586.028    586.028
 33.970    875.034    849.483     25.551    585.894    775.577    659.757    585.894    585.894
 34.070    950.000    975.681    -25.681    585.763    869.350    692.037    585.763    585.763
 34.170   1187.000   1116.649     70.351    585.634    974.069    728.149    585.634    585.634
 34.270   1186.000   1226.968    -40.968    585.507   1056.053    756.364    585.507    585.507
 34.370   1313.347   1250.776     62.571    585.383   1073.867    762.255    585.383    585.383
 34.470   1240.000   1172.084     67.916    585.261   1015.641    741.687    585.261    585.261
 34.570   1025.000   1035.720    -10.720    585.142    914.621    706.236    585.142    585.142
 34.670    841.000    897.778    -56.778    585.025    812.416    670.388    585.025    585.025
 34.770    836.000    788.772     47.228    584.910    731.661    642.023    584.910    584.910
 34.870    667.969    715.388    -47.419    584.798    677.318    622.869    584.798    584.798
 34.970    724.000    671.349     52.651    584.688    644.733    611.304    584.688    584.688
 35.070    672.381    646.562     25.819    584.580    626.419    604.722    584.580    584.580
 35.170    667.000    632.535     34.465    584.475    616.078    600.930    584.475    584.475
 35.270    641.193    623.978     17.215    584.372    609.786    598.562    584.372    584.372
 35.370    677.000    618.184     58.816    584.271    605.536    596.918    584.271    584.271
 35.470    622.317    613.916      8.401    584.172    602.409    595.679    584.172    584.172
 35.570    635.000    610.609     24.391    584.076    599.985    594.699    584.076    584.076
 35.670    639.640    607.975     31.665    583.982    598.051    593.905    583.982    583.982
 35.770    596.571    605.842     -9.271    583.890    596.478    593.253    583.890    583.890
 35.870    642.000    604.095     37.905    583.800    595.181    592.713    583.800    583.800
 35.970    594.000    602.655     -8.655    583.713    594.100    592.267    583.713    583.713
 36.070    556.591    601.462    -44.871    583.627    593.189    591.899    583.627    583.627
 36.170    581.347    600.475    -19.128    583.544    592.416    591.602    583.544    583.544
 36.270    654.000    599.662     54.338    583.463    591.755    591.369    583.463    583.463
 36.370    585.968    599.001    -13.033    583.384    591.188    591.196    583.384    583.384
 36.470    569.000    598.479    -29.479    583.307    590.701    591.084    583.307    583.307
 36.570    560.834    598.085    -37.251    583.233    590.283    591.035    583.233    583.233
 36.670    634.000    597.818     36.182    583.160    589.925    591.053    583.160    583.160
 36.770    596.000    597.681     -1.681    583.090    589.624    591.146    583.090    583.090
 36.870    619.000    597.681     21.319    583.021    589.376    591.326    583.021    583.021
 36.970    641.750    597.839     43.911    582.955    589.183    591.610    582.955    582.955
 37.070    588.000    598.186    -10.186    582.891    589.052    592.024    582.891    582.891
 37.170    602.724    598.778      3.946    582.828    589.001    592.605    582.828    582.828
 37.270    628.335    599.724     28.611    582.768    589.075    593.417    582.768    582.768
 37.370    636.000    601.234     34.766    582.710    589.364    594.580    582.710    582.710
 37.470    620.316    603.712     16.604    582.654    590.017    596.347    582.654    582.654
 37.570    606.376    607.886     -1.510    582.599    591.240    599.244    582.599    582.599
 37.670    608.000    614.954     -6.954    582.547    593.224    604.276    582.547    582.547
 37.770    599.597    626.590    -26.992    582.497    596.010    613.073    582.497    582.497
 37.870    651.000    644.590      6.410    582.448    599.305    627.728    582.448    582.448
 37.970    640.625    669.895    -29.270    582.402    602.275    650.015    582.402    582.402
 38.070    698.000    701.235     -3.235    582.357    603.658    679.926    582.357    582.357
 38.170    707.000    734.188    -27.188    582.315    602.746    713.748    582.315    582.315
 38.270    753.566    760.231     -6.665    582.274    600.180    742.319    582.274    582.274
 38.370    694.000    767.586    -73.586    582.235    597.043    752.776    582.235    582.235
 38.470    804.435    750.639     53.796    582.198    594.048    738.791    582.198    582.198
 38.570    682.000    717.728    -35.728    582.163    591.581    708.313    582.163    582.163
 38.670    630.104    681.953    -51.849    582.129    589.775    674.310    582.129    582.129
 38.770    658.764    651.620      7.144    582.098    588.560    645.160    582.098    582.098
 38.870    660.676    629.579     31.097    582.068    587.782    623.866    582.068    582.068
 38.970    575.000    615.284    -40.284    582.040    587.292    610.032    582.040    582.040
 39.070    640.594    606.705     33.889    582.014    586.979    601.741    582.014    582.014
 39.170    616.045    601.703     14.342    581.990    586.770    596.923    581.990    581.990
 39.270    627.000    598.693     28.307    581.967    586.624    594.036    581.967    581.967
 39.370    616.000    596.734     19.266    581.946    586.519    592.161    581.946    581.946
 39.470    618.907    595.342     23.565    581.927    586.441    590.828    581.927    581.927
 39.570    596.000    594.288      1.712    581.909    586.385    589.812    581.909    581.909
 39.670    597.000    593.458      3.542    581.894    586.346    589.006    581.894    581.894
 39.770    633.000    592.791     40.209    581.880    586.321    588.350    581.880    581.880
 39.870    597.000    592.248      4.752    581.867    586.307    587.808    581.867    581.867
 39.970    563.000    591.808    -28.808    581.856    586.311    587.354    581.856    581.856
 40.070    588.000    591.449     -3.449    581.847    586.326    586.970    581.847    581.847
 40.170    568.000    591.157    -23.157    581.840    586.354    586.643    581.840    581.840
 40.270    594.995    590.921      4.073    581.834    586.393    586.362    581.834    581.834
 40.370    611.000    590.734     20.266    581.830    586.445    586.119    581.830    581.830
 40.470    577.000    590.590    -13.590    581.827    586.509    585.908    581.827    581.827
 40.570    608.000    590.485     17.515    581.826    586.587    585.724    581.826    581.826
 40.670    563.555    590.415    -26.860    581.827    586.680    585.562    581.827    581.827
 40.770    591.000    590.380      0.620    581.829    586.788    585.421    581.829    581.829
 40.870    593.000    590.379      2.621    581.832    586.915    585.297    581.832    581.832
 40.970    629.753    590.412     39.341    581.837    587.062    585.188    581.837    581.837
 41.070    581.068    590.481     -9.413    581.844    587.232    585.093    581.844    581.844
 41.170    589.000    590.588     -1.588    581.852    587.430    585.011    581.852    581.852
 41.270    583.000    590.737     -7.737    581.862    587.660    584.939    581.862    581.862
 41.370    601.000    590.934     10.066    581.873    587.929    584.879    581.873    581.873
 41.470    577.000    591.187    -14.187    581.885    588.245    584.829    581.885    581.885
 41.570    570.000    591.508    -21.508    581.899    588.620    584.788    581.899    581.899
 41.670    594.992    591.910      3.082    581.915    589.069    584.757    581.915    581.915
 41.770    596.000    592.416      3.584    581.932    589.613    584.736    581.932    581.932
 41.870    562.352    593.063    -30.711    581.950    590.289    584.726    581.950    581.950
 41.970    595.000    593.914      1.086    581.970    591.156    584.730    581.970    581.970
 42.070    600.000    595.097      4.903    581.991    592.340    584.751    581.991    581.991
 42.170    607.000    596.866     10.134    582.013    594.084    584.799    582.013    582.013
 42.270    602.000    599.707      2.293    582.037    596.856    584.892    582.037    582.037
 42.370    572.591    604.437    -31.846    582.062    601.443    585.062    582.062    582.062
 42.470    623.390    612.214     11.176    582.088    608.958    585.353    582.088    582.088
 42.570    626.674    624.302      2.373    582.116    620.618    585.813    582.116    582.116
 42.670    686.296    641.501     44.795    582.145    637.195    586.473    582.145    582.145
 42.770    659.657    663.293     -3.636    582.176    658.187    587.312    582.176    582.176
 42.870    659.000    686.812    -27.812    582.207    680.841    588.222    582.207    582.207
 42.970    652.000    706.046    -54.046    582.240    699.370    588.969    582.240    582.240
 43.070    669.000    713.170    -44.170    582.274    706.249    589.255    582.274    582.274
 43.170    722.252    704.434     17.818    582.310    697.866    588.935    582.310    582.310
 43.270    679.000    684.362     -5.362    582.346    678.574    588.183    582.346    582.346
 43.370    637.000    660.877    -23.877    582.384    655.996    587.302    582.384    582.384
 43.470    644.000    639.655      4.345    582.423    635.593    586.511    582.423    582.423
 43.570    619.000    623.215     -4.215    582.463    619.789    585.907    582.463    582.463
 43.670    576.930    611.856    -34.926    582.504    608.872    585.500    582.504    582.504
 43.770    573.000    604.671    -31.671    582.547    601.970    585.255    582.547    582.547
 43.870    618.000    600.380     17.620    582.591    597.851    585.125    582.591    582.591
 43.970    626.325    597.857     28.468    582.635    595.431    585.065    582.635    582.635
 44.070    585.000    596.327    -11.327    582.681    593.965    585.046    582.681    582.681
 44.170    631.936    595.339     36.597    582.728    593.019    585.050    582.728    582.728
 44.270    596.000    594.659      1.341    582.776    592.369    585.068    582.776    582.776
 44.370    597.000    594.172      2.828    582.826    591.902    585.097    582.826    582.826
 44.470    600.000    593.819      6.181    582.876    591.563    585.133    582.876    582.876
 44.570    600.000    593.566      6.434    582.927    591.319    585.175    582.927    582.927
 44.670    603.267    593.393      9.874    582.979    591.149    585.224    582.979    582.979
 44.770    560.236    593.283    -33.047    583.033    591.039    585.277    583.033    583.033
 44.870    618.000    593.227     24.773    583.087    590.979    585.335    583.087    583.087
 44.970    549.920    593.216    -43.296    583.142    590.961    585.398    583.142    583.142
 45.070    619.000    593.245     25.755    583.199    590.979    585.465    583.199    583.199
 45.170    626.000    593.309     32.691    583.256    591.028    585.537    583.256    583.256
 45.270    625.153    593.404     31.749    583.314    591.106    585.612    583.314    583.314
 45.370    593.000    593.528     -0.528    583.374    591.210    585.692    583.374    583.374
 45.470    621.359    593.680     27.678    583.434    591.337    585.776    583.434    583.434
 45.570    606.000    593.859     12.141    583.495    591.489    585.865    583.495    583.495
 45.670    587.000    594.064     -7.064    583.557    591.662    585.958    583.557    583.557
 45.770    550.328    594.296    -43.968    583.620    591.858    586.056    583.620    583.620
 45.870    573.000    594.554    -21.554    583.683    592.077    586.160    583.683    583.683
 45.970    622.000    594.841     27.159    583.748    592.320    586.268    583.748    583.748
 46.070    604.000    595.157      8.843    583.813    592.587    586.382    583.813    583.813
 46.170    600.463    595.505      4.957    583.880    592.882    586.503    583.880    583.880
 46.270    626.689    595.888     30.800    583.947    593.204    586.630    583.947    583.947
 46.370    617.000    596.310     20.690    584.015    593.559    586.764    584.015    584.015
 46.470    613.153    596.775     16.378    584.084    593.950    586.907    584.084    584.084
 46.570    581.000    597.288    -16.288    584.153    594.382    587.059    584.153    584.153
 46.670    595.000    597.859     -2.859    584.224    594.861    587.220    584.224    584.224
 46.770    568.139    598.496    -30.357    584.295    595.396    587.394    584.295    584.295
 46.870    594.282    599.214     -4.931    584.367    595.998    587.580    584.367    584.367
 46.970    579.478    600.030    -20.553    584.439    596.684    587.783    584.439    584.439
 47.070    642.604    600.978     41.626    584.513    597.482    588.006    584.513    584.513
 47.170    569.000    602.113    -33.113    584.587    598.441    588.255    584.587    584.587
 47.270    548.000    603.540    -55.540    584.661    599.655    588.543    584.661    584.661
 47.370    632.345    605.456     26.888    584.737    601.297    588.891    584.737    584.737
 47.470    597.546    608.200    -10.654    584.813    603.669    589.338    584.813    584.813
 47.570    590.000    612.289    -22.289    584.890    607.230    589.939    584.890    584.890
 47.670    662.000    618.398     43.602    584.967    612.581    590.771    584.967    584.967
 47.770    618.000    627.213     -9.213    585.045    620.332    591.907    585.045    585.045
 47.870    609.000    639.140    -30.140    585.124    630.842    593.395    585.124    585.124
 47.970    670.000    653.899     16.101    585.203    643.861    595.204    585.203    585.203
 48.070    625.352    670.061    -44.709    585.283    658.112    597.185    585.283    585.283
 48.170    693.000    684.649      8.351    585.364    670.940    599.016    585.364    585.364
 48.270    718.000    693.542     24.458    585.445    678.669    600.257    585.445    585.445
 48.370    677.000    693.726    -16.726    585.527    678.609    600.586    585.527    585.527
 48.470    670.261    685.853    -15.592    585.609    671.334    600.078    585.609    585.609
 48.570    680.000    673.612      6.388    585.692    660.124    599.139    585.692    585.692
 48.670    667.000    660.951      6.049    585.775    648.490    598.205    585.775    585.775
 48.770    638.000    650.455    -12.455    585.859    638.726    597.566    585.859    585.859
 48.870    671.572    643.274     28.297    585.943    631.842    597.360    585.943    585.943
 48.970    647.000    639.559      7.441    586.028    627.954    597.620    586.028    586.028
 49.070    630.000    638.925     -8.925    586.113    626.699    598.330    586.113    586.113
 49.170    645.000    640.857      4.143    586.199    627.582    599.465    586.199    586.199
 49.270    638.000    644.994     -6.994    586.285    630.234    601.038    586.285    586.285
 49.370    629.000    651.369    -22.369    586.372    634.589    603.144    586.372    586.372
 49.470    691.916    660.736     31.180    586.459    641.128    606.059    586.459    586.459
 49.570    665.937    675.320     -9.382    586.546    651.385    610.471    586.546    586.546
 49.670    675.000    700.353    -25.353    586.634    669.030    617.941    586.634    586.634
 49.770    767.000    746.541     20.459    586.722    701.595    631.643    586.722    586.722
 49.870    785.000    832.647    -47.647    586.811    762.288    657.124    586.811    586.811
 49.970    963.000    985.683    -22.683    586.900    870.150    702.352    586.900    586.900
 50.070   1246.245   1234.916     11.330    586.989   1045.892    775.883    586.989    586.989
 50.170   1527.000   1598.118    -71.118    587.079   1301.791    883.217    587.079    587.079
 50.270   1953.000   2060.479   -107.479    587.169   1627.542   1019.864    587.169    587.169
 50.370   2552.000   2558.257     -6.257    587.259   1978.284   1166.967    587.259    587.259
 50.470   2972.000   2975.622     -3.622    587.350   2272.462   1290.277    587.350    587.350
 50.570   3140.000   3174.169    -34.169    587.441   2412.619   1348.858    587.441    587.441
 50.670   3070.000   3073.517     -3.517    587.532   2342.154   1318.900    587.532    587.532
 50.770   2735.374   2718.319     17.055    587.624   2092.538   1213.524    587.624    587.624
 50.870   2290.000   2237.532     52.468    587.715   1754.669   1070.756    587.715    587.715
 50.970   1795.000   1759.276     35.724    587.807   1418.908    928.357    587.807    587.807
 51.070   1302.000   1365.660    -63.660    587.900   1143.222    810.491    587.900    587.900
 51.170   1069.000   1086.697    -17.697    587.992    948.830    725.974    587.992    587.992
 51.270    932.000    913.572     18.428    588.085    829.468    672.267    588.085    588.085
 51.370    840.000    818.471     21.529    588.178    765.275    641.429    588.178    588.178
 51.470    802.000    771.169     30.831    588.271    734.393    625.089    588.271    588.271
 51.570    712.566    747.781    -35.215    588.364    719.173    617.007    588.364    588.364
 51.670    731.000    733.228     -2.228    588.457    708.225    613.491    588.457    588.457
 51.770    796.000    720.630     75.370    588.551    696.479    612.726    588.551    588.551
 51.870    734.000    708.779     25.221    588.645    683.540    613.900    588.645    588.645
 51.970    683.000    698.674    -15.674    588.738    670.911    616.510    588.738    588.738
 52.070    689.000    691.113     -2.113    588.832    660.009    619.937    588.832    588.832
 52.170    641.524    685.907    -44.383    588.926    651.588    623.241    588.926    588.926
 52.270    713.000    682.000     31.000    589.020    645.794    625.218    589.020    589.020
 52.370    686.000    678.134      7.866    589.115    642.388    624.852    589.115    589.115
 52.470    696.000    673.750     22.250    589.209    640.973    621.978    589.209    589.209
 52.570    668.000    669.297     -1.297    589.303    641.194    617.399    589.303    589.303
 52.670    645.505    665.754    -20.250    589.397    642.871    612.276    589.397    589.397
 52.770    645.226    664.158    -18.932    589.492    646.104    607.542    589.492    589.492
 52.870    674.000    665.546      8.454    589.586    651.402    603.728    589.586    589.586
 52.970    712.000    671.206     40.794    589.681    659.877    601.007    589.681    589.681
 53.070    652.754    683.042    -30.288    589.775    673.493    599.321    589.775    589.775
 53.170    694.000    703.925     -9.925    589.869    695.273    598.516    589.869    589.869
 53.270    740.000    737.721      2.279    589.964    729.233    598.445    589.964    589.964
 53.370    769.000    788.719    -19.719    590.058    779.752    599.015    590.058    590.058
 53.470    844.636    860.279    -15.643    590.153    850.255    600.164    590.153    590.153
 53.570    948.000    952.744     -4.744    590.247    941.245    601.730    590.247    590.247
 53.670   1025.664   1061.530    -35.866    590.341   1048.049    603.802    590.341    590.341
 53.770   1143.789   1174.035    -30.246    590.435   1158.447    606.003    590.435    590.435
 53.870   1298.000   1268.725     29.275    590.529   1251.371    607.867    590.529    590.529
 53.970   1313.000   1319.084     -6.084    590.623   1300.859    608.841    590.623    590.623
 54.070   1242.857   1307.501    -64.644    590.717   1289.664    608.557    590.717    590.717
 54.170   1175.661   1238.714    -63.053    590.810   1222.426    607.111    590.810    590.810
 54.270   1135.000   1135.594     -0.594    590.904   1121.543    604.971    590.904    590.904
 54.370    994.000   1023.570    -29.570    590.997   1011.924    602.660    590.997    590.997
 54.470    919.000    920.767     -1.767    591.090    911.321    600.551    591.090    591.090
 54.570    829.000    836.597     -7.597    591.184    828.955    598.836    591.184    591.184
 54.670    773.000    773.643     -0.643    591.276    767.360    597.568    591.276    591.276
 54.770    773.470    730.059     43.411    591.369    724.725    596.708    591.369    591.369
 54.870    635.000    701.814    -66.814    591.462    697.107    596.172    591.462    591.462
 54.970    643.000    684.487    -41.487    591.554    680.174    595.868    591.554    591.554
 55.070    654.000    674.335    -20.335    591.646    670.262    595.719    591.646    591.646
 55.170    643.757    668.684    -24.926    591.738    664.751    595.670    591.738    591.738
 55.270    651.000    665.859    -14.859    591.829    662.002    595.686    591.829    591.829
 55.370    674.000    664.921      9.079    591.920    661.093    595.748    591.920    591.920
 55.470    684.000    665.399     18.601    592.011    661.563    595.846    592.011    592.011
 55.570    640.000    667.098    -27.098    592.102    663.222    595.977    592.102    592.102
 55.670    623.383    669.989    -46.606    592.193    666.041    596.140    592.193    592.193
 55.770    679.000    674.173      4.827    592.283    670.116    596.338    592.283    592.283
 55.870    712.586    679.906     32.680    592.373    675.697    596.579    592.373    592.373
 55.970    732.893    687.709     45.184    592.462    683.291    596.877    592.462    592.462
 56.070    699.000    698.602      0.398    592.551    693.893    597.257    592.551    592.551
 56.170    779.000    714.523     64.477    592.640    709.387    597.770    592.640    592.640
 56.270    677.000    738.952    -61.952    592.729    733.164    598.506    592.729    592.729
 56.370    755.000    777.663    -22.663    592.817    770.848    599.615    592.817    592.817
 56.470    791.937    839.287    -47.350    592.905    830.846    601.319    592.905    592.905
 56.570    893.000    935.127    -42.127    592.992    924.168    603.910    592.992    592.992
 56.670   1044.000   1077.524    -33.524    593.079   1062.836    607.708    593.079    593.079
 56.770   1284.232   1276.345      7.887    593.166   1256.467    612.967    593.166    593.166
 56.870   1540.000   1533.864      6.136    593.252   1507.278    619.748    593.252    593.252
 56.970   1768.811   1839.035    -70.223    593.338   1804.515    627.765    593.338    593.338
 57.070   2181.000   2162.445     18.555    593.423   2119.530    636.263    593.423    593.423
 57.170   2521.743   2453.791     67.952    593.508   2403.321    643.944    593.508    593.508
 57.270   2667.778   2647.675     20.103    593.592   2592.175    649.123    593.592    593.592
 57.370   2736.000   2687.282     48.718    593.676   2630.726    650.336    593.676    593.676
 57.470   2508.000   2559.291    -51.291    593.760   2505.967    647.241    593.760    593.760
 57.570   2310.000   2304.522      5.478    593.843   2257.649    640.895    593.843    593.843
 57.670   2049.000   1989.475     59.525    593.925   1950.553    633.022    593.925    593.925
 57.770   1666.226   1673.315     -7.089    594.007   1642.314    625.160    594.007    594.007
 57.870   1397.776   1394.869      2.907    594.089   1370.744    618.334    594.089    594.089
 57.970   1127.000   1172.977    -45.977    594.169   1154.153    613.080    594.169    594.169
 58.070   1019.535   1010.976      8.559    594.250    995.702    609.582    594.250    594.250
 58.170    874.000    902.439    -28.439    594.330    888.949    607.854    594.330    594.330
 58.270    831.000    836.930     -5.930    594.409    823.424    607.931    594.409    594.409
 58.370    775.000    804.487    -29.487    594.488    788.973    610.003    594.488    594.488
 58.470    799.000    798.072      0.928    594.566    778.184    614.443    594.566    594.566
 58.570    815.000    813.991      1.009    594.644    786.918    621.692    594.644    594.644
 58.670    823.961    850.812    -26.851    594.721    813.483    632.012    594.721    594.721
 58.770    905.000    907.550     -2.550    594.797    857.144    645.155    594.797    594.797
 58.870    986.000    981.754      4.246    594.873    916.492    660.080    594.873    594.873
 58.970   1062.000   1067.968     -5.968    594.948    988.033    674.825    594.948    594.948
 59.070   1101.000   1157.107    -56.107    595.022   1065.397    686.682    595.022    595.022
 59.170   1266.000   1238.020     27.980    595.096   1140.130    692.950    595.096    595.096
 59.270   1261.000   1301.579    -40.579    595.170   1204.415    692.318    595.170    595.170
 59.370   1307.000   1343.142    -36.142    595.242   1252.769    685.619    595.242    595.242
 59.470   1315.000   1360.241    -45.241    595.314   1280.601    674.978    595.314    595.314
 59.570   1385.000   1351.398     33.602    595.385   1284.260    662.559    595.385    595.385
 59.670   1245.000   1320.250    -75.250    595.456   1265.633    650.110    595.456    595.456
 59.770   1284.000   1278.380      5.620    595.526   1235.002    638.924    595.526    595.526
 59.870   1269.000   1240.890     28.110    595.595   1206.731    629.744    595.595    595.595
 59.970   1189.882   1220.094    -30.212    595.663   1192.988    622.718    595.663    595.663
 60.070   1202.000   1223.146    -21.146    595.731   1201.205    617.575    595.731    595.731
 60.170   1240.000   1253.103    -13.103    595.798   1234.872    613.882    595.798    595.798
 60.270   1360.000   1310.097     49.903    595.864   1294.517    611.249    595.864    595.864
 60.370   1384.000   1389.914     -5.914    595.930   1376.209    609.397    595.930    595.930
 60.470   1534.000   1481.086     52.914    595.994   1468.672    608.138    595.994    595.994
 60.570   1552.391   1563.714    -11.323    596.058   1552.147    607.341    596.058    596.058
 60.670   1585.553   1612.540    -26.987    596.122   1601.476    606.913    596.122    596.122
 60.770   1578.776   1606.074    -27.298    596.184   1595.227    606.791    596.184    596.184
 60.870   1561.000   1538.554     22.446    596.246   1527.673    606.933    596.246    596.246
 60.970   1468.000   1423.597     44.403    596.306   1412.442    607.315    596.306    596.306
 61.070   1339.000   1285.108     53.892    596.366   1273.434    607.935    596.366    596.366
 61.170   1150.000   1145.969      4.031    596.426   1133.501    608.821    596.426    596.426
 61.270   1057.000   1022.675     34.325    596.484   1009.055    610.053    596.484    596.484
 61.370    930.000    924.600      5.400    596.542    909.303    611.801    596.542    596.542
 61.470    844.000    855.242    -11.242    596.598    837.422    614.385    596.598    596.598
 61.570    819.000    814.380      4.620    596.654    792.653    618.347    596.654    596.654
 61.670    847.000    800.538     46.462    596.709    772.675    624.531    596.709    596.709
 61.770    850.101    812.984     37.117    596.763    775.581    634.112    596.763    596.763
 61.870    873.712    852.665     21.048    596.816    800.879    648.528    596.816    596.816
 61.970    907.000    921.793    -14.793    596.869    849.318    669.241    596.869    596.869
 62.070   1027.000   1022.206      4.794    596.920    921.673    697.315    596.920    596.920
 62.170   1108.000   1152.963    -44.963    596.970   1016.901    732.853    596.970    596.970
 62.270   1265.000   1307.847    -42.847    597.020   1130.221    774.422    597.020    597.020
 62.370   1502.000   1473.388     28.612    597.069   1251.588    818.605    597.069    597.069
 62.470   1580.039   1627.919    -47.880    597.117   1364.958    859.788    597.117    597.117
 62.570   1695.000   1743.057    -48.057    597.163   1449.350    890.579    597.163    597.163
 62.670   1798.000   1790.996      7.004    597.209   1484.219    903.720    597.209    597.209
 62.770   1829.828   1758.071     71.757    597.254   1459.458    895.650    597.254    597.254
 62.870   1637.000   1653.588    -16.588    597.298   1381.915    868.810    597.298    597.298
 62.970   1487.000   1503.419    -16.419    597.341   1270.672    829.981    597.341    597.341
 63.070   1345.760   1336.399      9.361    597.383   1147.003    786.715    597.383    597.383
 63.170   1180.036   1175.633      4.403    597.424   1027.955    745.067    597.424    597.424
 63.270    943.000   1035.981    -92.981    597.464    924.494    708.933    597.464    597.464
 63.370    926.000    924.468      1.532    597.503    841.803    680.160    597.503    597.503
 63.470    842.000    841.857      0.143    597.542    780.440    658.952    597.542    597.542
 63.570    758.909    784.798    -25.889    597.579    737.930    644.438    597.579    597.579
 63.670    722.000    748.073    -26.073    597.615    710.422    635.255    597.615    597.615
 63.770    718.677    726.438     -7.761    597.650    694.044    630.031    597.650    597.650
 63.870    709.428    715.688     -6.261    597.684    685.685    627.671    597.684    597.684
 63.970    690.549    713.238    -22.689    597.717    683.412    627.522    597.717    597.717
 64.070    668.831    718.187    -49.356    597.749    686.493    629.418    597.749    597.749
 64.170    732.000    731.183      0.817    597.779    695.240    633.690    597.779    597.779
 64.270    744.225    754.149     -9.924    597.809    710.752    641.163    597.809    597.809
 64.370    796.000    789.892      6.108    597.838    734.556    653.116    597.838    597.838
 64.470    793.004    841.498    -48.495    597.865    768.132    671.154    597.865    597.865
 64.570    915.000    911.470      3.530    597.892    812.316    696.942    597.892    597.892
 64.670   1020.000   1000.622     19.378    597.918    866.642    731.764    597.918    597.918
 64.770   1081.000   1106.850    -25.850    597.942    928.684    775.945    597.942    597.942
 64.870   1192.930   1223.976    -31.046    597.965    993.519    828.231    597.965    597.965
 64.970   1373.000   1341.056     31.944    597.987   1053.561    885.271    597.987    597.987
 65.070   1469.000   1442.978     26.022    598.008   1099.463    941.304    598.008    598.008
 65.170   1588.000   1513.300     74.700    598.028   1122.780    988.337    598.028    598.028
 65.270   1562.000   1539.082     22.918    598.047   1119.501   1017.441    598.047    598.047
 65.370   1581.715   1515.600     66.115    598.065   1091.757   1021.757    598.065    598.065
 65.470   1429.773   1448.522    -18.749    598.081   1046.458   1000.033    598.081    598.081
 65.570   1297.000   1351.834    -54.834    598.097    992.381    957.475    598.097    598.097
 65.670   1186.347   1242.262    -55.915    598.111    937.481    902.849    598.111    598.111
 65.770   1082.000   1133.966    -51.966    598.124    887.263    844.810    598.124    598.124
 65.870   1012.000   1036.159    -24.159    598.136    844.349    789.946    598.136    598.136
 65.970    970.862    953.160     17.702    598.146    808.946    742.373    598.146    598.146
 66.070    877.000    885.680     -8.680    598.156    779.897    703.957    598.156    598.156
 66.170    847.000    832.484     14.516    598.164    755.865    674.801    598.164    598.164
 66.270    761.000    791.628    -30.628    598.171    735.982    653.834    598.171    598.171
 66.370    815.146    761.022     54.125    598.177    719.801    639.410    598.177    598.177
 66.470    719.000    738.639    -19.639    598.182    707.031    629.798    598.182    598.182
 66.570    717.000    722.699     -5.699    598.186    697.403    623.486    598.186    598.186
 66.670    688.000    711.794    -23.794    598.188    690.665    619.317    598.188    598.188
 66.770    651.000    704.902    -53.902    598.189    686.601    616.489    598.189    598.189
 66.870    622.000    701.342    -79.342    598.189    685.040    614.489    598.189    598.189
 66.970    661.000    700.734    -39.734    598.188    685.905    613.014    598.188    598.188
 67.070    702.000    703.014     -1.014    598.185    689.299    611.897    598.185    598.185
 67.170    714.000    708.534      5.466    598.181    695.658    611.054    598.181    598.181
 67.270    719.000    718.242      0.758    598.176    705.957    610.458    598.176    598.176
 67.370    664.000    733.926    -69.926    598.170    721.968    610.124    598.170    598.170
 67.470    770.377    758.484     11.893    598.162    746.537    610.104    598.162    598.162
 67.570    847.000    796.142     50.858    598.153    783.797    610.491    598.153    598.153
 67.670    812.000    852.457    -40.457    598.143    839.176    611.413    598.143    598.143
 67.770    972.254    933.942     38.312    598.132    919.032    613.027    598.132    598.132
 67.870    996.000   1047.126    -51.126    598.119   1029.737    615.489    598.119    598.119
 67.970   1174.000   1197.027    -23.027    598.105   1176.189    618.921    598.105    598.105
 68.070   1368.000   1385.176    -17.176    598.090   1359.888    623.355    598.090    598.090
 68.170   1568.972   1607.535    -38.563    598.073   1576.906    628.685    598.073    598.073
 68.270   1792.000   1852.667    -60.667    598.055   1816.101    634.619    598.055    598.055
 68.370   2166.000   2100.440     65.560    598.036   2057.855    640.642    598.036    598.036
 68.470   2342.000   2321.758     20.242    598.016   2273.813    646.017    598.016    598.016
 68.570   2570.118   2481.300     88.818    597.994   2429.551    649.847    597.994    597.994
 68.670   2591.000   2546.596     44.404    597.971   2493.416    651.309    597.971    597.971
 68.770   2565.000   2502.405     62.595    597.946   2450.545    650.014    597.946    597.946
 68.870   2346.000   2359.324    -13.324    597.920   2311.257    646.230    597.920    597.920
 68.970   2175.000   2147.510     27.490    597.893   2104.939    640.718    597.893    597.893
 69.070   1883.782   1902.491    -18.709    597.865   1866.225    634.376    597.865    597.865
 69.170   1746.000   1654.880     91.120    597.835   1624.958    627.976    597.835    597.835
 69.270   1502.000   1426.625     75.375    597.804   1402.541    622.075    597.804    597.804
 69.370   1268.723   1230.833     37.890    597.771   1211.753    617.002    597.771    597.771
 69.470   1163.000   1072.900     90.100    597.738   1057.860    612.895    597.738    597.738
 69.570   1006.000    952.252     53.748    597.702    940.304    609.737    597.702    597.702
 69.670    860.844    864.403     -3.559    597.666    854.714    607.416    597.666    597.666
 69.770    852.000    802.980     49.020    597.628    794.882    605.768    597.628    597.628
 69.870    714.521    761.350    -46.829    597.589    754.341    604.626    597.589    597.589
 69.970    769.000    733.668     35.332    597.548    727.398    603.837    597.548    597.548
 70.070    704.810    715.365    -10.555    597.506    709.587    603.296    597.506    597.506
 70.170    747.000    703.162     43.838    597.462    697.718    602.914    597.462    597.462
 70.270    736.000    694.891     41.109    597.418    689.676    602.637    597.418    597.418
 70.370    701.000    689.208     11.792    597.371    684.151    602.431    597.371    597.371
 70.470    700.000    685.329     14.671    597.324    680.378    602.274    597.324    597.324
 70.570    642.988    682.821    -39.833    597.275    677.936    602.158    597.275    597.275
 70.670    684.000    681.477      2.523    597.224    676.621    602.077    597.224    597.224
 70.770    730.000    681.239     48.761    597.173    676.377    602.031    597.173    597.173
 70.870    706.000    682.185     23.815    597.119    677.275    602.023    597.119    597.119
 70.970    733.000    684.547     48.453    597.065    679.543    602.061    597.065    597.065
 71.070    651.809    688.782    -36.973    597.009    683.618    602.161    597.009    597.009
 71.170    707.000    695.673     11.327    596.951    690.258    602.351    596.951    596.951
 71.270    678.393    706.469    -28.076    596.892    700.669    602.672    596.892    596.892
 71.370    682.515    723.028    -40.513    596.832    716.645    603.187    596.832    596.832
 71.470    709.000    747.934    -38.934    596.770    740.682    603.984    596.770    596.770
 71.570    764.000    784.496    -20.496    596.707    775.978    605.172    596.707    596.707
 71.670    832.000    836.567     -4.567    596.643    826.253    606.884    596.643    596.643
 71.770    890.384    908.086    -17.702    596.577    895.316    609.250    596.577    596.577
 71.870    982.000   1002.337    -20.337    596.509    986.336    612.383    596.509    596.509
 71.970   1161.000   1120.956     40.044    596.440   1100.897    616.339    596.440    596.440
 72.070   1296.475   1262.855     33.621    596.370   1237.946    621.081    596.370    596.370
 72.170   1495.000   1423.200     71.800    596.298   1392.816    626.451    596.298    596.298
 72.270   1580.390   1592.625    -12.235    596.225   1556.452    632.136    596.225    596.225
 72.370   1700.000   1756.758    -56.758    596.150   1714.969    637.657    596.150    596.150
 72.470   1941.626   1896.544     45.082    596.074   1849.952    642.378    596.074    596.074
 72.570   1921.000   1990.620    -69.620    595.997   1940.754    645.587    595.997    595.997
 72.670   2100.939   2021.181     79.758    595.918   1970.161    646.690    595.918    595.918
 72.770   2040.569   1981.666     58.902    595.837   1931.824    645.469    595.837    595.837
 72.870   1768.000   1880.270   -112.270    595.755   1833.655    642.201    595.755    595.755
 72.970   1707.377   1735.675    -28.299    595.672   1693.707    637.509    595.672    595.672
 73.070   1580.000   1569.258     10.742    595.587   1532.641    632.105    595.587    595.587
 73.170   1457.000   1399.579     57.421    595.501   1368.408    626.600    595.501    595.501
 73.270   1222.177   1240.356    -18.179    595.413   1214.281    621.437    595.413    595.413
 73.370   1077.127   1100.314    -23.187    595.324   1078.716    616.886    595.324    595.324
 73.470    920.000    983.723    -63.723    595.233    965.860    613.070    595.233    595.233
 73.570    947.855    891.251     56.604    595.141    876.372    610.000    595.141    595.141
 73.670    754.000    821.000    -67.000    595.047    808.412    607.620    595.047    595.047
 73.770    806.000    769.598     36.402    594.952    758.699    605.839    594.952    594.952
 73.870    766.574    733.144     33.430    594.855    723.429    604.560    594.855    594.855
 73.970    753.000    707.916     45.084    594.757    698.966    603.699    594.757    594.757
 74.070    696.564    690.773      5.791    594.658    682.237    603.187    594.658    594.658
 74.170    679.453    679.317      0.136    594.557    670.886    602.982    594.557    594.557
 74.270    696.352    671.863     24.489    594.454    663.249    603.065    594.454    594.454
 74.370    698.000    667.307     30.693    594.350    658.226    603.431    594.350    594.350
 74.470    717.128    664.960     52.168    594.245    655.125    604.083    594.245    594.245
 74.570    632.000    664.388    -32.388    594.138    653.514    605.019    594.138    594.138
 74.670    684.000    665.278     18.722    594.029    653.095    606.224    594.029    594.029
 74.770    681.000    667.339     13.661    593.919    653.617    607.659    593.919    593.919
 74.870    627.000    670.232    -43.232    593.808    654.810    609.254    593.808    593.808
 74.970    668.000    673.529     -5.529    593.695    656.350    610.904    593.695    593.695
 75.070    686.000    676.696      9.304    593.581    657.844    612.468    593.581    593.581
 75.170    698.000    679.125     18.875    593.465    658.846    613.782    593.465    593.465
 75.270    636.862    680.251    -43.389    593.347    658.944    614.697    593.347    593.347
 75.370    731.000    679.753     51.247    593.229    657.888    615.136    593.229    593.229
 75.470    626.062    677.712    -51.650    593.108    655.714    615.146    593.108    593.108
 75.570    710.000    674.624     35.376    592.987    652.737    614.909    592.987    592.987
 75.670    720.531    671.257     49.274    592.863    649.450    614.700    592.863    592.863
 75.770    683.430    668.495     14.935    592.739    646.406    614.850    592.739    592.739
 75.870    713.000    667.254     45.746    592.612    644.153    615.728    592.612    592.612
 75.970    707.000    668.469     38.531    592.485    643.219    617.740    592.485    592.485
 76.070    626.000    673.096    -47.096    592.355    644.114    621.334    592.355    592.355
 76.170    682.247    682.095      0.152    592.225    647.326    626.981    592.225    592.225
 76.270    675.000    696.371    -21.371    592.092    653.295    635.144    592.092    592.092
 76.370    703.000    716.661    -13.661    591.959    662.367    646.216    591.959    591.959
 76.470    697.917    743.383    -45.467    591.824    674.724    660.434    591.824    591.824
 76.570    744.368    776.448    -32.080    591.687    690.294    677.777    591.687    591.687
 76.670    837.000    815.076     21.924    591.549    708.673    697.873    591.549    591.549
 76.770    909.801    857.628     52.172    591.409    729.039    719.906    591.409    591.409
 76.870    906.655    901.491      5.164    591.268    750.094    742.559    591.268    591.268
 76.970    970.000    943.018     26.982    591.126    770.045    763.983    591.126    591.126
 77.070   1036.627    977.669     58.958    590.982    786.661    781.869    590.982    590.982
 77.170   1011.000   1000.608     10.392    590.836    797.575    793.749    590.836    590.836
 77.270   1018.846   1007.930     10.916    590.689    800.871    797.634    590.689    590.689
 77.370    966.000    998.190    -32.190    590.541    795.838    792.788    590.541    590.541
 77.470    971.000    973.075     -2.075    590.391    783.300    780.075    590.391    590.391
 77.570    910.000    936.619    -26.619    590.240    765.224    761.557    590.240    590.240
 77.670    937.000    893.659     43.341    590.087    743.975    739.707    590.087    590.087
 77.770    855.000    848.630      6.370    589.932    721.720    716.791    589.932    589.932
 77.870    768.000    805.026    -37.026    589.777    700.167    694.596    589.777    589.777
 77.970    823.746    765.294     58.452    589.619    680.510    674.372    589.619    589.619
 78.070    702.000    730.887    -28.887    589.461    663.460    656.864    589.461    589.461
 78.170    684.735    702.406    -17.671    589.301    649.309    642.380    589.301    589.301
 78.270    708.319    679.772     28.547    589.139    638.018    630.879    589.139    589.139
 78.370    691.150    662.433     28.717    588.976    629.317    622.081    588.976    588.976
 78.470    658.381    649.574      8.807    588.811    622.806    615.571    588.811    588.811
 78.570    610.488    640.293    -29.805    588.645    618.043    610.888    588.645    588.645
 78.670    653.000    633.734     19.266    588.478    614.609    607.597    588.478    588.478
 78.770    675.179    629.165     46.014    588.309    612.145    605.324    588.309    588.309
 78.870    590.970    626.008    -35.038    588.139    610.367    603.775    588.139    588.139
 78.970    635.000    623.839     11.161    587.967    609.067    602.734    587.967    587.967
 79.070    601.000    622.363    -21.363    587.794    608.099    602.053    587.794    587.794
 79.170    622.416    621.394      1.022    587.619    607.372    601.637    587.619    587.619
 79.270    572.000    620.819    -48.819    587.443    606.828    601.430    587.443    587.443
 79.370    668.114    620.585     47.530    587.266    606.439    601.407    587.266    587.266
 79.470    601.000    620.679    -19.679    587.087    606.196    601.565    587.087    587.087
 79.570    644.000    621.127     22.873    586.906    606.105    601.925    586.906    586.906
 79.670    575.077    621.991    -46.914    586.725    606.183    602.529    586.725    586.725
 79.770    614.589    623.377     -8.789    586.542    606.459    603.454    586.542    586.542
 79.870    567.000    625.450    -58.450    586.357    606.976    604.825    586.357    586.357
 79.970    667.238    628.457     38.781    586.171    607.787    606.833    586.171    586.171
 80.070    647.649    632.756     14.892    585.984    608.965    609.766    585.984    585.984
 80.170    671.000    638.859     32.141    585.795    610.600    614.042    585.795    585.795
 80.270    670.619    647.461     23.158    585.605    612.813    620.237    585.605    585.605
 80.370    633.000    659.470    -26.470    585.413    615.756    629.107    585.413    585.413
 80.470    717.000    676.007     40.993    585.220    619.618    641.584    585.220    585.220
 80.570    681.127    698.354    -17.227    585.026    624.618    658.730    585.026    585.026
 80.670    717.000    727.851    -10.851    584.830    631.000    681.642    584.830    584.830
 80.770    751.000    765.729    -14.729    584.633    639.019    711.295    584.633    584.633
 80.870    813.967    812.897      1.071    584.434    648.923    748.352    584.434    584.434
 80.970    882.000    869.697     12.303    584.234    660.933    792.934    584.234    584.234
 81.070    978.000    935.639     42.361    584.033    675.202    844.400    584.033    584.033
 81.170   1004.076   1009.128     -5.052    583.830    691.737    901.145    583.830    583.830
 81.270   1039.015   1087.261    -48.246    583.626    710.323    960.487    583.626    583.626
 81.370   1158.727   1165.778     -7.052    583.421    730.456   1018.669    583.421    583.421
 81.470   1295.000   1239.266     55.734    583.215    751.334   1071.079    583.215    583.215
 81.570   1294.000   1301.760     -7.760    583.006    771.912   1112.799    583.006    583.006
 81.670   1418.000   1347.780     70.220    582.797    791.041   1139.497    582.797    582.797
 81.770   1414.018   1373.451     40.566    582.586    807.614   1148.402    582.586    582.586
 81.870   1477.000   1377.358     99.642    582.374    820.833   1138.897    582.374    582.374
 81.970   1358.421   1360.254     -1.833    582.161    830.092   1112.340    582.161    582.161
 82.070   1445.000   1324.776    120.224    581.946    835.102   1071.654    581.946    581.946
 82.170   1280.000   1274.937      5.063    581.730    835.880   1020.836    581.730    581.730
 82.270   1270.248   1215.434     54.814    581.513    832.630    964.377    581.513    581.513
 82.370   1142.721   1150.859     -8.138    581.295    825.612    906.610    581.295    581.295
 82.470   1125.000   1085.142     39.858    581.075    815.131    851.159    581.075    581.075
 82.570   1035.000   1021.369     13.631    580.854    801.654    800.644    580.854    580.854
 82.670   1019.000    961.816     57.184    580.631    785.890    756.631    580.631    580.631
 82.770    925.000    907.957     17.043    580.407    768.697    719.739    580.407    580.407
 82.870    851.728    860.470     -8.742    580.182    750.881    689.840    580.182    580.182
 82.970    782.000    819.337    -37.337    579.956    733.065    666.290    579.956    579.956
 83.070    828.249    784.097     44.152    579.728    715.713    648.168    579.728    579.728
 83.170    745.000    754.139     -9.139    579.500    699.213    634.475    579.500    579.500
 83.270    652.000    728.912    -76.912    579.270    683.947    624.277    579.270    579.270
 83.370    657.000    708.001    -51.001    579.038    670.285    616.789    579.038    579.038
 83.470    639.000    691.104    -52.104    578.806    658.545    611.390    578.806    578.806
 83.570    659.000    677.994    -18.994    578.572    648.958    607.624    578.572    578.572
 83.670    621.974    668.474    -46.500    578.337    641.651    605.168    578.337    578.337
 83.770    646.000    662.350    -16.350    578.101    636.651    603.799    578.101    578.101
 83.870    607.000    659.388    -52.388    577.864    633.885    603.357    577.864    577.864
 83.970    570.000    659.286    -89.286    577.625    633.182    603.709    577.625    577.625
 84.070    683.000    661.638     21.362    577.385    634.273    604.723    577.385    577.385
 84.170    606.000    665.927    -59.927    577.144    636.792    606.243    577.144    577.144
 84.270    718.171    671.508     46.663    576.902    640.285    608.081    576.902    576.902
 84.370    720.483    677.622     42.862    576.659    644.218    610.013    576.659    576.659
 84.470    697.000    683.416     13.584    576.414    647.996    611.779    576.414    576.414
 84.570    669.989    687.999    -18.010    576.168    651.005    613.104    576.168    576.168
 84.670    637.000    690.550    -53.550    575.922    652.680    613.733    575.922    575.922
 84.770    669.403    690.475    -21.072    575.674    652.611    613.479    575.674    575.674
 84.870    648.000    687.562    -39.562    575.424    650.648    612.284    575.424    575.424
 84.970    645.000    682.030    -37.030    575.174    646.927    610.227    575.174    575.174
 85.070    638.000    674.438    -36.438    574.923    641.814    607.502    574.923    574.923
 85.170    665.045    665.512     -0.467    574.670    635.785    604.357    574.670    574.670
 85.270    562.000    655.986    -93.986    574.417    629.319    601.050    574.417    574.417
 85.370    617.000    646.518    -29.518    574.162    622.839    597.812    574.162    574.162
 85.470    632.000    637.645     -5.645    573.906    616.683    594.844    573.906    573.906
 85.570    639.000    629.774      9.226    573.650    611.096    592.307    573.650    573.650
 85.670    662.600    623.183     39.418    573.392    606.229    590.327    573.392    573.392
 85.770    640.099    618.032     22.067    573.133    602.152    588.996    573.133    573.133
 85.870    616.000    614.390      1.610    572.873    598.866    588.381    572.873    572.873
 85.970    599.643    612.247    -12.605    572.612    596.323    588.521    572.612    572.612
 86.070    579.145    611.549    -32.404    572.350    594.448    589.434    572.350    572.350
 86.170    591.441    612.202    -20.761    572.086    593.156    591.115    572.086    572.086
 86.270    589.000    614.095    -25.095    571.822    592.369    593.528    571.822    571.822
 86.370    662.000    617.098     44.902    571.557    592.028    596.604    571.557    571.557
 86.470    591.000    621.065    -30.065    571.291    592.101    600.228    571.291    571.291
 86.570    595.000    625.831    -30.831    571.024    592.588    604.237    571.024    571.024
 86.670    612.925    631.213    -18.288    570.756    593.520    608.413    570.756    570.756
 86.770    606.000    637.003    -31.003    570.487    594.966    612.484    570.487    570.487
 86.870    607.578    642.979    -35.401    570.216    597.019    616.132    570.216    570.216
 86.970    658.000    648.914      9.086    569.945    599.799    619.010    569.945    569.945
 87.070    666.000    654.618     11.382    569.673    603.439    620.798    569.673    569.673
 87.170    697.000    659.990     37.010    569.401    608.069    621.260    569.401    569.401
 87.270    725.000    665.063     59.937    569.127    613.804    620.318    569.127    569.127
 87.370    687.612    670.005     17.607    568.852    620.716    618.066    568.852    568.852
 87.470    715.000    675.054     39.946    568.576    628.812    614.735    568.576    568.576
 87.570    735.000    680.426     54.574    568.300    638.004    610.629    568.300    568.300
 87.670    713.000    686.224     26.776    568.022    648.090    606.053    568.022    568.022
 87.770    768.000    692.391     75.609    567.744    658.738    601.284    567.744    567.744
 87.870    710.065    698.681     11.383    567.465    669.472    596.551    567.465    567.465
 87.970    650.656    704.665    -54.009    567.185    679.677    592.041    567.185    567.185
 88.070    734.000    709.749     24.251    566.904    688.628    587.888    566.904    566.904
 88.170    773.000    713.260     59.740    566.623    695.565    584.177    566.623    566.623
 88.270    707.107    714.583     -7.476    566.340    699.837    580.947    566.340    566.340
 88.370    775.000    713.339     61.661    566.057    701.063    578.198    566.057    566.057
 88.470    749.342    709.507     39.835    565.773    699.253    575.902    565.773    565.773
 88.570    682.000    703.436    -21.436    565.488    694.800    574.012    565.488    565.488
 88.670    647.861    695.734    -47.873    565.202    688.365    572.473    565.202    565.202
 88.770    649.000    687.126    -38.126    564.916    680.727    571.232    564.916    564.916
 88.870    626.245    678.348    -52.103    564.629    672.674    570.235    564.629    564.629
 88.970    700.000    670.087     29.913    564.341    664.936    569.440    564.341    564.341
 89.070    646.000    662.934    -16.934    564.052    658.141    568.808    564.052    564.052
 89.170    687.589    657.354     30.234    563.763    652.783    568.310    563.763    563.763
 89.270    669.765    653.655     16.110    563.473    649.194    567.921    563.473    563.473
 89.370    661.000    651.968      9.032    563.182    647.527    567.621    563.182    563.182
 89.470    648.792    652.247     -3.455    562.891    647.755    567.392    562.891    562.891
 89.570    605.060    654.279    -49.219    562.599    649.681    567.215    562.599    562.599
 89.670    700.916    657.696     43.220    562.306    652.955    567.075    562.306    562.306
 89.770    670.000    661.996      8.004    562.013    657.094    566.951    562.013    562.013
 89.870    668.000    666.573      1.427    561.719    661.513    566.823    561.719    561.719
 89.970    690.000    670.751     19.249    561.424    665.557    566.670    561.424    561.424
 90.070    625.415    673.849    -48.434    561.129    668.566    566.470    561.129    561.129
 90.170    632.485    675.270    -42.785    560.833    669.961    566.205    560.833    560.833
 90.270    648.074    674.611    -26.537    560.537    669.350    565.863    560.537    560.537
 90.370    657.000    671.750    -14.750    560.240    666.614    565.441    560.240    560.240
 90.470    681.000    666.853     14.147    559.943    661.912    564.947    559.943    559.943
 90.570    657.000    660.311     -3.311    559.645    655.621    564.396    559.645    559.645
 90.670    606.047    652.631    -46.584    559.346    648.228    563.805    559.346    559.346
 90.770    602.000    644.334    -42.334    559.047    640.238    563.193    559.047    559.047
 90.870    664.179    635.895     28.284    558.748    632.109    562.577    558.748    558.748
 90.970    656.000    627.712     28.288    558.448    624.225    561.972    558.448    558.448
 91.070    610.000    620.092    -10.092    558.147    616.883    561.387    558.147    558.147
 91.170    617.000    613.251      3.749    557.846    610.291    560.831    557.846    557.846
 91.270    612.000    607.317      4.683    557.545    604.574    560.307    557.545    557.545
 91.370    618.000    602.346     15.654    557.243    599.785    559.819    557.243    557.243
 91.470    597.000    598.331     -1.331    556.941    595.918    559.364    556.941    556.941
 91.570    598.000    595.223      2.777    556.638    592.926    558.943    556.638    556.638
 91.670    564.666    592.949    -28.283    556.335    590.736    558.552    556.335    556.335
 91.770    559.000    591.427    -32.427    556.032    589.272    558.189    556.032    556.032
 91.870    623.000    590.587     32.413    555.728    588.465    557.850    555.728    555.728
 91.970    629.580    590.377     39.203    555.424    588.264    557.535    555.424    555.424
 92.070    649.000    590.775     58.225    555.120    588.648    557.244    555.120    555.120
 92.170    601.000    591.796      9.204    554.815    589.631    556.975    554.815    554.815
 92.270    592.288    593.490     -1.202    554.511    591.260    556.733    554.511    554.511
 92.370    589.775    595.943     -6.168    554.205    593.621    556.519    554.205    554.205
 92.470    567.433    599.277    -31.843    553.900    596.827    556.337    553.900    553.900
 92.570    609.000    603.636      5.364    553.594    601.021    556.194    553.594    553.594
 92.670    635.791    609.183     26.608    553.288    606.359    556.094    553.288    553.288
 92.770    641.000    616.084     24.916    552.982    613.002    556.041    552.982    552.982
 92.870    623.000    624.495     -1.495    552.676    621.101    556.041    552.676    552.676
 92.970    622.000    634.542    -12.542    552.369    630.781    556.096    552.369    552.369
 93.070    667.000    646.307     20.693    552.062    642.122    556.207    552.062    552.062
 93.170    640.307    659.814    -19.507    551.756    655.150    556.372    551.756    551.756
 93.270    647.000    675.009    -28.009    551.449    669.816    556.587    551.449    551.449
 93.370    726.900    691.755     35.145    551.141    685.988    556.846    551.141    551.141
 93.470    674.218    709.819    -35.601    550.834    703.440    557.142    550.834    550.834
 93.570    686.000    728.869    -42.869    550.527    721.851    557.467    550.527    550.527
 93.670    769.000    748.480     20.520    550.220    740.801    557.814    550.220    550.220
 93.770    814.785    768.151     46.634    549.912    759.792    558.179    549.912    549.912
 93.870    838.000    787.423     50.577    549.605    778.362    558.570    549.605    549.605
 93.970    759.406    805.915    -46.510    549.297    796.110    559.002    549.297    549.297
 94.070    809.000    823.438    -14.438    548.990    812.812    559.513    548.990    548.990
 94.170    829.000    840.065    -11.065    548.682    828.487    560.157    548.682    548.682
 94.270    871.000    856.087     14.913    548.375    843.352    561.006    548.375    548.375
 94.370    876.284    871.893      4.391    548.068    857.718    562.139    548.068    548.068
 94.470    940.000    887.830     52.170    547.760    871.850    563.636    547.760    547.760
 94.570    934.000    904.094     29.906    547.453    885.878    565.564    547.453    547.453
 94.670    861.391    920.696    -59.305    547.146    899.767    567.972    547.146    547.146
 94.770    891.838    937.501    -45.663    546.839    913.365    570.872    546.839    546.839
 94.870    957.000    954.305      2.695    546.532    926.493    574.244    546.532    546.532
 94.970    950.000    970.890    -20.890    546.226    938.998    578.019    546.226    546.226
 95.070    947.000    987.001    -40.001    545.919    950.740    582.084    545.919    545.919
 95.170   1006.000   1002.260      3.740    545.613    961.504    586.277    545.613    545.613
 95.270   1032.000   1016.065     15.935    545.307    970.892    590.393    545.307    545.307
 95.370   1048.000   1027.533     20.467    545.001    978.262    594.191    545.001    545.001
 95.470   1045.216   1035.535      9.682    544.695    982.752    597.405    544.695    544.695
 95.570   1038.341   1038.833     -0.493    544.390    983.383    599.777    544.390    544.390
 95.670   1074.000   1036.336     37.664    544.085    979.283    601.084    544.085    544.085
 95.770   1090.000   1027.345     62.655    543.780    969.900    601.182    543.780    543.780
 95.870   1055.000   1011.809     43.191    543.476    955.218    600.034    543.476    543.476
 95.970   1041.317    990.405     50.912    543.172    935.830    597.723    543.172    543.172
 96.070    948.000    964.430    -16.430    542.868    912.851    594.430    542.868    542.868
 96.170    905.000    935.582    -30.582    542.565    887.735    590.400    542.565    542.565
 96.270    905.952    905.732      0.220    542.262    862.089    585.898    542.262    542.262
 96.370    887.000    876.755     10.245    541.959    837.527    581.181    541.959    541.959
 96.470    909.564    850.423     59.141    541.657    815.593    576.482    541.657    541.657
 96.570    822.000    828.353     -6.353    541.356    797.707    571.994    541.356    541.356
 96.670    756.614    811.974    -55.360    541.055    785.149    567.867    541.055    541.055
 96.770    815.000    802.510     12.490    540.754    779.040    564.207    540.754    540.754
 96.870    839.000    800.974     38.026    540.454    780.329    561.074    540.454    540.454
 96.970    751.642    808.159    -56.517    540.155    789.788    558.493    540.155    540.155
 97.070    839.000    824.635     14.365    539.856    807.992    556.456    539.856    539.856
 97.170    860.000    850.729      9.271    539.558    835.301    554.933    539.558    539.558
 97.270    944.808    886.511     58.297    539.260    871.826    553.879    539.260    539.260
 97.370   1028.000    931.733     96.267    538.963    917.376    553.242    538.963    538.963
 97.470   1006.000    985.829     20.171    538.666    971.439    552.966    538.666    538.666
 97.570   1014.000   1047.927    -33.927    538.371   1033.199    552.995    538.371    538.371
 97.670   1156.957   1116.591     40.366    538.076   1101.282    553.270    538.076    538.076
 97.770   1214.000   1189.971     24.029    537.781   1173.899    553.728    537.781    537.781
 97.870   1307.000   1265.683     41.317    537.488   1248.733    554.304    537.488    537.488
 97.970   1306.000   1340.834    -34.834    537.195   1322.962    554.928    537.195    537.195
 98.070   1461.000   1412.053     48.947    536.903   1393.292    555.524    536.903    536.903
 98.170   1491.000   1475.611     15.389    536.611   1456.072    556.014    536.611    536.611
 98.270   1567.000   1527.676     39.324    536.321   1507.548    556.320    536.321    536.321
 98.370   1559.000   1564.742     -5.742    536.031   1544.287    556.371    536.031    536.031
 98.470   1657.219   1584.189     73.030    535.743   1563.716    556.116    535.743    535.743
 98.570   1670.000   1584.790     85.210    535.455   1564.636    555.531    535.455    535.455
 98.670   1557.000   1566.974     -9.974    535.168   1547.461    554.623    535.168    535.168
 98.770   1604.058   1532.690     71.368    534.882   1514.104    553.431    534.882    534.882
 98.870   1472.000   1484.996    -12.996    534.597   1467.563    552.012    534.597    534.597
 98.970   1383.000   1427.538    -44.538    534.313   1411.414    550.434    534.313    534.313
 99.070   1394.000   1364.114     29.886    534.030   1349.385    548.768    534.030    534.030
 99.170   1336.000   1298.371     37.629    533.748   1285.057    547.079    533.748    533.748
 99.270   1270.075   1233.629     36.446    533.467   1221.694    545.423    533.467    533.467
 99.370   1149.303   1172.790    -23.487    533.187   1162.148    543.852    533.187    533.187
 99.470   1072.961   1118.310    -45.349    532.908   1108.836    542.403    532.908    532.908
 99.570   1111.000   1072.211     38.789    532.631   1063.751    541.107    532.631    532.631
 99.670   1036.000   1036.112     -0.112    532.354   1028.491    539.986    532.354    532.354
 99.770    999.000   1011.273    -12.273    532.079   1004.305    539.051    532.079    532.079
 99.870    982.000    998.620    -16.620    531.805    992.115    538.307    531.805    531.805
 99.970    990.000    998.771     -8.771    531.532    992.540    537.752    531.532    531.532
100.070   1001.000   1012.043    -11.043    531.260   1005.908    537.377    531.260    531.260
100.170   1095.000   1038.460     56.540    530.990   1032.254    537.171    530.990    530.990
100.270   1067.000   1077.757    -10.757    530.721   1071.331    537.115    530.721    530.721
100.370   1145.000   1129.373     15.627    530.453   1122.601    537.190    530.453    530.453
100.470   1161.865   1192.443    -30.578    530.187   1185.222    537.370    530.187    530.187
100.570   1302.000   1265.770     36.230    529.921   1258.022    537.631    529.921    529.921
100.670   1376.000   1347.794     28.206    529.658   1339.473    537.943    529.658    529.658
100.770   1467.000   1436.558     30.442    529.395   1427.646    538.275    529.395    529.395
100.870   1589.000   1529.701     59.299    529.135   1520.215    538.597    529.135    529.135
100.970   1749.000   1624.521    124.479    528.875   1614.509    538.874    528.875    528.875
101.070   1642.142   1718.001    -75.859    528.617   1707.542    539.077    528.617    528.617
101.170   1841.000   1807.071     33.929    528.361   1796.270    539.180    528.361    528.361
101.270   1933.342   1888.874     44.468    528.106   1877.852    539.164    528.106    528.106
101.370   1959.000   1961.008     -2.008    527.853   1949.894    539.023    527.853    527.853
101.470   2124.000   2021.658    102.342    527.601   2010.572    538.764    527.601    527.601
101.570   2096.000   2069.520     26.480    527.351   2058.565    538.402    527.351    527.351
101.670   2076.000   2103.605    -27.605    527.103   2092.856    537.966    527.103    527.103
101.770   2179.799   2123.034     56.764    526.856   2112.537    537.483    526.856    526.856
101.870   2127.000   2126.993      0.007    526.611   2116.762    536.986    526.611    526.611
101.970   2144.000   2114.904     29.096    526.368   2104.927    536.501    526.368    526.368
102.070   2171.275   2086.785     84.490    526.127   2077.025    536.051    526.127    526.127
102.170   1972.351   2043.609    -71.258    525.887   2034.010    535.656    525.887    525.887
102.270   1917.000   1987.475    -70.475    525.649   1977.969    535.327    525.649    525.649
102.370   1853.075   1921.468    -68.393    525.413   1911.979    535.073    525.413    525.413
102.470   1775.882   1849.249    -73.367    525.179   1839.702    534.892    525.179    525.179
102.570   1820.530   1774.554     45.976    524.946   1764.883    534.777    524.946    524.946
102.670   1632.329   1700.764    -68.435    524.716   1690.913    534.717    524.716    524.716
102.770   1568.000   1630.622    -62.622    524.487   1620.558    534.691    524.487    524.487
102.870   1489.000   1566.105    -77.105    524.261   1555.815    534.680    524.261    524.261
102.970   1568.671   1508.398     60.273    524.036   1497.892    534.662    524.036    524.036
103.070   1430.000   1457.918    -27.918    523.814   1447.224    534.617    523.814    523.814
103.170   1409.438   1414.373     -4.935    523.593   1403.539    534.528    523.593    523.593
103.270   1312.000   1376.847    -64.847    523.375   1365.935    534.380    523.375    523.375
103.370   1336.000   1343.915     -7.915    523.159   1333.002    534.161    523.159    523.159
103.470   1285.227   1313.809    -28.582    522.945   1302.979    533.859    522.945    522.945
103.570   1208.000   1284.634    -76.634    522.733   1273.984    533.466    522.733    522.733
103.670   1274.109   1254.649     19.460    522.523   1244.279    532.975    522.523    522.523
103.770   1233.000   1222.498     10.502    522.316   1212.507    532.388    522.316    522.316
103.870   1239.034   1187.388     51.646    522.111   1177.870    531.711    522.111    522.111
103.970   1108.000   1149.138    -41.138    521.908   1140.170    530.957    521.908    521.908
104.070   1116.000   1108.088      7.912    521.707   1099.731    530.144    521.707    521.707
104.170   1099.721   1064.942     34.780    521.509   1057.235    529.293    521.509    521.509
104.270    982.000   1020.595    -38.595    521.313   1013.558    528.425    521.313    521.313
104.370    990.000    975.998     14.002    521.120    969.629    527.558    521.120    521.120
104.470    902.959    932.061    -29.103    520.929    926.345    526.710    520.929    520.929
104.570    888.000    889.606     -1.606    520.740    884.513    525.893    520.740    520.740
104.670    837.000    849.330    -12.330    520.554    844.820    525.118    520.554    520.554
104.770    839.000    811.793     27.207    520.370    807.819    524.393    520.370    520.370
104.870    808.353    777.404     30.949    520.189    773.914    523.722    520.189    520.189
104.970    732.248    746.425    -14.177    520.011    743.365    523.108    520.011    520.011
105.070    759.004    718.973     40.031    519.835    716.291    522.549    519.835    519.835
105.170    699.000    695.014      3.986    519.662    692.664    522.038    519.662    519.662
105.270    726.111    674.487     51.624    519.492    672.415    521.586    519.492    519.492
105.370    618.719    657.176    -38.457    519.324    655.334    521.184    519.324    519.324
105.470    678.000    642.821     35.179    519.159    641.167    520.827    519.159    519.159
105.570    614.288    631.135    -16.847    518.997    629.633    520.509    518.997    518.997
105.670    656.866    621.824     35.042    518.837    620.443    520.226    518.837    518.837
105.770    578.392    614.603    -36.212    518.681    613.315    519.974    518.681    518.681
105.870    602.000    609.215     -7.215    518.527    607.994    519.750    518.527    518.527
105.970    609.000    605.433      3.567    518.376    604.260    519.549    518.376    518.376
106.070    634.223    603.075     31.147    518.229    601.932    519.370    518.229    518.229
106.170    608.154    602.000      6.154    518.084    600.869    519.210    518.084    518.084
106.270    632.893    602.106     30.787    517.942    600.973    519.068    517.942    517.942
106.370    626.000    603.331     22.669    517.803    602.181    518.943    517.803    517.803
106.470    584.544    605.640    -21.096    517.667    604.461    518.835    517.667    517.667
106.570    642.319    609.027     33.292    517.534    607.804    518.743    517.534    517.534
106.670    657.000    613.498     43.502    517.405    612.218    518.667    517.405    517.405
106.770    644.917    619.070     25.846    517.279    617.720    518.608    517.279    517.279
106.870    605.080    625.761    -20.681    517.155    624.326    518.566    517.155    517.155
106.970    628.000    633.579     -5.579    517.035    632.046    518.541    517.035    517.035
107.070    606.000    642.515    -36.515    516.919    640.870    518.532    516.919    516.919
107.170    684.000    652.533     31.467    516.805    650.763    518.539    516.805    516.805
107.270    685.027    663.559     21.468    516.695    661.653    518.562    516.695    516.695
107.370    662.000    675.475    -13.475    516.588    673.422    518.598    516.588    516.588
107.470    674.000    688.115    -14.115    516.485    685.908    518.646    516.485    516.485
107.570    753.717    701.260     52.458    516.385    698.893    518.701    516.385    516.385
107.670    692.000    714.639    -22.639    516.289    712.112    518.762    516.289    516.289
107.770    729.000    727.937      1.063    516.196    725.254    518.822    516.196    516.196
107.870    734.831    740.794     -5.963    516.106    737.964    518.878    516.106    516.106
107.970    713.425    752.827    -39.401    516.021    749.863    518.924    516.021    516.021
108.070    760.000    763.643     -3.643    515.938    760.566    518.954    515.938    515.938
108.170    794.000    772.881     21.119    515.860    769.717    518.964    515.860    515.860
108.270    835.830    780.253     55.578    515.785    777.031    518.948    515.785    515.785
108.370    756.000    785.586    -29.586    515.714    782.340    518.904    515.714    515.714
108.470    783.000    788.866     -5.866    515.646    785.629    518.831    515.646    515.646
108.570    770.000    790.244    -20.244    515.583    787.048    518.730    515.583    515.583
108.670    812.682    790.019     22.663    515.523    786.893    518.604    515.523    515.523
108.770    757.602    788.597    -30.995    515.467    785.565    518.459    515.467    515.467
108.870    808.000    786.434     21.566    515.415    783.514    518.299    515.415    515.415
108.970    785.000    783.981      1.019    515.367    781.186    518.131    515.367    515.367
109.070    779.000    781.648     -2.648    515.322    778.983    517.960    515.322    515.322
109.170    765.733    779.767    -14.034    515.282    777.235    517.792    515.282    515.282
109.270    810.512    778.579     31.933    515.246    776.177    517.629    515.246    515.246
109.370    798.481    778.220     20.261    515.214    775.943    517.477    515.214    515.214
109.470    748.000    778.719    -30.719    515.186    776.559    517.336    515.186    515.186
109.570    786.000    779.994      6.006    515.162    777.939    517.210    515.162    515.162
109.670    745.792    781.856    -36.064    515.142    779.897    517.098    515.142    515.142
109.770    753.256    784.017    -30.762    515.127    782.144    517.001    515.127    515.127
109.870    772.000    786.109    -14.109    515.116    784.311    516.916    515.116    515.116
109.970    760.000    787.703    -27.703    515.109    785.974    516.844    515.109    515.109
110.070    731.000    788.353    -57.353    515.106    786.687    516.781    515.106    515.106
110.170    765.000    787.641    -22.641    515.108    786.034    516.727    515.108    515.108
110.270    768.000    785.231    -17.231    515.114    783.681    516.678    515.114    515.114
110.370    754.000    780.914    -26.914    515.125    779.421    516.633    515.125    515.125
110.470    777.000    774.634      2.366    515.140    773.204    516.587    515.140    515.140
110.570    742.000    766.492    -24.492    515.160    765.130    516.540    515.160    515.160
110.670    748.000    756.738     -8.738    515.184    755.437    516.504    515.184    515.184
110.770    713.000    745.680    -32.680    515.213    744.439    516.473    515.213    515.213
110.870    662.000    733.679    -71.679    515.246    732.497    516.447    515.246    515.246
110.970    732.000    721.107     10.893    515.284    719.983    516.426    515.284    515.284
111.070    696.000    708.317    -12.317    515.327    707.250    516.411    515.327    515.327
111.170    729.000    695.632     33.368    515.375    694.618    516.404    515.375    515.375
111.270    658.504    683.334    -24.830    515.427    682.370    516.404    515.427    515.427
111.370    705.758    671.654     34.104    515.484    670.737    516.413    515.484    515.484
111.470    668.000    660.785      7.215    515.546    659.909    516.432    515.546    515.546
111.570    660.000    650.880      9.120    515.614    650.041    516.461    515.614    515.614
111.670    635.000    642.032     -7.032    515.686    641.224    516.499    515.686    515.686
111.770    654.000    634.294     19.706    515.763    633.512    516.548    515.763    515.763
111.870    672.219    627.685     44.534    515.845    626.924    516.607    515.845    515.845
111.970    612.000    622.189    -10.189    515.932    621.444    516.676    515.932    515.932
112.070    618.000    617.761      0.239    516.024    617.028    516.756    516.024    516.024
112.170    611.000    614.338     -3.338    516.121    613.612    516.844    516.121    516.121
112.270    629.000    611.840     17.160    516.224    611.117    516.942    516.224    516.224
112.370    609.140    610.181     -1.041    516.332    609.458    517.048    516.332    516.332
112.470    639.000    609.268     29.732    516.445    608.543    517.162    516.445    516.445
112.570    585.000    609.010    -24.010    516.563    608.280    517.284    516.563    516.563
112.670    597.552    609.320    -11.768    516.687    608.584    517.414    516.687    516.687
112.770    619.000    610.118      8.882    516.816    609.375    517.549    516.816    516.816
112.870    633.000    611.336     21.664    516.951    610.584    517.692    516.951    516.951
112.970    606.632    612.914     -6.281    517.091    612.153    517.840    517.091    517.091
113.070    571.135    614.807    -43.672    517.237    614.037    517.993    517.237    517.237
113.170    610.000    616.984     -6.984    517.388    616.206    518.153    517.388    517.388
113.270    646.000    619.430     26.570    517.545    618.644    518.318    517.545    517.545
113.370    628.000    622.145      5.855    517.707    621.349    518.489    517.707    517.707
113.470    667.833    625.144     42.690    517.876    624.338    518.666    517.876    517.876
113.570    587.000    628.459    -41.459    518.049    627.643    518.851    518.049    518.049
113.670    624.000    632.139     -8.139    518.229    631.310    519.043    518.229    518.229
113.770    643.540    636.254      7.286    518.415    635.410    519.243    518.415    518.415
113.870    685.100    640.895     44.205    518.606    640.032    519.453    518.606    518.606
113.970    637.000    646.182     -9.182    518.804    645.295    519.673    518.804    518.804
114.070    630.000    652.268    -22.268    519.007    651.352    519.904    519.007    519.007
114.170    644.022    659.351    -15.329    519.216    658.398    520.149    519.216    519.216
114.270    622.000    667.682    -45.682    519.432    666.683    520.408    519.432    519.432
114.370    698.000    677.580     20.420    519.653    676.525    520.683    519.653    519.653
114.470    689.000    689.443     -0.443    519.881    688.319    520.976    519.881    519.881
114.570    700.000    703.770     -3.770    520.115    702.562    521.289    520.115    520.115
114.670    735.090    721.171     13.919    520.355    719.864    521.624    520.355    520.355
114.770    709.000    742.395    -33.395    520.601    740.967    521.983    520.601    520.601
114.870    726.127    768.338    -42.211    520.854    766.768    522.369    520.854    520.854
114.970    820.163    800.064     20.098    521.113    798.328    522.784    521.113    521.113
115.070    769.000    838.821    -69.821    521.378    836.889    523.232    521.378    521.378
115.170    907.116    886.040     21.076    521.650    883.883    523.713    521.650    521.650
115.270    916.000    943.343    -27.343    521.928    940.927    524.232    521.928    521.928
115.370   1073.012   1012.528     60.484    522.213   1009.816    524.790    522.213    522.213
115.470   1103.000   1095.549      7.451    522.505   1092.502    525.390    522.505    522.505
115.570   1195.000   1194.477      0.523    522.803   1191.055    526.033    522.803    522.803
115.670   1313.000   1311.449      1.551    523.108   1307.610    526.721    523.108    523.108
115.770   1416.000   1448.600    -32.600    523.419   1444.299    527.456    523.419    523.419
115.870   1625.000   1607.971     17.029    523.738   1603.165    528.237    523.738    523.738
115.970   1838.941   1791.409     47.532    524.063   1786.055    529.064    524.063    524.063
116.070   1983.092   2000.453    -17.361    524.395   1994.510    529.936    524.395    524.395
116.170   2275.000   2236.206     38.794    524.734   2229.635    530.851    524.734    524.734
116.270   2474.000   2499.205    -25.205    525.080   2491.973    531.804    525.080    525.080
116.370   2802.000   2789.299     12.701    525.433   2781.377    532.792    525.433    525.433
116.470   3037.000   3105.528    -68.528    525.793   3096.896    533.809    525.793    525.793
116.570   3466.000   3446.022     19.978    526.160   3436.668    534.847    526.160    526.160
116.670   3642.000   3807.931   -165.931    526.534   3797.852    535.899    526.534    526.534
116.770   4240.905   4187.368     53.537    526.915   4176.572    536.957    526.915    526.915
116.870   4559.698   4579.397    -19.699    527.304   4567.900    538.012    527.304    527.304
116.970   4792.000   4978.009   -186.009    527.700   4965.842    539.055    527.700    527.700
117.070   5221.000   5376.363   -155.363    528.103   5363.561    540.081    528.103    528.103
117.170   5819.000   5766.609     52.391    528.514   5753.217    541.082    528.514    528.514
117.270   5939.000   6140.179   -201.179    528.932   6126.252    542.050    528.932    528.932
117.370   6615.486   6487.977    127.509    529.358   6473.577    542.979    529.358    529.358
117.470   6639.000   6800.651   -161.651    529.791   6785.848    543.861    529.791    529.791
117.570   7009.609   7068.977    -59.368    530.232   7053.849    544.689    530.232    530.232
117.670   7356.000   7284.357     71.643    530.680   7268.986    545.456    530.680    530.680
117.770   7269.501   7439.408   -169.907    531.136   7423.883    546.156    531.136    531.136
117.870   7602.000   7528.579     73.421    531.600   7512.990    546.782    531.600    531.600
117.970   7595.000   7548.689     46.311    532.072   7533.126    547.332    532.072    532.072
118.070   7421.984   7499.263    -77.279    532.551   7483.812    547.804    532.551    532.551
118.170   7498.924   7382.581    116.343    533.039   7367.323    548.199    533.039    533.039
118.270   7225.000   7203.425     21.575    533.534   7188.436    548.520    533.534    533.534
118.370   7048.000   6968.590     79.410    534.037   6953.938    548.772    534.037    534.037
118.470   6562.000   6686.279   -124.279    534.549   6672.023    548.960    534.549    534.549
118.570   6471.822   6365.486    106.336    535.068   6351.679    549.091    535.068    535.068
118.670   5985.000   6015.465    -30.465    535.596   6002.151    549.172    535.596    535.596
118.770   5548.170   5645.306    -97.136    536.131   5632.524    549.210    536.131    536.131
118.870   5337.595   5263.624     73.971    536.675   5251.405    549.213    536.675    536.675
118.970   5009.704   4878.330    131.374    537.228   4866.698    549.189    537.228    537.228
119.070   4483.734   4496.479    -12.745    537.788   4485.450    549.146    537.788    537.788
119.170   4152.000   4124.163     27.837    538.357   4113.744    549.095    538.357    538.357
119.270   3750.890   3766.451    -15.561    538.935   3756.644    549.044    538.935    538.935
119.370   3310.273   3427.371   -117.097    539.521   3418.167    549.004    539.521    539.521
119.470   3211.000   3109.925    101.075    540.115   3101.311    548.982    540.115    540.115
119.570   2866.389   2816.148     50.241    540.718   2808.102    548.988    540.718    540.718
119.670   2554.403   2547.187      7.216    541.330   2539.683    549.028    541.330    541.330
119.770   2273.422   2303.411    -29.990    541.951   2296.416    549.109    541.951    541.951
119.870   2073.555   2084.533    -10.978    542.580   2078.011    549.236    542.580    542.580
119.970   1921.000   1889.730     31.270    543.218   1883.640    549.414    543.218    543.218
120.070   1700.494   1717.765    -17.271    543.865   1712.065    549.647    543.865    543.865
120.170   1649.000   1567.105     81.895    544.521   1561.749    549.936    544.521    544.521
120.270   1460.000   1436.017     23.983    545.186   1430.957    550.286    545.186    545.186
120.370   1286.964   1322.661    -35.698    545.860   1317.847    550.698    545.860    545.860
120.470   1317.000   1225.169     91.831    546.543   1220.550    551.172    546.543    546.543
120.570   1185.000   1141.704     43.296    547.235   1137.229    551.710    547.235    547.235
120.670   1153.000   1070.519     82.481    547.936   1066.136    552.312    547.936    547.936
120.770   1047.000   1009.988     37.012    548.647   1005.641    552.980    548.647    548.647
120.870   1009.000    958.630     50.370    549.367    954.267    553.713    549.367    549.367
120.970    928.426    915.126     13.299    550.096    910.691    554.512    550.096    550.096
121.070    912.576    878.320     34.256    550.835    873.756    555.378    550.835    550.835
121.170    799.920    847.211    -47.292    551.583    842.463    556.312    551.583    551.583
121.270    794.000    820.950    -26.950    552.341    815.958    557.314    552.341    552.341
121.370    876.000    798.818     77.182    553.108    793.523    558.385    553.108    553.108
121.470    732.806    780.216    -47.410    553.885    774.558    559.528    553.885    553.885
121.570    803.149    764.649     38.500    554.671    758.565    560.742    554.671    554.671
121.670    782.000    751.707     30.293    555.468    745.133    562.030    555.468    555.468
121.770    740.000    741.053     -1.053    556.274    733.924    563.393    556.274    556.274
121.870    692.000    732.409    -40.409    557.090    724.658    564.833    557.090    557.090
121.970    690.000    725.546    -35.546    557.916    717.106    566.350    557.916    557.916
122.070    745.703    720.273     25.430    558.752    711.075    567.945    558.752    558.752
122.170    677.000    716.427    -39.427    559.598    706.403    569.619    559.598    559.598
122.270    659.798    713.872    -54.074    560.454    702.952    571.373    560.454    560.454
122.370    706.000    712.486     -6.486    561.320    700.601    573.205    561.320    561.320
122.470    689.000    712.162    -23.162    562.196    699.244    575.116    562.196    562.196
122.570    705.000    712.800     -7.800    563.083    698.783    577.103    563.083    563.083
122.670    675.000    714.307    -39.307    563.980    699.127    579.165    563.980    563.980
122.770    742.001    716.590     25.410    564.887    700.189    581.296    564.887    564.887
122.870    674.000    719.558    -45.558    565.805    701.881    583.491    565.805    565.805
122.970    679.000    723.116    -44.116    566.733    704.119    585.741    566.733    566.733
123.070    694.000    727.166    -33.166    567.671    706.815    588.036    567.671    567.671
123.170    681.000    731.604    -50.604    568.621    709.878    590.364    568.621    568.621
123.270    766.396    736.321     30.075    569.581    713.214    592.707    569.581    569.581
123.370    696.516    741.202    -44.686    570.552    716.727    595.049    570.552    570.552
123.470    712.000    746.125    -34.125    571.533    720.314    597.369    571.533    571.533
123.570    788.354    750.962     37.392    572.525    723.872    599.643    572.525    572.525
123.670    732.000    755.582    -23.582    573.529    727.294    601.848    573.529    573.529
123.770    771.000    759.851     11.149    574.543    730.471    603.958    574.543    574.543
123.870    803.000    763.636     39.364    575.568    733.296    605.946    575.568    575.568
123.970    755.000    766.809    -11.809    576.605    735.667    607.787    576.605    576.605
124.070    774.000    769.254      4.746    577.652    737.491    609.459    577.652    577.652
124.170    747.000    770.872    -23.872    578.711    738.689    610.939    578.711    578.711
124.270    781.000    771.584      9.416    579.781    739.200    612.214    579.781    579.781
124.370    787.000    771.338     15.662    580.862    738.977    613.273    580.862    580.862
124.470    724.576    770.090    -45.514    581.955    737.982    614.114    581.955    581.955
124.570    739.036    767.930    -28.895    583.059    736.298    614.744    583.059    583.059
124.670    827.000    764.874     62.126    584.174    733.928    615.174    584.174    584.174
124.770    827.000    760.993     66.007    585.301    730.928    615.420    585.301    585.301
124.870    807.288    756.381     50.907    586.440    727.370    615.505    586.440    586.440
124.970    794.000    751.149     42.851    587.591    723.339    615.453    587.591    587.591
