neutron_powder_diffraction_0118
R_wp: 3.953
Temperature (K): 977.348
Counts: 83702.00
Wavelength (Ã…): 2.52098
COMMENTS
Test file for demonstrating the .xyy file format in Reel1.0
END OF HEADER
   tth       Y_obs     Y_calc      Y_res    Background    Phase_1_Nuc    Phase_1_Mag    Phase_2_Nuc    Phase_2_Mag
  9.970    586.000    558.152     27.848    557.127    558.020    557.127    557.259    557.127
 10.070    563.903    558.522      5.381    557.420    558.389    557.420    557.552    557.420
 10.170    587.000    558.895     28.105    557.705    558.762    557.705    557.837    557.705
 10.270    578.000    559.273     18.727    557.981    559.139    557.981    558.114    557.981
 10.370    592.000    559.659     32.341    558.250    559.524    558.250    558.383    558.250
 10.470    596.000    560.056     35.944    558.510    559.921    558.510    558.644    558.510
 10.570    587.000    560.471     26.529    558.762    560.335    558.762    558.897    558.762
 10.670    561.000    560.909      0.091    559.007    560.772    559.007    559.142    559.007
 10.770    533.000    561.380    -28.380    559.243    561.243    559.243    559.379    559.243
 10.870    603.000    561.891     41.109    559.472    561.754    559.472    559.609    559.472
 10.970    555.000    562.461     -7.461    559.693    562.323    559.693    559.830    559.693
 11.070    621.000    563.112     57.888    559.907    562.972    559.907    560.045    559.907
 11.170    564.000    563.876      0.124    560.113    563.736    560.113    560.251    560.113
 11.270    566.000    564.804      1.196    560.311    564.663    560.311    560.450    560.311
 11.370    576.000    565.986     10.014    560.502    565.844    560.502    560.642    560.502
 11.470    566.100    567.619     -1.519    560.686    567.475    560.686    560.826    560.686
 11.570    550.000    570.189    -20.189    560.862    570.044    560.862    561.003    560.862
 11.670    604.489    574.856     29.633    561.031    574.707    561.031    561.173    561.031
 11.770    602.000    583.888     18.112    561.193    583.734    561.193    561.335    561.193
 11.870    557.097    600.470    -43.373    561.348    600.306    561.348    561.490    561.348
 11.970    662.000    626.804     35.196    561.496    626.625    561.496    561.639    561.496
 12.070    627.885    660.103    -32.218    561.636    659.904    561.636    561.780    561.636
 12.170    672.000    688.381    -16.381    561.770    688.166    561.770    561.915    561.770
 12.270    677.000    694.242    -17.242    561.897    694.023    561.897    562.042    561.897
 12.370    712.120    672.844     39.276    562.018    672.637    562.018    562.163    562.018
 12.470    637.000    639.394     -2.394    562.131    639.205    562.131    562.277    562.131
 12.570    594.000    609.789    -15.789    562.238    609.616    562.238    562.385    562.238
 12.670    562.380    589.904    -27.524    562.338    589.741    562.338    562.486    562.338
 12.770    583.228    578.758      4.470    562.432    578.601    562.432    562.580    562.432
 12.870    555.000    573.123    -18.123    562.519    572.968    562.519    562.668    562.519
 12.970    597.869    570.263     27.606    562.600    570.109    562.600    562.750    562.600
 13.070    507.000    568.644    -61.644    562.674    568.491    562.674    562.825    562.674
 13.170    614.000    567.596     46.404    562.742    567.443    562.742    562.894    562.742
 13.270    545.000    566.853    -21.853    562.804    566.699    562.804    562.956    562.804
 13.370    599.316    566.300     33.016    562.860    566.146    562.860    563.013    562.860
 13.470    558.000    565.877     -7.877    562.910    565.722    562.910    563.063    562.910
 13.570    565.000    565.547     -0.547    562.953    565.392    562.953    563.108    562.953
 13.670    548.417    565.285    -16.868    562.991    565.129    562.991    563.146    562.991
 13.770    588.408    565.072     23.336    563.023    564.916    563.023    563.178    563.023
 13.870    568.052    564.896      3.156    563.048    564.739    563.048    563.205    563.048
 13.970    530.720    564.748    -34.028    563.068    564.590    563.068    563.226    563.068
 14.070    544.000    564.620    -20.620    563.083    564.462    563.083    563.241    563.083
 14.170    574.000    564.509      9.491    563.091    564.349    563.091    563.250    563.091
 14.270    566.352    564.409      1.943    563.094    564.249    563.094    563.254    563.094
 14.370    554.000    564.318    -10.318    563.091    564.157    563.091    563.252    563.091
 14.470    597.302    564.234     33.069    563.083    564.072    563.083    563.244    563.083
 14.570    533.000    564.155    -31.155    563.069    563.993    563.069    563.232    563.069
 14.670    550.000    564.078    -14.078    563.050    563.915    563.050    563.213    563.050
 14.770    640.000    564.002     75.998    563.026    563.838    563.026    563.190    563.026
 14.870    572.795    563.927      8.868    562.996    563.762    562.996    563.161    562.996
 14.970    598.073    563.852     34.221    562.961    563.686    562.961    563.127    562.961
 15.070    538.000    563.776    -25.776    562.921    563.610    562.921    563.087    562.921
 15.170    553.000    563.700    -10.700    562.876    563.532    562.876    563.043    562.876
 15.270    569.000    563.621      5.379    562.825    563.453    562.825    562.993    562.825
 15.370    550.827    563.540    -12.714    562.770    563.371    562.770    562.939    562.770
 15.470    571.229    563.457      7.771    562.710    563.287    562.710    562.880    562.710
 15.570    524.772    563.372    -38.600    562.644    563.201    562.644    562.815    562.644
 15.670    608.131    563.284     44.848    562.574    563.112    562.574    562.746    562.574
 15.770    561.000    563.192     -2.192    562.499    563.019    562.499    562.672    562.499
 15.870    535.913    563.098    -27.185    562.419    562.924    562.419    562.593    562.419
 15.970    520.427    563.001    -42.573    562.335    562.826    562.335    562.510    562.335
 16.070    607.690    562.900     44.790    562.246    562.724    562.246    562.422    562.246
 16.170    577.000    562.796     14.204    562.152    562.619    562.152    562.329    562.152
 16.270    530.000    562.688    -32.688    562.054    562.510    562.054    562.232    562.054
 16.370    533.000    562.578    -29.578    561.952    562.399    561.952    562.131    561.952
 16.470    558.000    562.465     -4.465    561.845    562.285    561.845    562.025    561.845
 16.570    593.538    562.348     31.191    561.733    562.166    561.733    561.914    561.733
 16.670    560.000    562.226     -2.226    561.617    562.044    561.617    561.800    561.617
 16.770    596.196    562.101     34.094    561.497    561.918    561.497    561.681    561.497
 16.870    552.000    561.973     -9.973    561.373    561.788    561.373    561.557    561.373
 16.970    602.449    561.841     40.608    561.244    561.655    561.244    561.430    561.244
 17.070    578.000    561.708     16.292    561.112    561.521    561.112    561.299    561.112
 17.170    550.000    561.592    -11.592    560.975    561.404    560.975    561.163    560.975
 17.270    544.000    561.458    -17.458    560.835    561.269    560.835    561.024    560.835
 17.370    606.672    561.364     45.308    560.690    561.173    560.690    560.880    560.690
 17.470    587.000    561.282     25.718    560.541    561.091    560.541    560.733    560.541
 17.570    568.000    561.136      6.864    560.389    560.944    560.389    560.582    560.389
 17.670    531.000    560.981    -29.981    560.232    560.787    560.232    560.426    560.232
 17.770    532.000    560.822    -28.822    560.072    560.626    560.072    560.268    560.072
 17.870    514.000    560.659    -46.659    559.909    560.463    559.909    560.105    559.909
 17.970    512.000    560.494    -48.494    559.741    560.296    559.741    559.939    559.741
 18.070    564.000    560.325      3.675    559.570    560.125    559.570    559.769    559.570
 18.170    547.661    560.153    -12.492    559.395    559.952    559.395    559.596    559.395
 18.270    531.000    559.978    -28.978    559.217    559.776    559.217    559.419    559.217
 18.370    574.000    559.799     14.201    559.035    559.596    559.035    559.239    559.035
 18.470    579.000    559.618     19.382    558.850    559.413    558.850    559.055    558.850
 18.570    534.342    559.434    -25.092    558.661    559.227    558.661    558.868    558.661
 18.670    562.000    559.247      2.753    558.469    559.039    558.469    558.677    558.469
 18.770    556.471    559.058     -2.587    558.274    558.849    558.274    558.484    558.274
 18.870    560.000    558.868      1.132    558.075    558.657    558.075    558.287    558.075
 18.970    556.000    558.672     -2.672    557.874    558.460    557.874    558.086    557.874
 19.070    563.000    558.474      4.526    557.669    558.259    557.669    557.883    557.669
 19.170    569.000    558.272     10.728    557.461    558.056    557.461    557.677    557.461
 19.270    598.178    558.068     40.109    557.249    557.851    557.249    557.467    557.249
 19.370    537.000    557.862    -20.862    557.035    557.642    557.035    557.255    557.035
 19.470    569.000    557.653     11.347    556.818    557.431    556.818    557.039    556.818
 19.570    574.434    557.441     16.992    556.598    557.218    556.598    556.821    556.598
 19.670    524.038    557.231    -33.193    556.375    557.006    556.375    556.600    556.375
 19.770    522.000    557.019    -35.019    556.149    556.792    556.149    556.376    556.149
 19.870    514.000    556.820    -42.820    555.920    556.591    555.920    556.149    555.920
 19.970    537.517    556.650    -19.133    555.689    556.419    555.689    555.920    555.689
 20.070    531.000    556.432    -25.432    555.455    556.200    555.455    555.687    555.455
 20.170    521.000    556.208    -35.208    555.218    555.973    555.218    555.453    555.218
 20.270    539.000    555.981    -16.981    554.978    555.745    554.978    555.215    554.978
 20.370    618.000    555.756     62.244    554.736    555.517    554.736    554.975    554.736
 20.470    576.601    555.527     21.074    554.491    555.286    554.491    554.733    554.491
 20.570    562.000    555.295      6.705    554.244    555.052    554.244    554.488    554.244
 20.670    600.403    555.061     45.341    553.994    554.816    553.994    554.240    553.994
 20.770    539.354    554.831    -15.477    553.742    554.583    553.742    553.990    553.742
 20.870    580.268    554.640     25.628    553.488    554.390    553.488    553.738    553.488
 20.970    534.191    554.407    -20.217    553.231    554.154    553.231    553.484    553.231
 21.070    583.000    554.169     28.831    552.971    553.913    552.971    553.227    552.971
 21.170    547.000    553.929     -6.929    552.710    553.671    552.710    552.968    552.710
 21.270    558.000    553.688      4.312    552.446    553.427    552.446    552.707    552.446
 21.370    530.000    553.447    -23.447    552.180    553.183    552.180    552.444    552.180
 21.470    525.000    553.205    -28.205    551.912    552.939    551.912    552.179    551.912
 21.570    539.000    552.963    -13.963    551.642    552.693    551.642    551.912    551.642
 21.670    541.000    552.721    -11.721    551.370    552.448    551.370    551.642    551.370
 21.770    523.000    552.479    -29.479    551.095    552.203    551.095    551.371    551.095
 21.870    510.000    552.240    -42.240    550.819    551.961    550.819    551.098    550.819
 21.970    552.000    552.008     -0.008    550.541    551.726    550.541    550.823    550.541
 22.070    511.848    551.770    -39.923    550.260    551.485    550.260    550.546    550.260
 22.170    571.000    551.544     19.456    549.978    551.255    549.978    550.268    549.978
 22.270    560.000    551.311      8.689    549.694    551.018    549.694    549.987    549.694
 22.370    516.000    551.078    -35.078    549.409    550.782    549.409    549.705    549.409
 22.470    533.226    550.849    -17.623    549.121    550.549    549.121    549.422    549.121
 22.570    593.324    550.625     42.699    548.832    550.320    548.832    549.137    548.832
 22.670    540.000    550.413    -10.413    548.541    550.104    548.541    548.850    548.541
 22.770    540.505    550.249     -9.744    548.248    549.936    548.248    548.561    548.248
 22.870    506.698    550.073    -43.375    547.954    549.756    547.954    548.272    547.954
 22.970    538.000    549.887    -11.887    547.658    549.565    547.658    547.980    547.658
 23.070    550.000    549.709      0.291    547.361    549.382    547.361    547.688    547.361
 23.170    563.000    549.546     13.454    547.062    549.215    547.062    547.394    547.062
 23.270    545.000    549.406     -4.406    546.761    549.070    546.761    547.099    546.761
 23.370    535.000    549.307    -14.307    546.459    548.966    546.459    546.802    546.459
 23.470    575.533    549.277     26.256    546.156    548.929    546.156    546.504    546.156
 23.570    541.000    549.258     -8.258    545.851    548.905    545.851    546.206    545.851
 23.670    593.000    549.289     43.711    545.545    548.930    545.545    545.906    545.545
 23.770    569.562    549.405     20.157    545.238    549.040    545.238    545.605    545.238
 23.870    505.022    549.643    -44.621    544.929    549.272    544.929    545.303    544.929
 23.970    549.000    550.073     -1.073    544.619    549.695    544.619    545.000    544.619
 24.070    521.000    550.870    -29.870    544.308    550.485    544.308    544.696    544.308
 24.170    557.000    552.375      4.625    543.996    551.984    543.996    544.391    543.996
 24.270    573.000    555.387     17.613    543.683    554.990    543.683    544.086    543.683
 24.370    598.000    561.464     36.536    543.368    561.063    543.368    543.780    543.368
 24.470    605.785    572.594     33.191    543.052    572.193    543.052    543.473    543.052
 24.570    617.922    589.941     27.981    542.736    589.543    542.736    543.166    542.736
 24.670    624.000    611.337     12.663    542.418    610.946    542.418    542.858    542.418
 24.770    572.000    628.915    -56.915    542.100    628.526    542.100    542.549    542.100
 24.870    640.773    631.890      8.884    541.780    631.493    541.780    542.240    541.780
 24.970    661.489    617.624     43.865    541.459    617.206    541.459    541.931    541.459
 25.070    552.445    595.627    -43.182    541.138    595.181    541.138    541.622    541.138
 25.170    569.000    575.853     -6.853    540.816    575.380    540.816    541.312    540.816
 25.270    575.453    562.178     13.275    540.493    561.682    540.493    541.003    540.493
 25.370    564.503    554.180     10.323    540.169    553.664    540.169    540.693    540.169
 25.470    526.000    549.906    -23.906    539.844    549.371    539.844    540.384    539.844
 25.570    509.994    547.584    -37.589    539.519    547.031    539.519    540.075    539.519
 25.670    571.000    546.170     24.830    539.193    545.599    539.193    539.766    539.193
 25.770    545.000    545.185     -0.185    538.866    544.595    538.866    539.458    538.866
 25.870    528.882    544.432    -15.551    538.539    543.822    538.539    539.151    538.539
 25.970    545.000    543.833      1.167    538.210    543.201    538.210    538.844    538.210
 26.070    517.246    543.343    -26.098    537.882    542.688    537.882    538.538    537.882
 26.170    592.000    542.942     49.058    537.553    542.262    537.553    538.233    537.553
 26.270    590.000    542.615     47.385    537.223    541.908    537.223    537.930    537.223
 26.370    523.747    542.352    -18.605    536.893    541.616    536.893    537.629    536.893
 26.470    540.000    542.151     -2.151    536.562    541.385    536.562    537.329    536.562
 26.570    568.141    542.013     26.129    536.231    541.213    536.231    537.031    536.231
 26.670    568.000    541.941     26.059    535.900    541.104    535.900    536.736    535.900
 26.770    521.000    541.944    -20.944    535.568    541.067    535.568    536.444    535.568
 26.870    593.000    542.033     50.967    535.235    541.113    535.235    536.156    535.235
 26.970    526.000    542.227    -16.227    534.903    541.259    534.903    535.871    534.903
 27.070    598.000    542.553     55.447    534.570    541.532    534.570    535.590    534.570
 27.170    571.000    543.048     27.952    534.237    541.970    534.237    535.315    534.237
 27.270    581.000    543.770     37.230    533.903    542.627    533.903    535.046    533.903
 27.370    575.476    544.807     30.668    533.570    543.593    533.570    534.783    533.570
 27.470    547.000    546.322      0.678    533.236    545.027    533.236    534.529    533.236
 27.570    568.000    548.739     19.261    532.902    547.354    532.902    534.284    532.902
 27.670    530.594    553.452    -22.857    532.567    551.966    532.567    534.050    532.567
 27.770    581.000    564.745     16.255    532.233    563.143    532.233    533.828    532.233
 27.870    599.000    592.581      6.419    531.899    590.841    531.899    533.622    531.899
 27.970    647.000    651.648     -4.648    531.564    649.744    531.564    533.433    531.564
 28.070    768.856    748.935     19.921    531.230    746.839    531.230    533.263    531.230
 28.170    900.123    862.022     38.101    530.895    859.714    530.895    533.117    530.895
 28.270    945.000    931.820     13.180    530.561    929.298    530.561    532.998    530.561
 28.370    903.000    909.277     -6.277    530.226    906.537    530.226    532.909    530.226
 28.470    877.438    821.110     56.328    529.892    818.121    529.892    532.855    529.892
 28.570    691.204    736.977    -45.773    529.557    733.684    529.557    532.840    529.557
 28.670    692.000    705.145    -13.145    529.223    701.490    529.223    532.868    529.223
 28.770    733.000    731.628      1.372    528.889    727.559    528.889    532.941    528.889
 28.870    792.000    787.460      4.540    528.555    782.935    528.555    533.062    528.555
 28.970    778.576    822.974    -44.398    528.221    817.956    528.221    533.229    528.221
 29.070    770.760    801.210    -30.450    527.887    795.668    527.887    533.434    527.887
 29.170    750.085    734.919     15.166    527.554    728.824    527.554    533.664    527.554
 29.270    659.000    661.946     -2.946    527.221    655.286    527.221    533.895    527.221
 29.370    589.000    607.218    -18.218    526.888    600.024    526.888    534.092    526.888
 29.470    609.000    575.251     33.749    526.555    567.599    526.555    534.213    526.555
 29.570    535.400    559.501    -24.101    526.223    551.515    526.223    534.211    526.223
 29.670    565.000    552.165     12.835    525.891    544.010    525.891    534.047    525.891
 29.770    592.000    548.344     43.656    525.559    540.205    525.559    533.699    525.559
 29.870    515.634    545.868    -30.233    525.228    537.925    525.228    533.170    525.228
 29.970    593.000    543.977     49.023    524.897    536.388    524.897    532.486    524.897
 30.070    563.000    542.457     20.543    524.566    535.335    524.566    531.688    524.566
 30.170    529.232    541.296    -12.064    524.236    534.709    524.236    530.821    524.236
 30.270    543.000    540.640      2.360    523.907    534.615    523.907    529.929    523.907
 30.370    568.000    540.930     27.070    523.577    535.461    523.577    529.043    523.577
 30.470    579.185    543.151     36.034    523.249    538.209    523.249    528.185    523.249
 30.570    572.000    548.933     23.067    522.921    544.475    522.921    527.368    522.921
 30.670    516.752    559.939    -43.187    522.593    555.915    522.593    526.597    522.593
 30.770    588.000    576.183     11.817    522.266    572.544    522.266    525.875    522.266
 30.870    572.000    593.796    -21.796    521.940    590.496    521.940    525.198    521.940
 30.970    619.272    604.284     14.988    521.614    601.288    521.614    524.563    521.614
 31.070    623.000    600.319     22.681    521.289    597.599    521.289    523.968    521.289
 31.170    546.602    584.405    -37.804    520.964    581.933    520.964    523.407    520.964
 31.270    565.000    565.320     -0.320    520.640    563.066    520.640    522.876    520.640
 31.370    538.000    549.672    -11.672    520.317    547.606    520.317    522.372    520.317
 31.470    553.251    539.473     13.778    519.994    537.570    519.994    521.892    519.994
 31.570    566.000    533.787     32.213    519.672    532.024    519.672    521.431    519.672
 31.670    569.421    530.846     38.574    519.351    529.206    519.351    520.989    519.351
 31.770    563.723    529.275     34.448    519.031    527.743    519.031    520.561    519.031
 31.870    568.111    528.331     39.780    518.711    526.894    518.711    520.147    518.711
 31.970    612.000    527.700     84.300    518.392    526.347    518.392    519.744    518.392
 32.070    560.971    527.265     33.706    518.074    525.986    518.074    519.352    518.074
 32.170    572.000    526.983     45.017    517.757    525.770    517.757    518.968    517.757
 32.270    509.000    526.838    -17.838    517.441    525.685    517.441    518.592    517.441
 32.370    564.000    526.830     37.170    517.125    525.730    517.125    518.223    517.125
 32.470    557.000    526.966     30.034    516.810    525.915    516.810    517.860    516.810
 32.570    556.000    527.265     28.735    516.496    526.257    516.496    517.503    516.496
 32.670    511.000    527.756    -16.756    516.184    526.787    516.184    517.151    516.184
 32.770    550.000    528.481     21.519    515.872    527.549    515.872    516.803    515.872
 32.870    509.000    529.506    -20.506    515.561    528.605    515.561    516.460    515.561
 32.970    581.000    530.922     50.078    515.250    530.051    515.250    516.120    515.250
 33.070    534.000    532.880      1.120    514.941    532.036    514.941    515.784    514.941
 33.170    530.490    535.656     -5.165    514.633    534.836    514.633    515.451    514.633
 33.270    554.306    539.869     14.437    514.326    539.071    514.326    515.122    514.326
 33.370    557.000    547.035      9.965    514.020    546.257    514.020    514.795    514.020
 33.470    589.974    560.637     29.336    513.715    559.876    513.715    514.471    513.715
 33.570    601.834    587.371     14.463    513.410    586.623    513.410    514.149    513.410
 33.670    594.004    636.958    -42.955    513.107    636.218    513.107    513.830    513.107
 33.770    751.000    718.035     32.965    512.805    717.299    512.805    513.514    512.805
 33.870    786.730    829.122    -42.391    512.505    828.388    512.505    513.200    512.505
 33.970   1004.000    947.282     56.718    512.205    946.557    512.205    512.887    512.205
 34.070   1043.000   1024.228     18.772    511.906   1023.523    511.906    512.577    511.906
 34.170    966.525   1014.987    -48.462    511.608   1014.313    511.608    512.269    511.608
 34.270    876.595    925.846    -49.251    511.312    925.198    511.312    511.964    511.312
 34.370    839.000    805.836     33.164    511.017    805.204    511.017    511.659    511.017
 34.470    710.000    698.865     11.135    510.723    698.240    510.723    511.357    510.723
 34.570    664.494    623.230     41.264    510.430    622.610    510.430    511.057    510.430
 34.670    537.000    577.819    -40.819    510.138    577.202    510.138    510.759    510.138
 34.770    528.000    553.352    -25.352    509.847    552.739    509.847    510.462    509.847
 34.870    548.445    540.558      7.887    509.558    539.950    509.558    510.167    509.558
 34.970    533.000    533.397     -0.397    509.270    532.794    509.270    509.874    509.270
 35.070    557.000    528.828     28.172    508.983    528.229    508.983    509.583    508.983
 35.170    527.000    525.546      1.454    508.698    524.951    508.698    509.293    508.698
 35.270    493.276    523.012    -29.736    508.413    522.420    508.413    509.005    508.413
 35.370    518.983    520.978     -1.994    508.130    520.389    508.130    508.719    508.130
 35.470    531.105    519.304     11.801    507.848    518.719    507.848    508.434    507.848
 35.570    555.000    517.901     37.099    507.568    517.318    507.568    508.151    507.568
 35.670    549.000    516.705     32.295    507.289    516.125    507.289    507.870    507.289
 35.770    480.000    515.672    -35.672    507.011    515.094    507.011    507.590    507.011
 35.870    525.000    514.768     10.232    506.735    514.191    506.735    507.312    506.735
 35.970    472.184    513.969    -41.785    506.459    513.393    506.459    507.035    506.459
 36.070    518.367    513.256      5.111    506.186    512.681    506.186    506.761    506.186
 36.170    538.409    512.616     25.793    505.913    512.042    505.913    506.488    505.913
 36.270    515.042    512.037      3.004    505.642    511.464    505.642    506.216    505.642
 36.370    485.000    511.513    -26.513    505.373    510.940    505.373    505.946    505.373
 36.470    507.393    511.039     -3.646    505.104    510.465    505.104    505.678    505.104
 36.570    475.000    510.611    -35.611    504.837    510.038    504.837    505.411    504.837
 36.670    498.000    510.231    -12.231    504.572    509.657    504.572    505.147    504.572
 36.770    550.000    509.903     40.097    504.308    509.328    504.308    504.883    504.308
 36.870    466.000    509.642    -43.642    504.045    509.067    504.045    504.622    504.045
 36.970    501.000    509.490     -8.490    503.784    508.913    503.784    504.362    503.784
 37.070    512.000    509.543      2.457    503.525    508.965    503.525    504.103    503.525
 37.170    512.000    509.969      2.031    503.267    509.389    503.267    503.847    503.267
 37.270    500.000    511.014    -11.014    503.010    510.433    503.010    503.592    503.010
 37.370    532.494    512.922     19.572    502.755    512.340    502.755    503.338    502.755
 37.470    532.000    515.750     16.250    502.501    515.166    502.501    503.087    502.501
 37.570    492.000    519.110    -27.110    502.249    518.525    502.249    502.837    502.249
 37.670    533.000    521.974     11.026    501.998    521.389    501.998    502.589    501.998
 37.770    510.000    522.944    -12.944    501.749    522.358    501.749    502.342    501.749
 37.870    529.000    521.428      7.572    501.501    520.840    501.501    502.097    501.501
 37.970    524.658    518.322      6.337    501.255    517.733    501.255    501.854    501.255
 38.070    535.781    514.850     20.932    501.010    514.258    501.010    501.613    501.010
 38.170    518.101    511.694      6.407    500.767    511.099    500.767    501.373    500.767
 38.270    512.000    509.144      2.856    500.526    508.543    500.526    501.135    500.526
 38.370    489.000    507.259    -18.259    500.286    506.652    500.286    500.899    500.286
 38.470    482.482    505.941    -23.459    500.047    505.329    500.047    500.664    500.047
 38.570    486.110    505.034    -18.924    499.811    504.415    499.811    500.432    499.811
 38.670    463.603    504.393    -40.790    499.575    503.770    499.575    500.201    499.575
 38.770    471.000    503.916    -32.916    499.342    503.288    499.342    499.971    499.342
 38.870    469.136    503.534    -34.397    499.110    502.900    499.110    499.744    499.110
 38.970    473.000    503.206    -30.206    498.879    502.568    498.879    499.518    498.879
 39.070    502.165    502.913     -0.748    498.650    502.270    498.650    499.294    498.650
 39.170    500.000    502.643     -2.643    498.423    501.994    498.423    499.072    498.423
 39.270    483.511    502.391    -18.880    498.198    501.737    498.198    498.852    498.198
 39.370    509.000    502.153      6.847    497.974    501.494    497.974    498.634    497.974
 39.470    520.915    501.928     18.986    497.751    501.263    497.751    498.417    497.751
 39.570    536.818    501.715     35.103    497.531    501.044    497.531    498.202    497.531
 39.670    507.000    501.513      5.487    497.312    500.835    497.312    497.990    497.312
 39.770    475.000    501.320    -26.320    497.094    500.637    497.094    497.778    497.094
 39.870    497.735    501.138     -3.403    496.879    500.448    496.879    497.569    496.879
 39.970    491.118    500.966     -9.848    496.664    500.269    496.664    497.362    496.664
 40.070    526.606    500.804     25.802    496.452    500.101    496.452    497.157    496.452
 40.170    478.270    500.654    -22.384    496.241    499.942    496.241    496.953    496.241
 40.270    460.000    500.514    -40.514    496.032    499.796    496.032    496.751    496.032
 40.370    458.359    500.387    -42.028    495.825    499.661    495.825    496.552    495.825
 40.470    475.000    500.273    -25.273    495.619    499.539    495.619    496.354    495.619
 40.570    508.000    500.175      7.825    495.415    499.433    495.415    496.158    495.415
 40.670    527.936    500.094     27.842    495.213    499.343    495.213    495.964    495.213
 40.770    499.000    500.032     -1.032    495.012    499.273    495.012    495.772    495.012
 40.870    521.022    499.993     21.029    494.813    499.225    494.813    495.583    494.813
 40.970    463.016    499.981    -36.965    494.616    499.204    494.616    495.395    494.616
 41.070    507.000    500.002      6.998    494.421    499.215    494.421    495.209    494.421
 41.170    480.000    500.062    -20.062    494.227    499.265    494.227    495.025    494.227
 41.270    491.000    500.171     -9.171    494.035    499.364    494.035    494.843    494.035
 41.370    518.532    500.341     18.191    493.844    499.524    493.844    494.663    493.844
 41.470    502.108    500.591      1.517    493.656    499.763    493.656    494.485    493.656
 41.570    518.461    500.948     17.513    493.469    500.109    493.469    494.310    493.469
 41.670    478.141    501.462    -23.320    493.284    500.611    493.284    494.136    493.284
 41.770    501.000    502.232     -1.232    493.100    501.371    493.100    493.965    493.100
 41.870    544.000    503.481     40.519    492.918    502.607    492.918    493.796    492.918
 41.970    540.116    505.671     34.445    492.738    504.786    492.738    493.628    492.738
 42.070    527.423    509.668     17.755    492.560    508.771    492.560    493.463    492.560
 42.170    540.449    516.817     23.632    492.384    515.910    492.384    493.301    492.384
 42.270    512.000    528.712    -16.712    492.209    527.796    492.209    493.140    492.209
 42.370    537.045    546.458     -9.413    492.036    545.537    492.036    492.982    492.036
 42.470    582.480    569.461     13.018    491.864    568.537    491.864    492.826    491.864
 42.570    572.000    594.094    -22.094    491.695    593.168    491.695    492.672    491.695
 42.670    603.672    613.079     -9.407    491.527    612.150    491.527    492.521    491.527
 42.770    612.000    617.960     -5.960    491.361    617.020    491.361    492.372    491.361
 42.870    640.245    605.907     34.338    491.197    604.944    491.197    492.225    491.197
 42.970    578.000    583.014     -5.014    491.034    582.020    491.034    492.081    491.034
 43.070    539.000    558.080    -19.080    490.873    557.053    490.873    491.939    490.873
 43.170    560.000    536.887     23.113    490.714    535.828    490.714    491.800    490.714
 43.270    529.050    521.563      7.487    490.557    520.473    490.557    491.663    490.557
 43.370    481.883    511.767    -29.884    490.402    510.649    490.402    491.529    490.402
 43.470    515.000    506.031      8.969    490.248    504.887    490.248    491.398    490.248
 43.570    467.579    502.797    -35.218    490.096    501.628    490.096    491.269    490.096
 43.670    518.000    500.921     17.079    489.945    499.727    489.945    491.143    489.945
 43.770    541.000    499.734     41.266    489.797    498.514    489.797    491.020    489.797
 43.870    474.338    498.904    -24.566    489.650    497.657    489.650    490.900    489.650
 43.970    513.000    498.276     14.724    489.505    497.001    489.505    490.782    489.505
 44.070    490.706    497.781     -7.075    489.362    496.477    489.362    490.668    489.362
 44.170    553.000    497.382     55.618    489.220    496.047    489.220    490.557    489.220
 44.270    503.401    497.057      6.344    489.081    495.690    489.081    490.449    489.081
 44.370    492.000    496.791     -4.791    488.943    495.391    488.943    490.344    488.943
 44.470    483.000    496.574    -13.574    488.807    495.139    488.807    490.243    488.807
 44.570    530.681    496.397     34.283    488.672    494.926    488.672    490.145    488.672
 44.670    472.000    496.256    -24.256    488.539    494.746    488.539    490.051    488.539
 44.770    491.000    496.146     -5.146    488.408    494.595    488.408    489.960    488.408
 44.870    503.000    496.064      6.936    488.279    494.470    488.279    489.874    488.279
 44.970    481.000    496.007    -15.007    488.152    494.368    488.152    489.791    488.152
 45.070    534.622    495.974     38.648    488.026    494.288    488.026    489.713    488.026
 45.170    488.000    495.964     -7.964    487.902    494.227    487.902    489.639    487.902
 45.270    468.000    495.977    -27.977    487.780    494.187    487.780    489.571    487.780
 45.370    500.000    496.012      3.988    487.660    494.165    487.660    489.507    487.660
 45.470    507.000    496.070     10.930    487.541    494.163    487.541    489.448    487.541
 45.570    500.000    496.151      3.849    487.424    494.181    487.424    489.395    487.424
 45.670    520.000    496.258     23.742    487.309    494.219    487.309    489.347    487.309
 45.770    507.000    496.390     10.610    487.195    494.280    487.195    489.306    487.195
 45.870    471.000    496.551    -25.551    487.083    494.363    487.083    489.272    487.083
 45.970    541.000    496.743     44.257    486.973    494.472    486.973    489.245    486.973
 46.070    473.710    496.970    -23.260    486.865    494.610    486.865    489.225    486.865
 46.170    504.000    497.235      6.765    486.759    494.780    486.759    489.214    486.759
 46.270    503.128    497.544      5.584    486.654    494.986    486.654    489.212    486.654
 46.370    471.000    497.904    -26.904    486.551    495.235    486.551    489.219    486.551
 46.470    483.598    498.324    -14.726    486.449    495.535    486.449    489.237    486.449
 46.570    481.000    498.815    -17.815    486.350    495.897    486.350    489.267    486.350
 46.670    495.845    499.396     -3.551    486.252    496.337    486.252    489.310    486.252
 46.770    525.000    500.096     24.904    486.156    496.883    486.156    489.368    486.156
 46.870    523.000    500.972     22.028    486.061    497.591    486.061    489.441    486.061
 46.970    518.758    502.137     16.621    485.968    498.570    485.968    489.533    485.968
 47.070    541.334    503.815     37.519    485.877    500.045    485.877    489.645    485.877
 47.170    496.000    506.413    -10.413    485.788    502.416    485.788    489.780    485.788
 47.270    504.000    510.563     -6.563    485.700    506.315    485.700    489.941    485.700
 47.370    508.000    517.070     -9.070    485.614    512.539    485.614    490.133    485.614
 47.470    523.000    526.666     -3.666    485.530    521.818    485.530    490.360    485.530
 47.570    556.000    539.560     16.440    485.447    534.354    485.447    490.627    485.447
 47.670    551.000    554.869     -3.869    485.366    549.259    485.366    490.940    485.366
 47.770    542.349    570.118    -27.769    485.287    564.052    485.287    491.307    485.287
 47.870    602.121    581.263     20.858    485.210    574.684    485.210    491.737    485.210
 47.970    554.461    584.329    -29.868    485.134    577.174    485.134    492.239    485.134
 48.070    634.000    578.480     55.520    485.060    570.672    485.060    492.823    485.060
 48.170    613.000    566.921     46.079    484.987    558.371    484.987    493.502    484.987
 48.270    537.000    554.108    -17.108    484.916    544.709    484.916    494.289    484.916
 48.370    562.000    543.225     18.775    484.847    532.858    484.847    495.197    484.847
 48.470    504.000    535.746    -31.746    484.779    524.276    484.779    496.240    484.779
 48.570    528.000    531.853     -3.853    484.713    519.132    484.713    497.429    484.713
 48.670    496.000    531.009    -35.009    484.649    516.881    484.649    498.774    484.649
 48.770    522.000    532.496    -10.496    484.587    516.800    484.587    500.281    484.587
 48.870    525.463    535.709    -10.246    484.525    518.291    484.525    501.944    484.525
 48.970    523.994    540.312    -16.318    484.466    521.033    484.466    503.745    484.466
 49.070    525.000    546.270    -21.270    484.408    525.033    484.408    505.646    484.408
 49.170    530.000    553.973    -23.973    484.352    530.745    484.352    507.580    484.352
 49.270    524.000    564.687    -40.687    484.298    539.536    484.298    509.447    484.298
 49.370    601.484    581.706     19.778    484.245    554.830    484.245    511.113    484.245
 49.470    573.748    612.487    -38.739    484.193    584.237    484.193    512.427    484.193
 49.570    690.731    671.351     19.380    484.144    642.220    484.144    513.239    484.144
 49.670    833.000    780.667     52.333    484.096    751.253    484.096    513.445    484.096
 49.770    980.000    966.638     13.362    484.049    937.576    484.049    513.014    484.049
 49.870   1278.000   1246.469     31.531    484.004   1218.352    484.004    511.999    484.004
 49.970   1600.732   1609.053     -8.321    483.961   1582.371    483.961    510.522    483.961
 50.070   1924.000   1998.548    -74.548    483.919   1973.657    483.919    508.734    483.919
 50.170   2372.000   2313.161     58.839    483.879   2290.270    483.879    506.787    483.879
 50.270   2375.845   2435.811    -59.966    483.840   2414.973    483.840    504.805    483.840
 50.370   2300.000   2310.309    -10.309    483.803   2291.438    483.803    502.878    483.803
 50.470   1884.000   1994.217   -110.217    483.767   1977.145    483.767    501.066    483.767
 50.570   1645.000   1605.566     39.434    483.733   1590.103    483.733    499.399    483.733
 50.670   1196.000   1246.675    -50.675    483.700   1232.641    483.700    497.892    483.700
 50.770    942.000    973.525    -31.525    483.669    960.761    483.669    496.545    483.669
 50.870    796.000    796.804     -0.804    483.640    785.167    483.640    495.354    483.640
 50.970    709.000    698.046     10.954    483.612    687.408    483.612    494.306    483.612
 51.070    665.000    648.744     16.256    483.585    638.986    483.585    493.390    483.585
 51.170    657.669    623.592     34.077    483.560    614.603    483.560    492.592    483.560
 51.270    616.000    606.387      9.613    483.537    598.063    483.537    491.898    483.537
 51.370    600.000    590.406      9.594    483.515    582.656    483.515    491.297    483.515
 51.470    535.033    574.874    -39.841    483.494    567.618    483.494    490.776    483.494
 51.570    580.000    560.946     19.054    483.475    554.115    483.475    490.326    483.475
 51.670    556.397    549.661      6.736    483.458    543.196    483.458    489.937    483.458
 51.770    585.000    541.383     43.617    483.441    535.236    483.441    489.600    483.441
 51.870    539.393    535.904      3.489    483.427    530.029    483.427    489.310    483.427
 51.970    541.000    532.712      8.288    483.413    527.073    483.413    489.059    483.413
 52.070    514.000    531.262    -17.262    483.402    525.825    483.402    488.844    483.402
 52.170    558.000    531.150     26.850    483.391    525.887    483.391    488.659    483.391
 52.270    545.000    532.190     12.810    483.382    527.075    483.382    488.502    483.382
 52.370    579.000    534.463     44.537    483.375    529.474    483.375    488.369    483.375
 52.470    582.000    538.421     43.579    483.369    533.537    483.369    488.257    483.369
 52.570    562.499    545.116     17.383    483.364    540.319    483.364    488.165    483.364
 52.670    573.000    556.577     16.423    483.360    551.851    483.360    488.092    483.360
 52.770    589.000    576.212     12.788    483.358    571.540    483.358    488.034    483.358
 52.870    575.038    608.925    -33.887    483.358    604.295    483.358    487.993    483.358
 52.970    617.620    660.479    -42.859    483.359    655.879    483.359    487.965    483.359
 53.070    749.000    735.696     13.304    483.361    731.114    483.361    487.951    483.361
 53.170    870.000    835.575     34.425    483.364    831.002    483.364    487.950    483.364
 53.270    991.000    954.001     36.999    483.369    949.428    483.369    487.962    483.369
 53.370   1112.000   1074.850     37.150    483.375   1070.269    483.375    487.986    483.375
 53.470   1177.000   1171.013      5.987    483.382   1166.417    483.382    488.022    483.382
 53.570   1243.000   1211.046     31.954    483.391   1206.423    483.391    488.069    483.391
 53.670   1210.630   1178.826     31.804    483.401   1174.163    483.401    488.128    483.401
 53.770   1043.000   1087.951    -44.951    483.413   1083.231    483.413    488.198    483.413
 53.870    940.000    969.198    -29.198    483.425    964.403    483.425    488.280    483.425
 53.970    844.000    850.488     -6.488    483.439    845.604    483.439    488.373    483.439
 54.070    732.000    749.092    -17.092    483.454    744.105    483.454    488.479    483.454
 54.170    621.000    672.069    -51.069    483.471    666.971    483.471    488.597    483.471
 54.270    574.543    619.033    -44.490    483.489    613.813    483.489    488.727    483.489
 54.370    582.000    585.436     -3.436    483.508    580.086    483.508    488.871    483.508
 54.470    584.210    565.533     18.677    483.528    560.042    483.528    489.029    483.528
 54.570    563.000    554.296      8.704    483.549    548.652    483.549    489.200    483.549
 54.670    543.000    548.161     -5.161    483.572    542.352    483.572    489.387    483.572
 54.770    513.391    544.966    -31.576    483.596    538.978    483.596    489.590    483.596
 54.870    575.000    543.549     31.451    483.621    537.366    483.621    489.810    483.621
 54.970    548.000    543.347      4.653    483.647    536.952    483.647    490.048    483.647
 55.070    592.000    544.113     47.887    483.675    537.488    483.675    490.305    483.675
 55.170    502.125    545.764    -43.639    483.703    538.889    483.703    490.583    483.703
 55.270    509.445    548.307    -38.862    483.733    541.161    483.733    490.884    483.733
 55.370    549.000    551.821     -2.821    483.764    544.380    483.764    491.210    483.764
 55.470    591.000    556.475     34.525    483.796    548.715    483.796    491.562    483.796
 55.570    539.414    562.602    -23.188    483.830    554.494    483.830    491.944    483.830
 55.670    592.000    570.863     21.137    483.864    562.375    483.864    492.357    483.864
 55.770    617.772    582.608     35.164    483.899    573.705    483.899    492.807    483.899
 55.870    606.000    600.499      5.501    483.936    591.142    483.936    493.296    483.936
 55.970    657.000    629.451     27.549    483.974    619.595    483.974    493.829    483.974
 56.070    684.000    677.680      6.320    484.013    667.275    484.013    494.412    484.013
 56.170    720.407    757.254    -36.846    484.052    746.244    484.052    495.051    484.052
 56.270    817.000    883.123    -66.123    484.093    871.444    484.093    495.754    484.093
 56.370    984.000   1069.602    -85.602    484.135   1057.186    484.135    496.529    484.135
 56.470   1285.000   1324.056    -39.056    484.178   1310.830    484.178    497.388    484.178
 56.570   1614.000   1639.022    -25.022    484.222   1624.908    484.222    498.343    484.222
 56.670   2051.741   1985.108     66.633    484.268   1970.020    484.268    499.409    484.268
 56.770   2235.063   2307.466    -72.403    484.314   2291.303    484.314    500.603    484.314
 56.870   2606.645   2531.508     75.137    484.361   2514.141    484.361    501.946    484.361
 56.970   2488.000   2588.746   -100.746    484.409   2569.997    484.409    503.460    484.409
 57.070   2453.000   2459.066     -6.066    484.458   2438.702    484.458    505.171    484.458
 57.170   2222.353   2187.340     35.013    484.508   2165.087    484.508    507.109    484.508
 57.270   1865.370   1850.438     14.933    484.559   1825.999    484.559    509.306    484.559
 57.370   1538.877   1516.945     21.932    484.611   1490.008    484.611    511.798    484.611
 57.470   1170.211   1230.960    -60.749    484.664   1201.189    484.664    514.622    484.664
 57.570   1032.799   1011.896     20.903    484.718    978.928    484.718    517.817    484.718
 57.670    855.000    860.115     -5.115    484.773    823.553    484.773    521.422    484.773
 57.770    750.474    764.781    -14.307    484.829    724.190    484.829    525.476    484.829
 57.870    775.000    711.521     63.479    484.886    666.431    484.886    530.011    484.886
 57.970    667.000    687.822    -20.822    484.943    637.736    484.943    535.052    484.943
 58.070    706.000    685.500     20.500    485.002    629.909    485.002    540.607    485.002
 58.170    676.000    700.766    -24.766    485.061    639.175    485.061    546.659    485.061
 58.270    716.000    732.877    -16.877    485.121    664.844    485.121    553.154    485.121
 58.370    809.625    782.240     27.385    485.182    707.430    485.182    559.983    485.182
 58.470    845.000    848.506     -3.506    485.244    766.768    485.244    566.967    485.244
 58.570    885.000    928.979    -43.979    485.307    840.429    485.307    573.839    485.307
 58.670   1075.000   1017.602     57.398    485.370    922.710    485.370    580.245    485.370
 58.770   1076.000   1105.421    -29.421    485.435   1005.086    485.435    585.759    485.435
 58.870   1166.000   1183.337    -17.337    485.500   1078.901    485.500    589.937    485.500
 58.970   1237.000   1244.354     -7.354    485.566   1137.546    485.566    592.389    485.566
 59.070   1318.000   1282.259     35.741    485.633   1175.052    485.633    592.869    485.633
 59.170   1343.612   1291.162     52.450    485.700   1185.573    485.700    591.331    485.700
 59.270   1216.736   1270.530    -53.794    485.768   1168.398    485.768    587.948    485.768
 59.370   1256.909   1229.433     27.476    485.837   1132.252    485.837    583.063    485.837
 59.470   1213.000   1182.538     30.462    485.907   1091.362    485.907    577.108    485.907
 59.570   1175.917   1143.813     32.104    485.978   1059.261    485.978    570.525    485.978
 59.670   1197.000   1124.877     72.123    486.049   1047.180    486.049    563.703    486.049
 59.770   1140.337   1135.528      4.809    486.121   1064.619    486.121    556.943    486.121
 59.870   1260.000   1181.693     78.307    486.193   1117.294    486.193    550.458    486.193
 59.970   1282.000   1261.085     20.915    486.266   1202.791    486.266    544.384    486.266
 60.070   1416.946   1360.256     56.690    486.340   1307.593    486.340    538.794    486.340
 60.170   1457.000   1454.840      2.160    486.415   1407.316    486.415    533.718    486.415
 60.270   1527.356   1514.029     13.327    486.490   1471.155    486.490    529.157    486.490
 60.370   1475.792   1511.486    -35.694    486.566   1472.787    486.566    525.093    486.566
 60.470   1464.000   1439.658     24.342    486.642   1404.680    486.642    521.494    486.642
 60.570   1279.786   1314.231    -34.445    486.720   1282.541    486.720    518.326    486.720
 60.670   1119.000   1163.085    -44.085    486.797   1134.284    486.797    515.549    486.797
 60.770   1023.000   1012.732     10.268    486.875    986.457    486.875    513.125    486.875
 60.870    830.450    881.729    -51.279    486.954    857.656    486.954    511.015    486.954
 60.970    734.547    779.597    -45.050    487.034    757.441    487.034    509.183    487.034
 61.070    701.000    708.415     -7.415    487.114    687.928    487.114    507.595    487.114
 61.170    644.038    665.766    -21.729    487.194    646.732    487.194    506.219    487.194
 61.270    694.696    647.982     46.714    487.275    630.214    487.275    505.027    487.275
 61.370    691.000    652.649     38.351    487.357    635.988    487.357    503.991    487.357
 61.470    677.000    679.716     -2.716    487.439    664.026    487.439    503.089    487.439
 61.570    721.789    731.044     -9.255    487.521    716.212    487.521    502.296    487.521
 61.670    845.000    808.645     36.355    487.605    794.578    487.605    501.593    487.605
 61.770    894.847    912.113    -17.266    487.688    898.740    487.688    500.961    487.688
 61.870   1073.000   1036.007     36.993    487.772   1023.276    487.772    500.385    487.772
 61.970   1162.143   1167.957     -5.814    487.856   1155.834    487.856    499.853    487.856
 62.070   1300.000   1288.192     11.808    487.941   1276.658    487.941    499.354    487.941
 62.170   1356.000   1371.808    -15.808    488.027   1360.849    488.027    498.884    488.027
 62.270   1336.000   1396.372    -60.372    488.112   1385.974    488.112    498.440    488.112
 62.370   1300.000   1353.900    -53.900    488.198   1344.041    488.198    498.021    488.198
 62.470   1207.000   1256.470    -49.470    488.285   1247.117    488.285    497.628    488.285
 62.570   1107.000   1128.185    -21.185    488.372   1119.304    488.372    497.261    488.372
 62.670   1020.558    993.245     27.313    488.459    984.798    488.459    496.922    488.459
 62.770    810.000    869.611    -59.611    488.547    861.565    488.547    496.611    488.547
 62.870    752.000    767.580    -15.580    488.635    759.904    488.635    496.326    488.635
 62.970    647.000    690.542    -43.542    488.723    683.209    488.723    496.068    488.723
 63.070    660.779    636.835     23.945    488.812    629.818    488.812    495.836    488.812
 63.170    597.000    602.050     -5.050    488.901    595.327    488.901    495.627    488.901
 63.270    564.000    581.118    -17.118    488.990    574.667    488.990    495.441    488.990
 63.370    569.000    569.700     -0.700    489.079    563.502    489.079    495.275    489.079
 63.470    573.000    564.846      8.154    489.169    558.882    489.169    495.129    489.169
 63.570    547.975    565.108    -17.133    489.259    559.359    489.259    495.002    489.259
 63.670    600.000    570.385     29.615    489.350    564.834    489.350    494.891    489.350
 63.770    562.000    581.657    -19.657    489.440    576.287    489.440    494.795    489.440
 63.870    648.000    600.651     47.349    489.531    595.446    489.531    494.713    489.531
 63.970    670.377    629.364     41.014    489.622    624.308    489.622    494.645    489.622
 64.070    663.000    669.407     -6.407    489.713    664.487    489.713    494.588    489.713
 64.170    735.000    721.193     13.807    489.805    716.395    489.805    494.543    489.805
 64.270    821.000    783.076     37.924    489.896    778.391    489.896    494.507    489.896
 64.370    902.606    850.624     51.982    489.988    846.044    489.988    494.482    489.988
 64.470    922.000    916.257      5.743    490.080    911.778    490.080    494.465    490.080
 64.570    933.000    969.896    -36.896    490.172    965.519    490.172    494.456    490.172
 64.670   1012.000   1001.570     10.430    490.264    997.295    490.264    494.455    490.264
 64.770    956.943   1005.530    -48.587    490.356   1001.357    490.356    494.460    490.356
 64.870   1005.000    982.697     22.303    490.449    978.625    490.449    494.473    490.449
 64.970    944.000    939.464      4.536    490.541    935.489    490.541    494.492    490.541
 65.070    888.000    884.782      3.218    490.634    880.896    490.634    494.516    490.634
 65.170    856.000    827.313     28.687    490.727    823.507    490.727    494.546    490.727
 65.270    802.000    773.353     28.647    490.819    769.619    490.819    494.581    490.819
 65.370    711.067    726.110    -15.043    490.912    722.435    490.912    494.622    490.912
 65.470    654.000    686.308    -32.308    491.005    682.684    491.005    494.667    491.005
 65.570    589.000    653.472    -64.472    491.098    649.890    491.098    494.716    491.098
 65.670    592.172    626.907    -34.735    491.191    623.360    491.191    494.770    491.191
 65.770    594.930    605.949    -11.019    491.284    602.430    491.284    494.828    491.284
 65.870    573.000    589.897    -16.897    491.377    586.402    491.377    494.891    491.377
 65.970    533.593    578.032    -44.439    491.469    574.559    491.469    494.957    491.469
 66.070    526.000    569.687    -43.687    491.562    566.233    491.562    495.027    491.562
 66.170    551.000    564.286    -13.286    491.655    560.847    491.655    495.101    491.655
 66.270    582.000    561.351     20.649    491.748    557.926    491.748    495.179    491.748
 66.370    555.696    560.509     -4.813    491.840    557.094    491.840    495.260    491.840
 66.470    511.000    561.513    -50.513    491.933    558.106    491.933    495.345    491.933
 66.570    590.000    564.310     25.690    492.026    560.908    492.026    495.434    492.026
 66.670    572.000    569.142      2.858    492.118    565.741    492.118    495.526    492.118
 66.770    526.000    576.711    -50.711    492.210    573.307    492.210    495.622    492.210
 66.870    557.314    588.434    -31.120    492.302    585.024    492.302    495.722    492.302
 66.970    575.681    606.781    -31.101    492.394    603.361    492.394    495.825    492.394
 67.070    627.820    635.647     -7.827    492.486    632.212    492.486    495.932    492.486
 67.170    695.752    680.596     15.156    492.578    677.144    492.578    496.043    492.578
 67.270    708.000    748.746    -40.746    492.670    745.273    492.670    496.158    492.670
 67.370    844.143    848.000     -3.857    492.761    844.504    492.761    496.277    492.761
 67.470   1032.435    985.433     47.001    492.852    981.917    492.852    496.401    492.852
 67.570   1167.372   1164.902      2.469    492.943   1161.366    492.943    496.529    492.943
 67.670   1320.782   1384.260    -63.478    493.034   1380.710    493.034    496.661    493.034
 67.770   1671.000   1632.838     38.162    493.124   1629.280    493.124    496.798    493.124
 67.870   1900.000   1889.771     10.229    493.215   1886.213    493.215    496.940    493.215
 67.970   2185.000   2123.782     61.218    493.305   2120.229    493.305    497.087    493.305
 68.070   2312.792   2296.167     16.624    493.394   2292.620    493.394    497.240    493.394
 68.170   2447.000   2370.532     76.468    493.484   2366.981    493.484    497.399    493.484
 68.270   2241.601   2328.836    -87.235    493.573   2325.258    493.573    497.564    493.573
 68.370   2236.000   2181.727     54.273    493.662   2178.085    493.662    497.735    493.662
 68.470   2058.000   1962.011     95.989    493.751   1958.265    493.751    497.914    493.751
 68.570   1723.000   1708.834     14.166    493.839   1704.950    493.839    498.101    493.839
 68.670   1552.000   1455.995     96.005    493.927   1451.948    493.927    498.296    493.927
 68.770   1206.000   1227.387    -21.387    494.014   1223.163    494.014    498.499    494.014
 68.870   1038.000   1036.488      1.512    494.102   1032.078    494.102    498.713    494.102
 68.970    941.716    887.667     54.049    494.189    883.067    494.189    498.937    494.189
 69.070    763.000    778.522    -15.522    494.275    773.731    494.275    499.172    494.275
 69.170    751.000    702.652     48.348    494.361    697.667    494.361    499.420    494.361
 69.270    641.261    652.209    -10.947    494.447    647.026    494.447    499.682    494.447
 69.370    614.859    619.747     -4.888    494.532    614.357    494.532    499.958    494.532
 69.470    632.000    599.214     32.786    494.617    593.605    494.617    500.252    494.617
 69.570    611.549    586.220     25.329    494.701    580.377    494.701    500.564    494.701
 69.670    605.000    577.868     27.132    494.785    571.773    494.785    500.897    494.785
 69.770    567.000    572.386     -5.386    494.869    566.015    494.869    501.253    494.869
 69.870    561.000    568.759     -7.759    494.952    562.087    494.952    501.635    494.952
 69.970    554.000    566.438    -12.438    495.035    559.435    495.035    502.047    495.035
 70.070    610.322    565.143     45.179    495.117    557.774    495.117    502.494    495.117
 70.170    540.000    564.752    -24.752    495.198    556.976    495.198    502.980    495.198
 70.270    567.000    565.247      1.753    495.279    557.019    495.279    503.513    495.279
 70.370    566.160    566.713     -0.553    495.360    557.978    495.360    504.099    495.360
 70.470    576.000    569.367      6.633    495.440    560.062    495.440    504.748    495.440
 70.570    575.305    573.634      1.672    495.519    563.683    495.519    505.472    495.519
 70.670    558.000    580.268    -22.268    495.598    569.581    495.598    506.285    495.598
 70.770    536.000    590.518    -54.518    495.677    578.990    495.677    507.202    495.677
 70.870    592.000    606.319    -14.319    495.755    593.824    495.755    508.244    495.755
 70.970    603.000    630.454    -27.454    495.832    616.843    495.832    509.431    495.832
 71.070    664.000    666.599     -2.599    495.908    651.696    495.908    510.790    495.908
 71.170    712.149    719.125     -6.976    495.984    702.728    495.984    512.350    495.984
 71.270    781.000    792.550    -11.550    496.060    774.423    496.060    514.142    496.060
 71.370    931.231    890.591     40.640    496.134    870.464    496.134    516.200    496.134
 71.470    968.000   1014.886    -46.886    496.209    992.457    496.209    518.559    496.209
 71.570   1208.000   1163.610     44.390    496.282   1138.542    496.282    521.253    496.282
 71.670   1326.487   1330.253     -3.766    496.355   1302.181    496.355    524.318    496.355
 71.770   1449.000   1502.825    -53.825    496.427   1471.356    496.427    527.780    496.427
 71.870   1616.000   1663.760    -47.760    496.498   1628.483    496.498    531.663    496.498
 71.970   1750.000   1791.289    -41.289    496.569   1751.786    496.569    535.975    496.569
 72.070   1867.493   1863.769      3.724    496.639   1819.631    496.639    540.709    496.639
 72.170   1854.000   1867.208    -13.208    496.708   1818.053    496.708    545.832    496.708
 72.270   1791.000   1801.855    -10.855    496.777   1747.363    496.777    551.271    496.777
 72.370   1614.181   1682.008    -67.826    496.845   1621.973    496.845    556.909    496.845
 72.470   1616.000   1529.230     86.770    496.912   1463.627    496.912    562.563    496.912
 72.570   1321.024   1364.909    -43.885    496.978   1293.965    496.978    567.979    496.978
 72.670   1181.000   1206.076    -25.076    497.044   1130.345    497.044    572.833    497.044
 72.770   1098.652   1064.134     34.518    497.109    984.537    497.109    576.760    497.109
 72.870    938.000    945.044     -7.044    497.173    862.861    497.173    579.403    497.173
 72.970    846.000    850.224     -4.224    497.236    767.006    497.236    580.494    497.236
 73.070    765.000    777.857    -12.857    497.299    695.272    497.299    579.916    497.299
 73.170    680.000    724.307    -44.307    497.360    643.950    497.360    577.743    497.360
 73.270    726.000    685.352     40.648    497.421    608.583    497.421    574.212    497.421
 73.370    692.000    657.054     34.946    497.481    584.889    497.481    569.665    497.481
 73.470    628.000    636.214     -8.214    497.540    569.299    497.540    564.471    497.540
 73.570    570.000    620.495    -50.495    497.598    559.142    497.598    558.966    497.598
 73.670    582.000    608.345    -26.345    497.656    552.594    497.656    553.422    497.656
 73.770    620.000    598.819     21.181    497.712    548.509    497.712    548.037    497.712
 73.870    539.000    591.367    -52.367    497.768    546.206    497.768    542.946    497.768
 73.970    603.573    585.673     17.901    497.823    545.287    497.823    538.229    497.823
 74.070    586.000    581.520      4.480    497.876    545.494    497.876    533.927    497.876
 74.170    617.000    578.699     38.301    497.929    546.602    497.929    530.055    497.929
 74.270    585.000    576.943      8.057    497.981    548.353    497.981    526.605    497.981
 74.370    654.000    575.902     78.098    498.032    550.414    498.032    523.560    498.032
 74.470    652.000    575.132     76.868    498.083    552.367    498.083    520.891    498.083
 74.570    591.000    574.128     16.872    498.132    553.741    498.132    518.567    498.132
 74.670    586.122    572.418     13.704    498.180    554.097    498.180    516.551    498.180
 74.770    594.000    569.718     24.282    498.227    553.186    498.227    514.809    498.227
 74.870    596.411    566.049     30.362    498.274    551.063    498.274    513.307    498.274
 74.970    627.000    561.720     65.280    498.319    548.070    498.319    512.012    498.319
 75.070    613.000    557.210     55.790    498.363    544.715    498.363    510.895    498.363
 75.170    552.175    553.039     -0.864    498.406    541.546    498.406    509.930    498.406
 75.270    594.909    549.715     45.194    498.449    539.094    498.449    509.093    498.449
 75.370    572.000    547.726     24.274    498.490    537.868    498.490    508.365    498.490
 75.470    595.000    547.554     47.446    498.530    538.366    498.530    507.728    498.530
 75.570    566.618    549.679     16.939    498.569    541.084    498.569    507.168    498.569
 75.670    537.000    554.570    -17.570    498.608    546.502    498.608    506.673    498.608
 75.770    576.447    562.638     13.809    498.645    555.039    498.645    506.234    498.645
 75.870    588.000    574.156     13.844    498.681    566.979    498.681    505.841    498.681
 75.970    576.000    589.151    -13.151    498.716    582.354    498.716    505.489    498.716
 76.070    651.011    607.277     43.734    498.750    600.825    498.750    505.172    498.750
 76.170    584.000    627.712    -43.712    498.782    621.574    498.782    504.884    498.782
 76.270    644.000    649.085     -5.085    498.814    643.233    498.814    504.623    498.814
 76.370    701.000    669.458     31.542    498.845    663.871    498.845    504.385    498.845
 76.470    684.000    686.422     -2.422    498.874    681.080    498.874    504.167    498.874
 76.570    722.000    697.427     24.573    498.903    692.313    498.903    503.967    498.903
 76.670    710.647    700.453     10.195    498.930    695.553    498.930    503.783    498.930
 76.770    688.939    694.815     -5.876    498.956    690.116    498.956    503.614    498.956
 76.870    689.838    681.494      8.344    498.981    676.983    498.981    503.457    498.981
 76.970    684.032    662.673     21.359    499.005    658.337    499.005    503.312    499.005
 77.070    663.000    640.907     22.093    499.027    636.734    499.027    503.178    499.027
 77.170    633.000    618.503     14.497    499.049    614.482    499.049    503.053    499.049
 77.270    627.378    597.246     30.131    499.069    593.367    499.069    502.937    499.069
 77.370    562.000    578.338    -16.338    499.088    574.590    499.088    502.828    499.088
 77.470    540.036    562.422    -22.386    499.106    558.796    499.106    502.727    499.106
 77.570    514.746    549.667    -34.920    499.123    546.154    499.123    502.631    499.123
 77.670    519.000    539.886    -20.886    499.138    536.480    499.138    502.542    499.138
 77.770    544.000    532.672     11.328    499.153    529.365    499.153    502.458    499.153
 77.870    558.763    527.520     31.244    499.166    524.305    499.166    502.379    499.166
 77.970    532.000    523.929      8.071    499.178    520.802    499.178    502.305    499.178
 78.070    552.000    521.462     30.538    499.188    518.415    499.188    502.234    499.188
 78.170    538.000    519.769     18.231    499.198    516.799    499.198    502.168    499.198
 78.270    510.000    518.599     -8.599    499.206    515.700    499.206    502.104    499.206
 78.370    520.809    517.776      3.033    499.213    514.945    499.213    502.044    499.213
 78.470    485.000    517.192    -32.192    499.218    514.424    499.218    501.987    499.218
 78.570    484.000    516.782    -32.782    499.223    514.072    499.223    501.933    499.223
 78.670    470.000    516.512    -46.512    499.226    513.857    499.226    501.881    499.226
 78.770    522.000    516.370      5.630    499.228    513.767    499.228    501.831    499.228
 78.870    498.596    516.360    -17.765    499.228    513.805    499.228    501.784    499.228
 78.970    519.000    516.496      2.504    499.227    513.985    499.227    501.738    499.227
 79.070    459.000    516.800    -57.800    499.225    514.330    499.225    501.695    499.225
 79.170    478.000    517.299    -39.299    499.222    514.867    499.222    501.653    499.222
 79.270    538.000    518.027     19.973    499.217    515.630    499.217    501.613    499.217
 79.370    539.000    519.018     19.982    499.211    516.654    499.211    501.575    499.211
 79.470    462.000    520.314    -58.314    499.204    517.979    499.204    501.538    499.204
 79.570    538.351    521.963     16.388    499.195    519.654    499.195    501.503    499.195
 79.670    511.000    524.025    -13.025    499.185    521.740    499.185    501.468    499.185
 79.770    514.425    526.554    -12.129    499.174    524.290    499.174    501.435    499.174
 79.870    500.000    529.760    -29.760    499.161    527.515    499.161    501.403    499.161
 79.970    511.422    533.784    -22.362    499.147    531.557    499.147    501.371    499.147
 80.070    506.315    538.863    -32.547    499.132    536.653    499.132    501.339    499.132
 80.170    499.000    545.315    -46.315    499.115    543.121    499.115    501.308    499.115
 80.270    518.766    553.526    -34.760    499.097    551.348    499.097    501.276    499.097
 80.370    558.000    563.903     -5.903    499.077    561.740    499.077    501.243    499.077
 80.470    600.962    576.782     24.180    499.056    574.636    499.056    501.208    499.056
 80.570    568.424    592.321    -23.898    499.034    590.193    499.034    501.171    499.034
 80.670    576.000    610.406    -34.406    499.010    608.298    499.010    501.132    499.010
 80.770    605.000    630.583    -25.583    498.985    628.498    498.985    501.090    498.985
 80.870    668.000    652.038     15.962    498.959    649.978    498.959    501.044    498.959
 80.970    647.704    673.642    -25.939    498.931    671.610    498.931    500.995    498.931
 81.070    674.000    694.088    -20.088    498.902    692.086    498.902    500.943    498.902
 81.170    720.289    712.087      8.202    498.871    710.116    498.871    500.889    498.871
 81.270    701.000    726.531    -25.531    498.839    724.593    498.839    500.831    498.839
 81.370    764.000    736.574     27.426    498.805    734.668    498.805    500.772    498.805
 81.470    749.000    741.688      7.312    498.771    739.815    498.771    500.711    498.771
 81.570    722.000    741.702    -19.702    498.734    739.860    498.734    500.649    498.734
 81.670    725.000    736.769    -11.769    498.696    734.955    498.696    500.586    498.696
 81.770    719.000    727.326     -8.326    498.657    725.538    498.657    500.523    498.657
 81.870    694.000    714.097    -20.097    498.616    712.333    498.616    500.459    498.616
 81.970    721.000    698.098     22.902    498.574    696.355    498.574    500.395    498.574
 82.070    694.000    680.504     13.496    498.531    678.778    498.531    500.331    498.531
 82.170    642.574    662.404    -19.830    498.486    660.694    498.486    500.267    498.486
 82.270    664.125    644.609     19.517    498.439    642.912    498.439    500.203    498.439
 82.370    659.567    627.608     31.959    498.391    625.923    498.391    500.139    498.391
 82.470    626.000    611.671     14.329    498.342    609.994    498.342    500.074    498.342
 82.570    575.000    596.984    -21.984    498.291    595.315    498.291    500.010    498.291
 82.670    562.000    583.747    -21.747    498.239    582.083    498.239    499.945    498.239
 82.770    540.862    572.172    -31.311    498.185    570.513    498.185    499.880    498.185
 82.870    507.000    562.456    -55.456    498.129    560.799    498.129    499.814    498.129
 82.970    517.000    554.743    -37.743    498.073    553.087    498.073    499.749    498.073
 83.070    521.000    549.117    -28.117    498.014    547.461    498.014    499.682    498.014
 83.170    576.556    545.595     30.961    497.955    543.939    497.955    499.615    497.955
 83.270    571.000    544.116     26.884    497.893    542.458    497.893    499.548    497.893
 83.370    555.000    544.531     10.469    497.831    542.871    497.831    499.480    497.831
 83.470    532.000    546.589    -14.589    497.767    544.925    497.767    499.411    497.767
 83.570    503.000    549.933    -46.933    497.701    548.266    497.701    499.342    497.701
 83.670    524.433    554.106    -29.673    497.634    552.436    497.634    499.272    497.634
 83.770    560.000    558.560      1.440    497.565    556.886    497.565    499.201    497.565
 83.870    560.000    562.683     -2.683    497.495    561.005    497.495    499.129    497.495
 83.970    601.256    565.850     35.406    497.423    564.170    497.423    499.057    497.423
 84.070    612.272    567.510     44.763    497.350    565.830    497.350    498.984    497.350
 84.170    526.844    567.304    -40.460    497.275    565.624    497.275    498.909    497.275
 84.270    509.000    565.157    -56.157    497.199    563.479    497.199    498.834    497.199
 84.370    584.000    561.291     22.709    497.121    559.616    497.121    498.758    497.121
 84.470    552.741    556.137     -3.395    497.042    554.464    497.042    498.681    497.042
 84.570    521.747    550.206    -28.459    496.961    548.535    496.961    498.603    496.961
 84.670    515.000    543.996    -28.996    496.879    542.327    496.879    498.525    496.879
 84.770    530.000    537.930     -7.930    496.795    536.261    496.795    498.445    496.795
 84.870    515.336    532.329    -16.993    496.710    530.659    496.710    498.364    496.710
 84.970    487.628    527.407    -39.780    496.623    525.736    496.623    498.282    496.623
 85.070    546.826    523.278     23.549    496.535    521.604    496.535    498.200    496.535
 85.170    493.261    519.966    -26.705    496.445    518.287    496.445    498.116    496.445
 85.270    490.000    517.432    -27.432    496.354    515.748    496.354    498.032    496.354
 85.370    549.638    515.597     34.041    496.261    513.907    496.261    497.946    496.261
 85.470    505.398    514.366     -8.969    496.167    512.668    496.167    497.860    496.167
 85.570    521.000    513.650      7.350    496.071    511.943    496.071    497.773    496.071
 85.670    495.000    513.377    -18.377    495.973    511.661    495.973    497.685    495.973
 85.770    546.426    513.507     32.919    495.875    511.781    495.875    497.596    495.875
 85.870    527.000    514.037     12.963    495.774    512.299    495.774    497.506    495.774
 85.970    511.000    515.002     -4.002    495.672    513.251    495.672    497.415    495.672
 86.070    500.895    516.479    -15.584    495.569    514.715    495.569    497.323    495.569
 86.170    513.000    518.578     -5.578    495.464    516.799    495.464    497.231    495.464
 86.270    521.000    521.440     -0.440    495.357    519.644    495.357    497.137    495.357
 86.370    537.000    525.218     11.782    495.249    523.404    495.249    497.043    495.249
 86.470    570.000    530.067     39.933    495.140    528.232    495.140    496.948    495.140
 86.570    553.000    536.113     16.887    495.029    534.256    495.029    496.853    495.029
 86.670    574.000    543.428     30.572    494.916    541.547    494.916    496.756    494.916
 86.770    543.000    551.996     -8.996    494.802    550.088    494.802    496.659    494.802
 86.870    533.559    561.679    -28.120    494.687    559.744    494.687    496.561    494.687
 86.970    630.000    572.198     57.802    494.570    570.234    494.570    496.463    494.570
 87.070    627.000    583.111     43.889    494.451    581.117    494.451    496.364    494.451
 87.170    612.447    593.814     18.633    494.331    591.791    494.331    496.264    494.331
 87.270    598.550    603.561     -5.011    494.210    601.509    494.210    496.164    494.210
 87.370    609.000    611.521     -2.521    494.087    609.442    494.087    496.064    494.087
 87.470    632.834    616.902     15.932    493.962    614.798    493.962    495.963    493.962
 87.570    645.000    619.132     25.868    493.836    617.006    493.836    495.861    493.836
 87.670    636.000    618.025     17.975    493.709    615.879    493.709    495.760    493.709
 87.770    636.000    613.845     22.155    493.580    611.681    493.580    495.658    493.580
 87.870    592.000    607.217    -15.217    493.450    605.035    493.450    495.556    493.450
 87.970    612.000    598.965     13.035    493.318    596.766    493.318    495.453    493.318
 88.070    564.349    589.972    -25.623    493.184    587.754    493.184    495.351    493.184
 88.170    582.000    581.081      0.919    493.049    578.842    493.049    495.249    493.049
 88.270    595.000    573.032     21.968    492.913    570.770    492.913    495.147    492.913
 88.370    604.962    566.422     38.540    492.775    564.134    492.775    495.045    492.775
 88.470    596.000    561.674     34.326    492.636    559.358    492.636    494.944    492.636
 88.570    572.000    559.027     12.973    492.495    556.680    492.495    494.843    492.495
 88.670    597.000    558.534     38.466    492.353    556.154    492.353    494.742    492.353
 88.770    572.353    560.070     12.283    492.209    557.654    492.209    494.643    492.209
 88.870    611.000    563.349     47.651    492.064    560.894    492.064    494.544    492.064
 88.970    593.000    567.945     25.055    491.917    565.448    491.917    494.447    491.917
 89.070    528.752    573.314    -44.561    491.769    570.773    491.769    494.351    491.769
 89.170    584.079    578.824      5.255    491.620    576.236    491.620    494.256    491.620
 89.270    582.000    583.792     -1.792    491.469    581.152    491.469    494.164    491.469
 89.370    600.000    587.543     12.457    491.317    584.847    491.317    494.073    491.317
 89.470    598.000    589.503      8.497    491.163    586.745    491.163    493.986    491.163
 89.570    596.000    589.304      6.696    491.008    586.478    491.008    493.901    491.008
 89.670    583.788    586.869     -3.081    490.851    583.968    490.851    493.820    490.851
 89.770    599.000    582.415     16.585    490.693    579.431    490.693    493.742    490.693
 89.870    572.000    576.372     -4.372    490.534    573.298    490.534    493.670    490.534
 89.970    606.000    569.273     36.727    490.373    566.100    490.373    493.602    490.373
 90.070    528.000    561.636    -33.636    490.211    558.356    490.211    493.541    490.211
 90.170    524.000    553.982    -29.982    490.048    550.586    490.048    493.486    490.048
 90.270    501.000    546.686    -45.686    489.883    543.165    489.883    493.439    489.883
 90.370    467.000    540.036    -73.036    489.716    536.380    489.716    493.401    489.716
 90.470    539.000    534.223      4.777    489.549    530.422    489.549    493.373    489.549
 90.570    521.041    529.345     -8.304    489.380    525.388    489.380    493.356    489.380
 90.670    487.897    525.421    -37.525    489.209    521.294    489.209    493.351    489.209
 90.770    517.000    522.411     -5.411    489.037    518.099    489.037    493.360    489.037
 90.870    512.000    520.237     -8.237    488.864    515.725    488.864    493.384    488.864
 90.970    542.992    518.804     24.188    488.690    514.075    488.690    493.425    488.690
 91.070    510.130    518.021     -7.891    488.514    513.055    488.514    493.484    488.514
 91.170    507.000    517.812    -10.812    488.337    512.588    488.337    493.563    488.337
 91.270    559.000    518.129     40.871    488.159    512.625    488.159    493.664    488.159
 91.370    508.000    518.959    -10.959    487.979    513.151    487.979    493.788    487.979
 91.470    513.966    520.329     -6.363    487.798    514.189    487.798    493.936    487.798
 91.570    515.000    522.304     -7.304    487.616    515.806    487.616    494.111    487.616
 91.670    493.000    524.991    -31.991    487.432    518.106    487.432    494.313    487.432
 91.770    532.000    528.531      3.469    487.247    521.228    487.247    494.544    487.247
 91.870    495.666    533.095    -37.429    487.061    525.343    487.061    494.805    487.061
 91.970    577.000    538.870     38.130    486.874    530.637    486.874    495.096    486.874
 92.070    557.000    546.047     10.953    486.685    537.301    486.685    495.416    486.685
 92.170    544.605    554.802    -10.197    486.495    545.513    486.495    495.766    486.495
 92.270    584.000    565.277     18.723    486.304    555.414    486.304    496.144    486.304
 92.370    610.877    577.555     33.322    486.112    567.091    486.112    496.548    486.112
 92.470    579.000    591.642    -12.642    485.919    580.553    485.919    496.973    485.919
 92.570    642.930    607.445     35.485    485.724    595.714    485.724    497.415    485.724
 92.670    654.000    624.759     29.241    485.528    612.376    485.528    497.865    485.528
 92.770    676.000    643.255     32.745    485.331    630.220    485.331    498.315    485.331
 92.870    655.993    662.477     -6.484    485.132    648.800    485.132    498.753    485.132
 92.970    692.684    681.859     10.825    484.933    667.567    484.933    499.165    484.933
 93.070    687.000    700.776    -13.776    484.732    685.911    484.732    499.536    484.732
 93.170    740.000    718.631     21.369    484.531    703.251    484.531    499.847    484.531
 93.270    706.000    734.969    -28.969    484.328    719.152    484.328    500.081    484.328
 93.370    705.000    749.584    -44.584    484.124    733.421    484.124    500.224    484.124
 93.470    769.000    762.506      6.494    483.918    746.104    483.918    500.260    483.918
 93.570    723.000    773.940    -50.940    483.712    757.414    483.712    500.180    483.712
 93.670    743.000    784.152    -41.152    483.505    767.620    483.505    499.981    483.505
 93.770    791.875    793.386     -1.511    483.296    776.965    483.296    499.665    483.296
 93.870    772.202    801.857    -29.656    483.087    785.656    483.087    499.239    483.087
 93.970    845.409    809.789     35.621    482.876    793.904    482.876    498.715    482.876
 94.070    851.000    817.480     33.520    482.665    801.992    482.665    498.109    482.665
 94.170    852.000    825.375     26.625    482.452    810.348    482.452    497.438    482.452
 94.270    795.685    833.736    -38.052    482.238    819.217    482.238    496.720    482.238
 94.370    879.870    842.645     37.225    482.024    828.663    482.024    495.972    482.024
 94.470    907.816    851.850     55.966    481.808    838.419    481.808    495.208    481.808
 94.570    824.852    860.712    -35.860    481.591    847.836    481.591    494.441    481.591
 94.670    899.000    868.248     30.752    481.374    855.919    481.374    493.681    481.374
 94.770    893.000    873.238     19.762    481.155    861.441    481.155    492.937    481.155
 94.870    953.000    874.417     78.583    480.935    863.129    480.935    492.215    480.935
 94.970    927.000    870.732     56.268    480.715    859.926    480.715    491.520    480.715
 95.070    915.000    861.598     53.402    480.493    851.244    480.493    490.855    480.493
 95.170    891.000    847.117     43.883    480.271    837.182    480.271    490.221    480.271
 95.270    845.000    828.032     16.968    480.048    818.479    480.048    489.620    480.048
 95.370    830.000    805.610     24.390    479.824    796.404    479.824    489.053    479.824
 95.470    794.000    781.435     12.565    479.599    772.539    479.599    488.519    479.599
 95.570    764.000    757.208      6.792    479.373    748.587    479.373    488.019    479.373
 95.670    767.000    734.622     32.378    479.146    726.241    479.146    487.550    479.146
 95.770    741.117    715.280     25.836    478.918    707.106    478.918    487.113    478.918
 95.870    720.237    700.648     19.589    478.690    692.648    478.690    486.707    478.690
 95.970    668.000    692.026    -24.026    478.461    684.168    478.461    486.330    478.461
 96.070    692.000    690.531      1.469    478.231    682.786    478.231    485.981    478.231
 96.170    713.000    697.085     15.915    478.000    689.424    478.000    485.659    478.000
 96.270    701.000    712.403    -11.403    477.769    704.799    477.769    485.363    477.769
 96.370    735.000    736.971     -1.971    477.537    729.399    477.537    485.092    477.537
 96.470    815.000    771.012     43.988    477.304    763.446    477.304    484.846    477.304
 96.570    867.161    814.430     52.731    477.070    806.848    477.070    484.623    477.070
 96.670    879.285    866.748     12.537    476.836    859.126    476.836    484.423    476.836
 96.770    982.697    927.034     55.663    476.601    919.350    476.601    484.246    476.601
 96.870   1015.000    993.841     21.159    476.365    986.073    476.365    484.091    476.365
 96.970   1056.000   1065.159     -9.159    476.129   1057.287    476.129    483.960    476.129
 97.070   1123.000   1138.405    -15.405    475.892   1130.407    475.892    483.852    475.892
 97.170   1248.190   1210.434     37.756    475.654   1202.290    475.654    483.767    475.654
 97.270   1284.000   1277.628      6.372    475.416   1269.315    475.416    483.708    475.416
 97.370   1343.000   1336.076      6.924    475.177   1327.570    475.177    483.676    475.177
 97.470   1334.723   1381.914    -47.191    474.938   1373.191    474.938    483.671    474.938
 97.570   1439.716   1411.838     27.877    474.698   1402.868    474.698    483.697    474.698
 97.670   1428.000   1423.680      4.320    474.458   1414.430    474.458    483.756    474.458
 97.770   1404.853   1416.848    -11.995    474.217   1407.282    474.217    483.850    474.217
 97.870   1452.618   1392.410     60.207    473.976   1382.487    473.976    483.983    473.976
 97.970   1390.666   1352.820     37.846    473.734   1342.492    473.734    484.159    473.734
 98.070   1310.000   1301.434      8.566    473.492   1290.650    473.492    484.381    473.492
 98.170   1276.000   1241.947     34.053    473.249   1230.651    473.249    484.654    473.249
 98.270   1244.274   1178.082     66.192    473.006   1166.215    473.006    484.982    473.006
 98.370   1102.000   1113.348    -11.348    472.762   1100.844    472.762    485.372    472.762
 98.470   1036.095   1050.912    -14.817    472.518   1037.702    472.518    485.827    472.518
 98.570    956.003    993.535    -37.532    472.274    979.544    472.274    486.354    472.274
 98.670    931.000    943.556    -12.556    472.030    928.705    472.030    486.960    472.030
 98.770    956.781    902.898     53.882    471.785    887.104    471.785    487.648    471.785
 98.870    921.208    873.090     48.118    471.540    856.261    471.540    488.426    471.540
 98.970    781.000    855.292    -74.292    471.294    837.335    471.294    489.299    471.294
 99.070    854.745    850.337      4.408    471.048    831.151    471.048    490.273    471.048
 99.170    858.000    858.760     -0.760    470.802    838.241    470.802    491.353    470.802
 99.270    896.000    880.833     15.167    470.556    858.872    470.556    492.543    470.556
 99.370    899.780    916.560    -16.780    470.310    893.047    470.310    493.847    470.310
 99.470    967.661    965.674      1.987    470.063    940.494    470.063    495.268    470.063
 99.570   1026.364   1027.589     -1.225    469.817   1000.628    469.817    496.806    469.817
 99.670   1102.046   1101.363      0.683    469.570   1072.507    469.570    498.462    469.570
 99.770   1238.922   1185.625     53.297    469.323   1154.763    469.323    500.233    469.323
 99.870   1278.000   1278.513     -0.513    469.076   1245.539    469.076    502.113    469.076
 99.970   1433.606   1377.634     55.972    468.829   1342.450    468.829    504.095    468.829
100.070   1470.000   1480.048    -10.048    468.581   1442.570    468.581    506.165    468.581
100.170   1598.000   1582.328     15.672    468.334   1542.488    468.334    508.307    468.334
100.270   1730.000   1680.712     49.288    468.087   1638.464    468.087    510.497    468.087
100.370   1730.340   1771.372    -41.032    467.840   1726.700    467.840    512.705    467.840
100.470   1880.000   1850.748     29.252    467.593   1803.670    467.593    514.896    467.593
100.570   1914.000   1915.827     -1.827    467.346   1866.405    467.346    517.024    467.346
100.670   2032.669   1964.282     68.388    467.099   1912.626    467.099    519.037    467.099
100.770   2042.000   1994.428     47.572    466.852   1940.707    466.852    520.879    466.852
100.870   2006.000   2005.160      0.840    466.605   1949.603    466.605    522.487    466.605
100.970   1992.000   1995.995     -3.995    466.359   1938.892    466.359    523.801    466.359
101.070   1900.409   1967.301    -66.892    466.112   1908.997    466.112    524.763    466.112
101.170   1886.000   1920.576    -34.576    465.866   1861.464    465.866    525.325    465.866
101.270   1866.000   1858.571      7.429    465.620   1799.079    465.620    525.455    465.620
101.370   1790.000   1785.101      4.899    465.375   1725.672    465.375    525.136    465.375
101.470   1630.506   1704.581    -74.075    465.129   1645.655    465.129    524.373    465.129
101.570   1618.000   1621.473     -3.473    464.884   1563.468    464.884    523.188    464.884
101.670   1557.000   1539.814     17.186    464.640   1483.109    464.640    521.623    464.640
101.770   1486.000   1462.910     23.090    464.395   1407.833    464.395    519.728    464.395
101.870   1348.000   1393.181    -45.181    464.151   1340.003    464.151    517.563    464.151
101.970   1287.000   1332.171    -45.171    463.908   1281.102    463.908    515.191    463.908
102.070   1265.000   1280.475    -15.475    463.665   1231.663    463.665    512.671    463.665
102.170   1202.000   1237.859    -35.859    463.422   1191.401    463.422    510.059    463.422
102.270   1262.609   1203.350     59.259    463.180   1159.292    463.180    507.404    463.180
102.370   1139.092   1175.352    -36.260    462.938   1133.700    462.938    504.746    462.938
102.470   1139.000   1151.820    -12.820    462.697   1112.544    462.697    502.121    462.697
102.570   1124.000   1130.472     -6.472    462.456   1093.517    462.456    499.555    462.456
102.670   1095.000   1109.071    -14.071    462.216   1074.359    462.216    497.068    462.216
102.770   1136.418   1085.717     50.702    461.977   1053.155    461.977    494.676    461.977
102.870   1048.000   1059.101    -11.101    461.738   1028.585    461.738    492.390    461.738
102.970   1057.033   1028.630     28.403    461.501   1000.047    461.501    490.216    461.501
103.070   1039.159    994.394     44.765    461.263    967.626    461.263    488.160    461.263
103.170    943.000    957.006    -14.006    461.027    931.935    461.027    486.222    461.027
103.270    897.000    917.399    -20.399    460.791    893.905    460.791    484.403    460.791
103.370    892.000    876.640     15.360    460.556    854.606    460.556    482.700    460.556
103.470    851.000    835.800     15.200    460.322    815.114    460.322    481.110    460.322
103.570    788.517    795.872     -7.355    460.088    776.424    460.088    479.630    460.088
103.670    789.964    757.717     32.247    459.856    739.402    459.856    478.255    459.856
103.770    778.000    722.032     55.968    459.625    704.753    459.625    476.979    459.625
103.870    657.000    689.339    -32.339    459.394    673.002    459.394    475.796    459.394
103.970    735.000    659.973     75.027    459.164    644.492    459.164    474.702    459.164
104.070    674.000    634.096     39.904    458.936    619.390    458.936    473.690    458.936
104.170    616.000    611.711      4.289    458.708    597.707    458.708    472.754    458.708
104.270    632.000    592.693     39.307    458.482    579.322    458.482    471.888    458.482
104.370    595.000    576.817     18.183    458.256    564.016    458.256    471.086    458.256
104.470    564.000    563.793      0.207    458.032    551.504    458.032    470.344    458.032
104.570    597.528    553.297     44.230    457.809    541.469    457.809    469.657    457.809
104.670    579.464    545.000     34.464    457.587    533.584    457.587    469.018    457.587
104.770    571.000    538.586     32.414    457.366    527.539    457.366    468.425    457.366
104.870    519.636    533.771    -14.135    457.147    523.055    457.147    467.872    457.147
104.970    555.845    530.313     25.532    456.929    519.892    456.929    467.357    456.929
105.070    541.000    528.019     12.981    456.712    517.861    456.712    466.875    456.712
105.170    564.000    526.741     37.259    456.496    516.816    456.496    466.424    456.496
105.270    579.000    526.380     52.620    456.282    516.662    456.282    466.001    456.282
105.370    501.795    526.880    -25.084    456.069    517.345    456.069    465.603    456.069
105.470    511.634    528.223    -16.589    455.858    518.849    455.858    465.229    455.858
105.570    543.000    530.423     12.577    455.648    521.191    455.648    464.877    455.648
105.670    553.000    533.522     19.478    455.440    524.412    455.440    464.544    455.440
105.770    549.000    537.576     11.424    455.233    528.572    455.233    464.230    455.233
105.870    508.496    542.651    -34.155    455.028    533.736    455.028    463.933    455.028
105.970    584.604    548.807     35.798    454.825    539.966    454.825    463.652    454.825
106.070    540.158    556.084    -15.925    454.623    547.305    454.623    463.386    454.623
106.170    553.000    564.494    -11.494    454.423    555.763    454.423    463.135    454.423
106.270    572.000    574.007     -2.007    454.224    565.312    454.224    462.898    454.224
106.370    565.000    584.544    -19.544    454.027    575.874    454.027    462.674    454.027
106.470    613.000    595.970     17.030    453.832    587.313    453.832    462.463    453.832
106.570    557.000    608.093    -51.093    453.639    599.439    453.639    462.264    453.639
106.670    661.664    620.665     40.999    453.448    612.004    453.448    462.078    453.448
106.770    625.749    633.385     -7.636    453.259    624.708    453.259    461.903    453.259
106.870    693.000    645.903     47.097    453.071    637.200    453.071    461.741    453.071
106.970    627.193    657.846    -30.653    452.886    649.108    452.886    461.590    452.886
107.070    628.677    668.822    -40.146    452.703    660.041    452.703    461.450    452.703
107.170    716.553    678.457     38.097    452.521    669.623    452.521    461.322    452.521
107.270    718.000    686.438     31.562    452.342    677.544    452.342    461.205    452.342
107.370    641.000    692.561    -51.561    452.165    683.597    452.165    461.101    452.165
107.470    715.000    696.764     18.236    451.990    687.722    451.990    461.008    451.990
107.570    692.000    699.172     -7.172    451.817    690.042    451.817    460.926    451.817
107.670    683.000    700.035    -17.035    451.646    690.808    451.646    460.857    451.646
107.770    669.376    699.722    -30.346    451.478    690.388    451.478    460.800    451.478
107.870    665.214    698.651    -33.437    451.312    689.200    451.312    460.756    451.312
107.970    730.295    697.236     33.060    451.149    687.657    451.149    460.725    451.149
108.070    671.000    695.840    -24.840    450.987    686.123    450.987    460.707    450.987
108.170    704.167    694.747      9.420    450.829    684.880    450.829    460.703    450.829
108.270    706.000    694.133     11.867    450.672    684.105    450.672    460.712    450.672
108.370    689.000    694.068     -5.068    450.518    683.865    450.518    460.737    450.518
108.470    667.000    694.501    -27.501    450.367    684.111    450.367    460.777    450.367
108.570    683.000    695.271    -12.271    450.219    684.680    450.219    460.833    450.219
108.670    623.000    696.114    -73.114    450.073    685.308    450.073    460.906    450.073
108.770    693.000    696.686     -3.686    449.929    685.649    449.929    460.997    449.929
108.870    650.000    696.595    -46.595    449.789    685.312    449.789    461.107    449.789
108.970    706.000    695.446     10.554    449.651    683.898    449.651    461.236    449.651
109.070    658.000    692.894    -34.894    449.516    681.063    449.516    461.387    449.516
109.170    681.000    688.702     -7.702    449.383    676.567    449.383    461.560    449.383
109.270    656.000    682.773    -26.773    449.254    670.312    449.254    461.757    449.254
109.370    736.000    675.164     60.836    449.127    662.355    449.127    461.979    449.127
109.470    649.000    666.066    -17.066    449.004    652.882    449.004    462.229    449.004
109.570    616.000    655.766    -39.766    448.884    642.181    448.884    462.509    448.884
109.670    636.000    644.605     -8.605    448.766    630.590    448.766    462.821    448.766
109.770    618.000    632.943    -14.943    448.652    618.464    448.652    463.167    448.652
109.870    636.000    621.126     14.874    448.541    606.150    448.541    463.551    448.541
109.970    610.000    609.474      0.526    448.433    593.963    448.433    463.975    448.433
110.070    561.213    598.268    -37.055    448.328    582.181    448.328    464.443    448.328
110.170    597.601    587.745      9.856    448.226    571.038    448.226    464.958    448.226
110.270    623.014    578.092     44.921    448.128    560.718    448.128    465.525    448.128
110.370    610.212    569.451     40.761    448.033    551.356    448.033    466.147    448.033
110.470    592.000    561.912     30.088    447.942    543.040    447.942    466.830    447.942
110.570    546.000    555.523     -9.523    447.854    535.813    447.854    467.578    447.854
110.670    531.455    550.292    -18.837    447.769    529.676    447.769    468.397    447.769
110.770    510.240    546.193    -35.953    447.689    524.599    447.689    469.292    447.689
110.870    554.000    543.174     10.826    447.611    520.523    447.611    470.269    447.611
110.970    523.000    541.165    -18.165    447.538    517.372    447.538    471.335    447.538
111.070    552.000    540.082     11.918    447.467    515.056    447.467    472.497    447.467
111.170    569.000    539.836     29.164    447.401    513.479    447.401    473.760    447.401
111.270    541.000    540.338      0.662    447.339    512.544    447.339    475.133    447.339
111.370    527.362    541.501    -14.139    447.280    512.159    447.280    476.622    447.280
111.470    573.187    543.247     29.941    447.225    512.237    447.225    478.234    447.225
111.570    540.734    545.504     -4.770    447.174    512.699    447.174    479.977    447.174
111.670    511.559    548.211    -36.652    447.127    513.478    447.127    481.858    447.127
111.770    534.000    551.319    -17.319    447.084    514.516    447.084    483.885    447.084
111.870    599.121    554.788     44.334    447.045    515.766    447.045    486.063    447.045
111.970    542.000    558.588    -16.588    447.011    517.195    447.011    488.400    447.011
112.070    596.917    562.704     34.213    446.980    518.780    446.980    490.900    446.980
112.170    551.896    567.130    -15.234    446.954    520.508    446.954    493.570    446.954
112.270    539.883    571.870    -31.987    446.932    522.383    446.932    496.414    446.932
112.370    535.000    576.941    -41.941    446.914    524.415    446.914    499.435    446.914
112.470    565.000    582.367    -17.367    446.900    526.627    446.900    502.635    446.900
112.570    610.315    588.183     22.132    446.891    529.054    446.891    506.015    446.891
112.670    558.302    594.433    -36.131    446.887    531.741    446.887    509.573    446.887
112.770    576.000    601.172    -25.172    446.887    534.748    446.887    513.306    446.887
112.870    556.000    608.467    -52.467    446.891    538.144    446.891    517.209    446.891
112.970    614.000    616.370     -2.370    446.900    541.992    446.900    521.272    446.900
113.070    648.000    625.069     22.931    446.914    546.494    446.914    525.483    446.914
113.170    571.000    634.690    -63.690    446.933    551.789    446.933    529.826    446.933
113.270    626.000    645.413    -19.413    446.956    558.079    446.956    534.281    446.956
113.370    633.942    657.484    -23.541    446.984    565.637    446.984    538.822    446.984
113.470    663.000    671.220     -8.220    447.017    574.811    447.017    543.415    447.017
113.570    650.000    687.030    -37.030    447.055    586.046    447.055    548.025    447.055
113.670    710.658    705.426      5.233    447.098    599.902    447.098    552.605    447.098
113.770    757.650    727.053     30.597    447.145    617.074    447.145    557.104    447.145
113.870    775.000    752.705     22.295    447.198    638.416    447.198    561.462    447.198
113.970    799.000    783.351     15.649    447.257    664.960    447.257    565.615    447.257
114.070    808.000    820.148    -12.148    447.320    697.934    447.320    569.494    447.320
114.170    863.000    864.460     -1.460    447.389    738.774    447.389    573.025    447.389
114.270    888.754    917.864    -29.110    447.462    789.129    447.462    576.136    447.462
114.370    930.672    982.142    -51.470    447.542    850.850    447.542    578.757    447.542
114.470   1009.581   1059.267    -49.686    447.626    925.975    447.626    580.826    447.626
114.570   1094.847   1151.368    -56.521    447.716   1016.682    447.716    582.292    447.716
114.670   1278.000   1260.670     17.330    447.812   1125.235    447.812    583.116    447.812
114.770   1431.730   1389.423     42.307    447.913   1253.902    447.913    583.279    447.913
114.870   1607.000   1539.795     67.205    448.020   1404.857    448.020    582.778    448.020
114.970   1676.076   1713.757    -37.681    448.133   1580.053    448.133    581.631    448.133
115.070   1993.679   1912.941     80.738    448.251   1781.088    448.251    579.872    448.251
115.170   2139.225   2138.487      0.737    448.375   2009.054    448.375    577.549    448.375
115.270   2471.000   2390.890     80.110    448.506   2264.386    448.506    574.724    448.506
115.370   2676.000   2669.845      6.155    448.641   2546.714    448.641    571.465    448.641
115.470   3067.206   2974.114     93.093    448.783   2854.726    448.783    567.845    448.783
115.570   3402.234   3301.407    100.826    448.931   3186.063    448.931    563.936    448.931
115.670   3727.232   3648.311     78.921    449.086   3537.241    449.086    559.809    449.086
115.770   3941.000   4010.242    -69.242    449.246   3903.612    449.246    555.530    449.246
115.870   4318.000   4381.453    -63.453    449.412   4279.372    449.412    551.159    449.412
115.970   4694.000   4755.088    -61.088    449.585   4657.611    449.585    546.751    449.585
116.070   5053.738   5123.280    -69.542    449.764   5030.417    449.764    542.351    449.764
116.170   5347.000   5477.312   -130.312    449.950   5389.034    449.950    537.999    449.950
116.270   5676.614   5807.839   -131.225    450.142   5724.083    450.142    533.728    450.142
116.370   6285.000   6105.200    179.800    450.340   6025.878    450.340    529.565    450.340
116.470   6343.643   6359.837    -16.194    450.545   6284.835    450.545    525.533    450.545
116.570   6416.568   6562.831   -146.264    450.757   6492.020    450.757    521.648    450.757
116.670   6834.833   6706.544    128.289    450.976   6639.775    450.976    517.923    450.976
116.770   6806.000   6785.282     20.718    451.201   6722.396    451.201    514.368    451.201
116.870   6898.000   6795.881    102.119    451.433   6736.705    451.433    510.990    451.433
116.970   6874.673   6738.051    136.622    451.672   6682.406    451.672    507.792    451.672
117.070   6650.000   6614.406     35.594    451.918   6562.108    451.918    504.776    451.918
117.170   6468.000   6430.160     37.840    452.171   6381.019    452.171    501.942    452.171
117.270   6237.000   6192.569     44.431    452.431   6146.397    452.431    499.289    452.431
117.370   5875.425   5910.272    -34.847    452.698   5866.882    452.698    496.813    452.698
117.470   5381.000   5592.635   -211.635    452.972   5551.843    452.972    494.510    452.972
117.570   5238.970   5249.196    -10.225    453.254   5210.826    453.254    492.375    453.254
117.670   4980.013   4889.230     90.783    453.543   4853.112    453.543    490.404    453.543
117.770   4534.886   4521.426     13.460    453.839   4487.398    453.839    488.589    453.839
117.870   4210.000   4153.651     56.349    454.143   4121.558    454.143    486.924    454.143
117.970   3837.682   3792.790     44.892    454.454   3762.489    454.454    485.402    454.454
118.070   3536.000   3444.647     91.353    454.773   3416.003    454.773    484.016    454.773
118.170   3223.000   3113.900    109.100    455.100   3086.786    455.100    482.760    455.100
118.270   2911.000   2804.101    106.899    455.434   2778.401    455.434    481.625    455.434
118.370   2475.093   2517.727    -42.635    455.776   2493.333    455.776    480.605    455.776
118.470   2286.000   2256.262     29.738    456.126   2233.075    456.126    479.693    456.126
118.570   1970.000   2020.306    -50.306    456.484   1998.236    456.484    478.882    456.484
118.670   1779.000   1809.699    -30.699    456.850   1788.662    456.850    478.165    456.850
118.770   1596.000   1623.653    -27.653    457.224   1603.574    457.224    477.537    457.224
118.870   1418.000   1460.890    -42.890    457.607   1441.698    457.607    476.992    457.607
118.970   1316.000   1319.767     -3.767    457.997   1301.398    457.997    476.524    457.997
119.070   1134.000   1198.406    -64.406    458.396   1180.802    458.396    476.127    458.396
119.170   1085.000   1094.805     -9.805    458.803   1077.912    458.803    475.797    458.803
119.270   1006.000   1006.934     -0.934    459.218    990.702    459.218    475.530    459.218
119.370    895.814    932.814    -37.000    459.642    917.198    459.642    475.320    459.642
119.470    898.857    870.576     28.281    460.074    855.534    460.074    475.165    460.074
119.570    799.431    818.502    -19.071    460.515    803.995    460.515    475.060    460.515
119.670    758.000    775.047    -17.047    460.965    761.039    460.965    475.003    460.965
119.770    733.000    738.853     -5.853    461.423    725.310    461.423    474.990    461.423
119.870    686.000    708.742    -22.742    461.891    695.633    461.891    475.018    461.891
119.970    665.000    683.712    -18.712    462.367    671.009    462.367    475.086    462.367
120.070    708.618    662.919     45.699    462.852    650.594    462.852    475.191    462.852
120.170    690.248    645.647     44.601    463.346    633.675    463.346    475.331    463.346
120.270    624.000    631.341     -7.341    463.850    619.699    463.850    475.504    463.850
120.370    626.000    619.549      6.451    464.362    608.214    464.362    475.708    464.362
120.470    607.000    609.876     -2.876    464.884    598.828    464.884    475.943    464.884
120.570    618.945    602.014     16.931    465.415    591.234    465.415    476.207    465.415
120.670    536.000    595.718    -59.718    465.955    585.187    465.955    476.498    465.955
120.770    580.000    590.790    -10.790    466.505    580.492    466.505    476.815    466.505
120.870    573.000    587.073    -14.073    467.065    576.991    467.065    477.159    467.065
120.970    575.040    584.437     -9.397    467.634    574.558    467.634    477.527    467.634
121.070    580.239    582.779     -2.540    468.213    573.087    468.213    477.918    468.213
121.170    615.000    582.009     32.991    468.802    572.492    468.802    478.333    468.802
121.270    583.706    582.052      1.654    469.400    572.697    469.400    478.771    469.400
121.370    610.000    582.839     27.161    470.009    573.635    470.009    479.230    470.009
121.470    597.542    584.306     13.235    470.627    575.243    470.627    479.710    470.627
121.570    604.907    586.392     18.515    471.256    577.458    471.256    480.210    471.256
121.670    575.000    589.030    -14.030    471.894    580.217    471.894    480.731    471.894
121.770    625.682    592.154     33.528    472.543    583.452    472.543    481.270    472.543
121.870    578.000    595.692    -17.692    473.203    587.094    473.203    481.828    473.203
121.970    591.000    599.565     -8.565    473.872    591.063    473.872    482.404    473.872
122.070    642.238    603.689     38.550    474.552    595.277    474.552    482.997    474.552
122.170    616.724    607.972      8.752    475.243    599.645    475.243    483.607    475.243
122.270    606.000    612.318     -6.318    475.944    604.069    475.944    484.232    475.944
122.370    592.000    616.622    -24.622    476.656    608.449    476.656    484.871    476.656
122.470    585.000    620.776    -35.776    477.379    612.676    477.379    485.525    477.379
122.570    652.000    624.673     27.327    478.112    616.642    478.112    486.191    478.112
122.670    647.722    628.203     19.519    478.857    620.241    478.857    486.870    478.857
122.770    614.000    631.264    -17.264    479.612    623.371    479.612    487.559    479.612
122.870    638.000    633.764      4.236    480.379    625.941    480.379    488.258    480.379
122.970    683.981    635.628     48.353    481.157    627.876    481.157    488.966    481.157
123.070    628.000    636.799     -8.799    481.946    629.122    481.946    489.682    481.946
123.170    666.288    637.249     29.039    482.746    629.649    482.746    490.405    482.746
123.270    679.109    636.970     42.140    483.558    629.452    483.558    491.135    483.558
123.370    597.000    635.981    -38.981    484.382    628.551    484.382    491.871    484.382
123.470    666.452    634.324     32.128    485.216    626.986    485.216    492.612    485.216
123.570    643.000    632.053     10.947    486.063    624.814    486.063    493.359    486.063
123.670    640.951    629.238     11.713    486.921    622.103    486.921    494.111    486.921
123.770    634.672    625.953      8.719    487.792    618.928    487.792    494.869    487.792
123.870    651.000    622.279     28.721    488.674    615.370    488.674    495.632    488.674
123.970    631.000    618.296     12.704    489.568    611.508    489.568    496.402    489.568
124.070    661.217    614.081     47.136    490.474    607.419    490.474    497.180    490.474
124.170    577.866    609.711    -31.845    491.392    603.179    491.392    497.965    491.392
124.270    646.260    605.255     41.006    492.323    598.856    492.323    498.759    492.323
124.370    671.000    600.776     70.224    493.266    594.513    493.266    499.562    493.266
124.470    649.000    596.330     52.670    494.221    590.206    494.221    500.376    494.221
124.570    599.606    591.965      7.641    495.189    585.981    495.189    501.201    495.189
124.670    590.248    587.722      2.526    496.170    581.878    496.170    502.038    496.170
124.770    601.000    583.632     17.368    497.163    577.929    497.163    502.887    497.163
124.870    612.000    579.722     32.278    498.169    574.159    498.169    503.751    498.169
124.970    598.000    576.011     21.989    499.187    570.587    499.187    504.628    499.187
