neutron_powder_diffraction_0245
R_wp: 4.115
Temperature (K): 970.326
Counts: 83703.00
Wavelength (Ã…): 2.52098
COMMENTS
Test file for demonstrating the .xyy file format in Reel1.0
END OF HEADER
   tth       Y_obs     Y_calc      Y_res    Background    Phase_1_Nuc    Phase_1_Mag    Phase_2_Nuc    Phase_2_Mag
  9.970    587.073    560.189     26.883    559.577    560.167    559.577    559.599    559.577
 10.070    612.000    560.449     51.551    559.787    560.426    559.787    559.809    559.787
 10.170    590.000    560.709     29.291    559.990    560.686    559.990    560.012    559.990
 10.270    582.000    560.971     21.029    560.186    560.948    560.186    560.208    560.186
 10.370    560.000    561.237     -1.237    560.375    561.213    560.375    560.398    560.375
 10.470    601.264    561.508     39.755    560.557    561.485    560.557    560.580    560.557
 10.570    516.638    561.789    -45.151    560.733    561.766    560.733    560.756    560.733
 10.670    603.000    562.084     40.916    560.902    562.060    560.902    560.925    560.902
 10.770    539.000    562.397    -23.397    561.064    562.373    561.064    561.087    561.064
 10.870    532.288    562.738    -30.450    561.219    562.713    561.219    561.243    561.219
 10.970    606.000    563.115     42.885    561.368    563.090    561.368    561.392    561.368
 11.070    605.000    563.544     41.456    561.511    563.520    561.511    561.535    561.511
 11.170    548.835    564.048    -15.213    561.647    564.022    561.647    561.671    561.647
 11.270    539.000    564.659    -25.659    561.777    564.632    561.777    561.802    561.777
 11.370    574.547    565.434      9.113    561.901    565.403    561.901    561.929    561.901
 11.470    575.222    566.481      8.742    562.018    566.450    562.018    562.047    562.018
 11.570    541.000    568.113    -27.113    562.129    568.081    562.129    562.158    562.129
 11.670    542.938    571.257    -28.319    562.234    571.222    562.234    562.263    562.234
 11.770    562.925    578.286    -15.361    562.333    578.248    562.333    562.362    562.333
 11.870    636.000    593.568     42.432    562.426    593.521    562.426    562.455    562.426
 11.970    569.574    621.541    -51.967    562.513    621.479    562.513    562.542    562.513
 12.070    671.000    660.536     10.464    562.594    660.451    562.594    562.623    562.594
 12.170    684.000    695.672    -11.672    562.669    695.568    562.669    562.699    562.669
 12.270    645.000    703.539    -58.539    562.738    703.430    562.738    562.768    562.738
 12.370    642.000    677.031    -35.031    562.802    676.936    562.802    562.832    562.802
 12.470    609.697    636.625    -26.928    562.860    636.552    562.860    562.892    562.860
 12.570    588.000    603.279    -15.279    562.912    603.224    562.912    562.945    562.912
 12.670    599.000    583.422     15.578    562.959    583.377    562.959    562.992    562.959
 12.770    569.000    573.961     -4.961    563.000    573.922    563.000    563.033    563.000
 12.870    584.000    569.903     14.097    563.036    569.866    563.036    563.069    563.036
 12.970    563.000    568.026     -5.026    563.067    567.990    563.067    563.100    563.067
 13.070    584.000    566.963     17.037    563.092    566.927    563.092    563.125    563.092
 13.170    514.000    566.250    -52.250    563.111    566.214    563.111    563.145    563.111
 13.270    522.000    565.733    -43.733    563.126    565.697    563.126    563.160    563.126
 13.370    541.000    565.338    -24.338    563.135    565.303    563.135    563.169    563.135
 13.470    598.304    565.031     33.274    563.139    564.995    563.139    563.174    563.139
 13.570    544.000    564.787    -20.787    563.138    564.747    563.138    563.177    563.138
 13.670    532.514    564.592    -32.078    563.133    564.543    563.133    563.181    563.133
 13.770    576.000    564.421     11.579    563.122    564.372    563.122    563.171    563.122
 13.870    552.000    564.273    -12.273    563.106    564.223    563.106    563.155    563.106
 13.970    569.057    564.142      4.914    563.085    564.092    563.085    563.135    563.085
 14.070    557.451    564.024     -6.573    563.059    563.973    563.059    563.110    563.059
 14.170    575.000    563.915     11.085    563.029    563.864    563.029    563.079    563.029
 14.270    531.000    563.813    -32.813    562.994    563.762    562.994    563.045    562.994
 14.370    593.000    563.718     29.282    562.954    563.665    562.954    563.006    562.954
 14.470    564.344    563.628      0.716    562.910    563.574    562.910    562.964    562.910
 14.570    588.000    563.541     24.459    562.861    563.482    562.861    562.920    562.861
 14.670    589.000    563.450     25.550    562.808    563.390    562.808    562.867    562.808
 14.770    583.000    563.359     19.641    562.750    563.298    562.750    562.810    562.750
 14.870    503.000    563.267    -60.267    562.687    563.206    562.687    562.748    562.687
 14.970    599.000    563.174     35.826    562.620    563.113    562.620    562.681    562.620
 15.070    531.000    563.080    -32.080    562.549    563.019    562.549    562.610    562.549
 15.170    510.000    562.984    -52.984    562.474    562.922    562.474    562.535    562.474
 15.270    554.000    562.886     -8.886    562.394    562.824    562.394    562.456    562.394
 15.370    554.386    562.786     -8.400    562.311    562.724    562.311    562.373    562.311
 15.470    517.781    562.684    -44.903    562.223    562.621    562.223    562.285    562.223
 15.570    545.000    562.579    -17.579    562.131    562.516    562.131    562.194    562.131
 15.670    564.000    562.471      1.529    562.034    562.407    562.034    562.098    562.034
 15.770    528.000    562.360    -34.360    561.934    562.297    561.934    561.998    561.934
 15.870    537.000    562.247    -25.247    561.830    562.183    561.830    561.895    561.830
 15.970    553.000    562.131     -9.131    561.723    562.066    561.723    561.787    561.723
 16.070    519.439    562.012    -42.573    561.611    561.947    561.611    561.676    561.611
 16.170    568.000    561.890      6.110    561.495    561.824    561.495    561.561    561.495
 16.270    563.000    561.764      1.236    561.376    561.698    561.376    561.442    561.376
 16.370    554.000    561.636     -7.636    561.253    561.570    561.253    561.319    561.253
 16.470    509.000    561.505    -52.505    561.126    561.438    561.126    561.193    561.126
 16.570    586.000    561.370     24.630    560.996    561.303    560.996    561.063    560.996
 16.670    533.000    561.233    -28.233    560.862    561.165    560.862    560.929    560.862
 16.770    582.000    561.093     20.907    560.724    561.025    560.724    560.792    560.724
 16.870    559.000    560.950     -1.950    560.583    560.881    560.583    560.652    560.583
 16.970    568.000    560.805      7.195    560.439    560.736    560.439    560.508    560.439
 17.070    588.000    560.656     27.344    560.291    560.587    560.291    560.361    560.291
 17.170    542.000    560.506    -18.506    560.140    560.434    560.140    560.212    560.140
 17.270    591.632    560.352     31.280    559.985    560.278    559.985    560.059    559.985
 17.370    604.468    560.194     44.274    559.827    560.119    559.827    559.902    559.827
 17.470    533.000    560.034    -27.034    559.666    559.957    559.666    559.742    559.666
 17.570    551.000    559.870     -8.870    559.502    559.793    559.502    559.579    559.502
 17.670    543.000    559.704    -16.704    559.335    559.626    559.335    559.413    559.335
 17.770    559.000    559.534     -0.534    559.164    559.455    559.164    559.243    559.164
 17.870    533.000    559.362    -26.362    558.991    559.282    558.991    559.070    558.991
 17.970    573.000    559.187     13.813    558.814    559.107    558.814    558.894    558.814
 18.070    488.000    559.009    -71.009    558.635    558.928    558.635    558.715    558.635
 18.170    547.000    558.828    -11.828    558.452    558.747    558.452    558.533    558.452
 18.270    592.346    558.645     33.700    558.267    558.564    558.267    558.349    558.267
 18.370    588.927    558.459     30.468    558.079    558.377    558.079    558.161    558.079
 18.470    533.000    558.271    -25.271    557.888    558.188    557.888    557.971    557.888
 18.570    563.939    558.082      5.857    557.694    557.998    557.694    557.778    557.694
 18.670    503.000    557.889    -54.889    557.498    557.805    557.498    557.582    557.498
 18.770    545.000    557.693    -12.693    557.298    557.609    557.298    557.383    557.298
 18.870    552.000    557.495     -5.495    557.097    557.410    557.097    557.182    557.097
 18.970    515.715    557.295    -41.580    556.892    557.209    556.892    556.978    556.892
 19.070    557.000    557.092     -0.092    556.685    557.005    556.685    556.772    556.685
 19.170    520.000    556.887    -36.887    556.475    556.800    556.475    556.563    556.475
 19.270    541.935    556.683    -14.749    556.263    556.594    556.263    556.353    556.263
 19.370    553.964    556.494     -2.530    556.049    556.403    556.049    556.140    556.049
 19.470    518.000    556.287    -38.287    555.832    556.196    555.832    555.924    555.832
 19.570    513.000    556.075    -43.075    555.613    555.982    555.613    555.705    555.613
 19.670    544.000    555.860    -11.860    555.391    555.766    555.391    555.484    555.391
 19.770    558.293    555.642      2.650    555.167    555.548    555.167    555.261    555.167
 19.870    523.000    555.423    -32.423    554.941    555.329    554.941    555.036    554.941
 19.970    553.000    555.203     -2.203    554.712    555.107    554.712    554.808    554.712
 20.070    516.148    554.980    -38.832    554.482    554.883    554.482    554.578    554.482
 20.170    555.000    554.756      0.244    554.249    554.658    554.249    554.346    554.249
 20.270    585.420    554.530     30.890    554.014    554.431    554.014    554.112    554.014
 20.370    584.000    554.302     29.698    553.777    554.203    553.777    553.876    553.777
 20.470    550.000    554.073     -4.073    553.538    553.973    553.538    553.638    553.538
 20.570    530.706    553.842    -23.137    553.297    553.741    553.297    553.398    553.297
 20.670    517.094    553.610    -36.516    553.054    553.508    553.054    553.156    553.054
 20.770    539.000    553.377    -14.377    552.809    553.274    552.809    552.912    552.809
 20.870    587.029    553.143     33.886    552.562    553.038    552.562    552.667    552.562
 20.970    542.000    552.913    -10.913    552.314    552.802    552.314    552.424    552.314
 21.070    524.130    552.678    -28.548    552.063    552.564    552.063    552.177    552.063
 21.170    503.043    552.441    -49.397    551.811    552.325    551.811    551.926    551.811
 21.270    557.000    552.202      4.798    551.557    552.086    551.557    551.673    551.557
 21.370    519.000    551.963    -32.963    551.301    551.846    551.301    551.418    551.301
 21.470    538.000    551.725    -13.725    551.043    551.606    551.043    551.162    551.043
 21.570    595.573    551.488     44.085    550.784    551.368    550.784    550.904    550.784
 21.670    568.150    551.251     16.899    550.523    551.130    550.523    550.645    550.523
 21.770    522.154    551.014    -28.860    550.261    550.891    550.261    550.384    550.261
 21.870    574.000    550.779     23.221    549.997    550.655    549.997    550.122    549.997
 21.970    546.000    550.586     -4.586    549.732    550.460    549.732    549.858    549.732
 22.070    581.000    550.353     30.647    549.465    550.226    549.465    549.592    549.465
 22.170    590.920    550.119     40.801    549.197    549.990    549.197    549.326    549.197
 22.270    519.000    549.919    -30.919    548.927    549.788    548.927    549.057    548.927
 22.370    567.656    549.758     17.898    548.656    549.626    548.656    548.788    548.656
 22.470    538.000    549.534    -11.534    548.383    549.400    548.383    548.517    548.383
 22.570    566.000    549.321     16.679    548.109    549.185    548.109    548.245    548.109
 22.670    567.000    549.145     17.855    547.834    549.008    547.834    547.972    547.834
 22.770    551.000    548.931      2.069    547.558    548.791    547.558    547.698    547.558
 22.870    554.000    548.717      5.283    547.280    548.575    547.280    547.422    547.280
 22.970    526.000    548.510    -22.510    547.001    548.366    547.001    547.145    547.001
 23.070    562.000    548.312     13.688    546.721    548.167    546.721    546.867    546.721
 23.170    587.922    548.126     39.795    546.440    547.978    546.440    546.588    546.440
 23.270    568.885    547.955     20.930    546.158    547.804    546.158    546.309    546.158
 23.370    573.000    547.802     25.198    545.874    547.649    545.874    546.028    545.874
 23.470    543.000    547.673     -4.673    545.590    547.518    545.590    545.746    545.590
 23.570    518.000    547.576    -29.576    545.305    547.418    545.305    545.463    545.305
 23.670    566.000    547.522     18.478    545.018    547.361    545.018    545.180    545.018
 23.770    551.000    547.526      3.474    544.731    547.363    544.731    544.895    544.731
 23.870    565.000    547.613     17.387    544.443    547.447    544.443    544.610    544.443
 23.970    552.000    547.826      4.174    544.154    547.658    544.154    544.324    544.154
 24.070    539.160    548.257     -9.097    543.864    548.086    543.864    544.037    543.864
 24.170    591.574    549.166     42.408    543.573    548.992    543.573    543.750    543.573
 24.270    610.000    551.270     58.730    543.281    551.094    543.281    543.462    543.281
 24.370    588.000    556.206     31.794    542.989    556.029    542.989    543.174    542.989
 24.470    590.000    566.621     23.379    542.695    566.445    542.695    542.887    542.695
 24.570    618.000    584.728     33.272    542.401    584.560    542.401    542.598    542.401
 24.670    677.000    608.793     68.207    542.107    608.639    542.107    542.308    542.107
 24.770    605.000    629.639    -24.639    541.811    629.495    541.811    542.018    541.811
 24.870    641.208    633.855      7.353    541.516    633.709    541.516    541.727    541.516
 24.970    666.513    617.607     48.906    541.219    617.445    541.219    541.436    541.219
 25.070    625.000    592.525     32.475    540.922    592.339    540.922    541.144    540.922
 25.170    559.849    570.928    -11.079    540.624    570.721    540.624    540.852    540.624
 25.270    553.000    557.199     -4.199    540.326    556.975    540.326    540.561    540.326
 25.370    568.000    550.094     17.906    540.027    549.858    540.027    540.269    540.027
 25.470    550.000    546.740      3.260    539.728    546.494    539.728    539.977    539.728
 25.570    582.748    545.059     37.689    539.428    544.805    539.428    539.685    539.428
 25.670    516.000    544.055    -28.055    539.128    543.792    539.128    539.393    539.128
 25.770    581.367    543.339     38.028    538.828    543.066    538.828    539.101    538.828
 25.870    537.000    542.776     -5.776    538.527    542.494    538.527    538.810    538.527
 25.970    528.666    542.317    -13.651    538.225    542.024    538.225    538.519    538.225
 26.070    522.800    541.935    -19.135    537.924    541.631    537.924    538.229    537.924
 26.170    567.000    541.619     25.381    537.622    541.302    537.622    537.939    537.622
 26.270    521.000    541.359    -20.359    537.320    541.029    537.320    537.650    537.320
 26.370    530.183    541.151    -10.968    537.017    540.807    537.017    537.362    537.017
 26.470    502.952    540.998    -38.046    536.715    540.638    536.715    537.075    536.715
 26.570    539.426    540.932     -1.506    536.412    540.555    536.412    536.789    536.412
 26.670    566.000    540.899     25.101    536.109    540.504    536.109    536.504    536.109
 26.770    554.088    540.920     13.168    535.806    540.504    535.806    536.221    535.806
 26.870    517.000    541.020    -24.020    535.502    540.581    535.502    535.941    535.502
 26.970    584.000    541.224     42.776    535.199    540.760    535.199    535.662    535.199
 27.070    550.000    541.546      8.454    534.895    541.054    534.895    535.386    534.895
 27.170    532.000    542.028    -10.028    534.592    541.505    534.592    535.113    534.592
 27.270    554.408    542.741     11.667    534.288    542.184    534.288    534.844    534.288
 27.370    556.000    543.760     12.240    533.984    543.163    533.984    534.580    533.984
 27.470    530.000    545.215    -15.215    533.681    544.574    533.681    534.320    533.681
 27.570    601.000    547.497     53.503    533.377    546.804    533.377    534.067    533.377
 27.670    562.000    551.828     10.172    533.074    551.077    533.074    533.821    533.074
 27.770    595.000    562.123     32.877    532.770    561.302    532.770    533.583    532.770
 27.870    597.024    588.063      8.962    532.467    587.155    532.467    533.357    532.467
 27.970    659.000    645.002     13.998    532.163    643.985    532.163    533.143    532.163
 28.070    704.000    741.938    -37.938    531.860    740.787    531.860    532.945    531.860
 28.170    829.000    857.894    -28.894    531.557    856.591    531.557    532.768    531.557
 28.270    887.223    931.466    -44.242    531.254    930.010    531.254    532.616    531.254
 28.370    969.180    908.829     60.350    530.952    907.220    530.952    532.496    530.952
 28.470    799.000    816.459    -17.459    530.649    814.657    530.649    532.420    530.649
 28.570    707.000    727.734    -20.734    530.347    725.665    530.347    532.402    530.347
 28.670    716.212    693.928     22.284    530.045    691.491    530.045    532.468    530.045
 28.770    716.000    722.415     -6.415    529.744    719.473    529.744    532.663    529.744
 28.870    797.000    783.667     13.333    529.443    780.006    529.443    533.077    529.443
 28.970    877.647    824.491     53.156    529.142    819.743    529.142    533.870    529.142
 29.070    837.152    803.896     33.255    528.841    797.420    528.841    535.315    528.841
 29.170    699.795    736.070    -36.275    528.541    726.828    528.541    537.792    528.541
 29.270    628.293    663.692    -35.399    528.241    650.227    528.241    541.716    528.241
 29.370    583.332    614.079    -30.748    527.941    594.689    527.941    547.339    527.941
 29.470    582.000    590.498     -8.498    527.642    563.759    527.642    554.384    527.642
 29.570    614.000    583.432     30.568    527.344    549.282    527.344    561.493    527.344
 29.670    626.187    581.720     44.467    527.046    542.801    527.046    565.963    527.046
 29.770    611.459    578.056     33.403    526.748    539.522    526.748    565.280    526.748
 29.870    604.004    570.751     33.254    526.451    537.508    526.451    559.692    526.451
 29.970    562.000    561.855      0.145    526.154    536.120    526.154    551.888    526.154
 30.070    568.000    553.693     14.307    525.858    535.151    525.858    544.399    525.858
 30.170    539.000    547.393     -8.393    525.562    534.544    525.562    538.409    525.562
 30.270    543.533    543.208      0.325    525.267    534.373    525.267    534.100    525.267
 30.370    573.000    541.193     31.807    524.973    534.975    524.973    531.187    524.973
 30.470    589.000    541.876     47.124    524.679    537.297    524.679    529.252    524.679
 30.570    570.000    546.751     23.249    524.386    543.200    524.386    527.926    524.386
 30.670    574.000    557.867     16.133    524.093    554.985    524.093    526.954    524.093
 30.770    587.000    575.744     11.256    523.801    573.325    523.801    526.187    523.801
 30.870    640.411    596.201     44.210    523.510    594.121    523.510    525.542    523.510
 30.970    643.000    609.037     33.963    523.219    607.224    523.219    524.977    523.219
 31.070    616.000    604.992     11.008    522.930    603.404    522.930    524.469    522.930
 31.170    554.000    586.835    -32.835    522.640    585.438    522.640    524.002    522.640
 31.270    569.000    565.304      3.696    522.352    564.066    522.352    523.568    522.352
 31.370    583.356    548.361     34.995    522.064    547.254    522.064    523.160    522.064
 31.470    510.418    538.014    -27.596    521.778    537.015    521.778    522.771    521.778
 31.570    497.909    532.693    -34.785    521.491    531.783    521.491    522.399    521.491
 31.670    538.000    530.138      7.862    521.206    529.302    521.206    522.040    521.206
 31.770    534.000    528.819      5.181    520.922    528.046    520.922    521.692    520.922
 31.870    565.000    528.016     36.984    520.638    527.299    520.638    521.353    520.638
 31.970    557.000    527.461     29.539    520.355    526.792    520.355    521.023    520.355
 32.070    536.000    527.065      8.935    520.073    526.438    520.073    520.699    520.073
 32.170    537.000    526.793     10.207    519.792    526.203    519.792    520.381    519.792
 32.270    532.505    526.632      5.873    519.512    526.074    519.512    520.068    519.512
 32.370    545.000    526.581     18.419    519.233    526.052    519.233    519.760    519.233
 32.470    546.000    526.644     19.356    518.954    526.141    518.954    519.456    518.954
 32.570    521.443    526.831     -5.388    518.677    526.351    518.677    519.156    518.677
 32.670    511.000    527.167    -16.167    518.400    526.707    518.400    518.858    518.400
 32.770    510.000    527.684    -17.684    518.125    527.243    518.125    518.564    518.125
 32.870    524.000    528.433     -4.433    517.850    528.008    517.850    518.273    517.850
 32.970    482.747    529.484    -46.737    517.577    529.074    517.577    517.984    517.577
 33.070    540.000    530.947      9.053    517.304    530.551    517.304    517.698    517.304
 33.170    550.000    533.013     16.987    517.032    532.629    517.032    517.414    517.032
 33.270    535.689    536.098     -0.409    516.762    535.724    516.762    517.132    516.762
 33.370    595.000    541.289     53.711    516.492    540.925    516.492    516.852    516.492
 33.470    504.396    551.474    -47.078    516.224    551.117    516.224    516.575    516.224
 33.570    542.300    573.173    -30.873    515.956    572.820    515.956    516.299    515.956
 33.670    616.000    617.549     -1.549    515.690    617.193    515.690    516.025    515.690
 33.770    775.000    696.855     78.145    515.425    696.490    515.425    515.752    515.425
 33.870    775.692    813.269    -37.577    515.161    812.891    515.161    515.481    515.161
 33.970    908.184    943.399    -35.215    514.898    943.015    514.898    515.212    514.898
 34.070   1116.000   1032.021     83.979    514.636   1031.647    514.636    514.945    514.636
 34.170    997.000   1024.860    -27.860    514.375   1024.513    514.375    514.679    514.375
 34.270    966.000    927.048     38.952    514.115    926.731    514.115    514.415    514.115
 34.370    778.000    796.011    -18.011    513.857    795.712    513.857    514.152    513.857
 34.470    662.879    683.223    -20.344    513.600    682.933    513.600    513.891    513.600
 34.570    552.000    608.158    -56.158    513.344    607.871    513.344    513.632    513.344
 34.670    574.000    566.641      7.359    513.089    566.357    513.089    513.374    513.089
 34.770    529.000    546.208    -17.208    512.835    545.926    512.835    513.117    512.835
 34.870    503.000    536.259    -33.259    512.582    535.979    512.582    512.862    512.582
 34.970    558.025    530.826     27.199    512.331    530.548    512.331    512.608    512.331
 35.070    556.311    527.315     28.996    512.081    527.039    512.081    512.356    512.081
 35.170    545.063    524.750     20.313    511.832    524.476    511.832    512.105    511.832
 35.270    526.000    522.753      3.247    511.585    522.481    511.585    511.856    511.585
 35.370    543.000    521.144     21.856    511.338    520.874    511.338    511.608    511.338
 35.470    511.000    519.818     -8.818    511.093    519.549    511.093    511.362    511.093
 35.570    530.000    518.703     11.297    510.850    518.436    510.850    511.117    510.850
 35.670    475.464    517.751    -42.287    510.607    517.485    510.607    510.873    510.607
 35.770    516.806    516.925     -0.120    510.366    516.660    510.366    510.631    510.366
 35.870    553.000    516.200     36.800    510.126    515.936    510.126    510.391    510.126
 35.970    487.646    515.557    -27.911    509.888    515.293    509.888    510.151    509.888
 36.070    514.000    514.980     -0.980    509.650    514.716    509.650    509.914    509.650
 36.170    518.000    514.459      3.541    509.415    514.196    509.415    509.678    509.415
 36.270    555.014    513.986     41.028    509.180    513.723    509.180    509.443    509.180
 36.370    466.651    513.555    -46.904    508.947    513.293    508.947    509.210    508.947
 36.470    543.786    513.163     30.624    508.715    512.900    508.715    508.978    508.715
 36.570    527.000    512.806     14.194    508.485    512.543    508.485    508.748    508.485
 36.670    464.547    512.485    -47.938    508.256    512.221    508.256    508.519    508.256
 36.770    468.000    512.202    -44.202    508.028    511.939    508.028    508.291    508.028
 36.870    510.294    511.970     -1.677    507.802    511.707    507.802    508.066    507.802
 36.970    514.000    511.821      2.179    507.577    511.557    507.577    507.841    507.577
 37.070    523.000    511.838     11.162    507.353    511.573    507.353    507.618    507.353
 37.170    550.163    512.193     37.969    507.131    511.928    507.131    507.397    507.131
 37.270    532.000    513.178     18.822    506.911    512.912    506.911    507.177    506.911
 37.370    481.911    515.120    -33.209    506.692    514.853    506.692    506.959    506.692
 37.470    560.817    518.156     42.661    506.474    517.889    506.474    506.742    506.474
 37.570    482.932    521.890    -38.958    506.258    521.622    506.258    506.527    506.258
 37.670    536.303    525.160     11.143    506.043    524.893    506.043    506.313    506.043
 37.770    574.273    526.356     47.917    505.829    526.089    505.829    506.101    505.829
 37.870    550.875    524.740     26.135    505.617    524.474    505.617    505.891    505.617
 37.970    500.000    521.317    -21.317    505.407    521.052    505.407    505.682    505.407
 38.070    518.000    517.540      0.460    505.198    517.274    505.198    505.474    505.198
 38.170    550.053    514.242     35.811    504.991    513.974    504.991    505.268    504.991
 38.270    523.000    511.723     11.277    504.785    511.452    504.785    505.064    504.785
 38.370    509.000    509.972     -0.972    504.580    509.696    504.580    504.861    504.580
 38.470    506.000    508.815     -2.815    504.377    508.535    504.377    504.660    504.377
 38.570    550.094    508.055     42.039    504.176    507.772    504.176    504.460    504.176
 38.670    514.262    507.538      6.724    503.976    507.252    503.976    504.262    503.976
 38.770    530.118    507.157     22.961    503.777    506.869    503.777    504.066    503.777
 38.870    512.000    506.851      5.149    503.580    506.561    503.580    503.871    503.580
 38.970    542.858    506.586     36.272    503.385    506.293    503.385    503.678    503.385
 39.070    517.795    506.345     11.450    503.191    506.050    503.191    503.486    503.191
 39.170    489.000    506.121    -17.121    502.998    505.824    502.998    503.296    502.998
 39.270    479.000    505.911    -26.911    502.808    505.611    502.808    503.108    502.808
 39.370    496.000    505.711     -9.711    502.618    505.409    502.618    502.921    502.618
 39.470    485.000    505.522    -20.522    502.431    505.217    502.431    502.736    502.431
 39.570    504.000    505.341     -1.341    502.245    505.033    502.245    502.553    502.245
 39.670    538.446    505.168     33.277    502.060    504.858    502.060    502.371    502.060
 39.770    466.000    505.004    -39.004    501.877    504.690    501.877    502.191    501.877
 39.870    462.000    504.847    -42.847    501.695    504.530    501.695    502.012    501.695
 39.970    501.000    504.698     -3.698    501.516    504.378    501.516    501.836    501.516
 40.070    518.092    504.556     13.536    501.337    504.233    501.337    501.661    501.337
 40.170    503.000    504.424     -1.424    501.161    504.097    501.161    501.487    501.161
 40.270    474.000    504.299    -30.299    500.985    503.970    500.985    501.315    500.985
 40.370    520.000    504.185     15.815    500.812    503.851    500.812    501.145    500.812
 40.470    490.000    504.080    -14.080    500.640    503.743    500.640    500.977    500.640
 40.570    488.000    503.987    -15.987    500.470    503.646    500.470    500.811    500.470
 40.670    535.211    503.907     31.304    500.301    503.562    500.301    500.646    500.301
 40.770    507.807    503.842      3.966    500.134    503.493    500.134    500.483    500.134
 40.870    457.000    503.793    -46.793    499.968    503.441    499.968    500.321    499.968
 40.970    444.000    503.765    -59.765    499.804    503.409    499.804    500.161    499.804
 41.070    542.403    503.762     38.641    499.642    503.400    499.642    500.004    499.642
 41.170    494.000    503.787     -9.787    499.481    503.421    499.481    499.847    499.481
 41.270    488.000    503.849    -15.849    499.322    503.478    499.322    499.693    499.322
 41.370    542.291    503.956     38.335    499.164    503.581    499.164    499.540    499.164
 41.470    475.000    504.122    -29.122    499.008    503.741    499.008    499.389    499.008
 41.570    479.000    504.365    -25.365    498.854    503.980    498.854    499.240    498.854
 41.670    472.797    504.719    -31.922    498.701    504.328    498.701    499.093    498.701
 41.770    516.000    505.249     10.751    498.550    504.853    498.550    498.948    498.550
 41.870    513.000    506.111      6.889    498.401    505.710    498.401    498.804    498.401
 41.970    532.000    507.671     24.329    498.253    507.265    498.253    498.662    498.253
 42.070    492.764    510.707    -17.943    498.107    510.295    498.107    498.522    498.107
 42.170    521.000    516.596      4.404    497.962    516.181    497.962    498.384    497.962
 42.270    481.223    527.223    -46.000    497.819    526.806    497.819    498.248    497.819
 42.370    553.000    544.218      8.782    497.678    543.801    497.678    498.113    497.678
 42.470    530.000    567.463    -37.463    497.538    567.051    497.538    497.981    497.538
 42.570    562.105    593.372    -31.268    497.400    592.967    497.400    497.850    497.400
 42.670    637.306    614.103     23.203    497.264    613.704    497.264    497.721    497.264
 42.770    620.025    620.130     -0.104    497.129    619.728    497.129    497.594    497.129
 42.870    625.000    607.851     17.149    496.996    607.437    496.996    497.469    496.996
 42.970    546.103    583.829    -37.726    496.864    583.395    496.864    497.347    496.864
 43.070    514.000    557.878    -43.878    496.734    557.421    496.734    497.226    496.734
 43.170    500.000    536.438    -36.438    496.606    535.959    496.606    497.107    496.606
 43.270    485.000    521.668    -36.668    496.480    521.170    496.480    496.990    496.480
 43.370    523.000    512.831     10.169    496.355    512.318    496.355    496.875    496.355
 43.470    472.000    508.037    -36.037    496.231    507.511    496.231    496.762    496.231
 43.570    483.000    505.520    -22.520    496.110    504.982    496.110    496.651    496.110
 43.670    509.000    504.124      4.876    495.990    503.573    495.990    496.542    495.990
 43.770    485.000    503.249    -18.249    495.871    502.686    495.871    496.436    495.871
 43.870    504.711    502.631      2.080    495.754    502.055    495.754    496.332    495.754
 43.970    482.000    502.159    -20.159    495.639    501.570    495.639    496.229    495.639
 44.070    502.359    501.784      0.575    495.526    501.181    495.526    496.129    495.526
 44.170    481.000    501.481    -20.481    495.414    500.864    495.414    496.032    495.414
 44.270    490.000    501.235    -11.235    495.303    500.602    495.303    495.937    495.303
 44.370    514.975    501.032     13.943    495.195    500.384    495.195    495.844    495.195
 44.470    525.000    500.867     24.133    495.088    500.202    495.088    495.753    495.088
 44.570    458.877    500.733    -41.855    494.982    500.050    494.982    495.665    494.982
 44.670    542.769    500.625     42.144    494.879    499.924    494.879    495.580    494.879
 44.770    526.681    500.540     26.141    494.777    499.820    494.777    495.497    494.777
 44.870    541.188    500.477     40.710    494.676    499.736    494.676    495.417    494.676
 44.970    510.000    500.433      9.567    494.577    499.671    494.577    495.340    494.577
 45.070    502.000    500.408      1.592    494.480    499.622    494.480    495.265    494.480
 45.170    485.000    500.400    -15.400    494.384    499.590    494.384    495.194    494.384
 45.270    531.697    500.409     31.288    494.290    499.573    494.290    495.126    494.290
 45.370    515.000    500.435     14.565    494.198    499.572    494.198    495.061    494.198
 45.470    496.000    500.479     -4.479    494.107    499.587    494.107    494.999    494.107
 45.570    472.113    500.541    -28.428    494.018    499.618    494.018    494.941    494.018
 45.670    527.000    500.622     26.378    493.930    499.666    493.930    494.887    493.930
 45.770    492.621    500.723     -8.102    493.844    499.731    493.844    494.836    493.844
 45.870    525.000    500.846     24.154    493.760    499.815    493.760    494.790    493.760
 45.970    504.925    500.993      3.932    493.677    499.921    493.677    494.749    493.677
 46.070    478.000    501.165    -23.165    493.596    500.049    493.596    494.712    493.596
 46.170    529.000    501.368     27.632    493.516    500.204    493.516    494.680    493.516
 46.270    530.000    501.604     28.396    493.439    500.388    493.439    494.654    493.439
 46.370    494.000    501.879     -7.879    493.362    500.607    493.362    494.633    493.362
 46.470    518.000    502.199     15.801    493.287    500.866    493.287    494.620    493.287
 46.570    456.665    502.573    -45.908    493.214    501.173    493.214    494.613    493.214
 46.670    456.788    503.014    -46.227    493.143    501.541    493.143    494.614    493.143
 46.770    508.000    503.543      4.457    493.073    501.990    493.073    494.624    493.073
 46.870    483.410    504.198    -20.788    493.004    502.556    493.004    494.644    493.004
 46.970    499.000    505.063     -6.063    492.937    503.324    492.937    494.675    492.937
 47.070    474.000    506.319    -32.319    492.872    504.471    492.872    494.717    492.872
 47.170    505.000    508.326     -3.326    492.808    506.356    492.808    494.774    492.808
 47.270    508.610    511.709     -3.099    492.746    509.601    492.746    494.847    492.746
 47.370    550.110    517.353     32.757    492.685    515.089    492.685    494.938    492.685
 47.470    531.000    526.171      4.829    492.626    523.729    492.626    495.050    492.626
 47.570    569.238    538.596     30.642    492.569    535.951    492.569    495.187    492.569
 47.670    574.241    553.879     20.362    492.513    551.000    492.513    495.354    492.513
 47.770    545.527    569.493    -23.966    492.458    566.347    492.458    495.555    492.458
 47.870    612.000    581.163     30.837    492.405    577.714    492.405    495.799    492.405
 47.970    609.000    584.529     24.471    492.354    580.734    492.354    496.094    492.354
 48.070    562.000    578.453    -16.453    492.304    574.256    492.304    496.453    492.304
 48.170    533.270    566.237    -32.967    492.256    561.564    492.256    496.891    492.256
 48.270    528.000    552.699    -24.699    492.209    547.445    492.209    497.435    492.209
 48.370    527.000    541.350    -14.350    492.164    535.370    492.164    498.126    492.164
 48.470    554.000    533.812     20.188    492.120    526.887    492.120    499.034    492.120
 48.570    533.556    530.293      3.263    492.078    522.074    492.078    500.289    492.078
 48.670    551.693    530.300     21.393    492.037    520.214    492.037    502.118    492.037
 48.770    495.000    533.340    -38.340    491.998    520.433    491.998    504.901    491.998
 48.870    540.803    539.331      1.472    491.960    522.083    491.960    509.204    491.960
 48.970    554.000    548.694      5.306    491.924    524.839    491.924    515.775    491.924
 49.070    529.000    562.214    -33.214    491.889    528.687    491.889    525.412    491.889
 49.170    569.000    580.823    -11.823    491.856    533.961    491.856    538.712    491.856
 49.270    657.000    605.535     51.465    491.824    541.673    491.824    555.679    491.824
 49.370    624.000    637.964    -13.964    491.794    554.516    491.794    575.232    491.794
 49.470    686.985    681.961      5.024    491.765    579.042    491.765    594.669    491.765
 49.570    767.000    746.767     20.233    491.737    629.058    491.737    609.422    491.737
 49.670    880.000    851.169     28.831    491.711    728.459    491.711    614.376    491.711
 49.770   1006.996   1024.590    -17.594    491.687    908.813    491.687    607.386    491.687
 49.870   1255.000   1295.902    -40.902    491.664   1196.109    491.664    591.334    491.664
 49.970   1648.616   1666.750    -18.134    491.642   1586.717    491.642    571.509    491.642
 50.070   2099.000   2084.245     14.755    491.622   2023.468    491.622    552.215    491.622
 50.170   2480.000   2433.872     46.128    491.603   2389.497    491.603    535.826    491.603
 50.270   2501.000   2574.074    -73.074    491.586   2542.420    491.586    523.180    491.586
 50.370   2421.000   2431.437    -10.437    491.570   2408.941    491.570    514.130    491.570
 50.470   2076.000   2071.915      4.085    491.555   2055.617    491.555    508.011    491.555
 50.570   1574.000   1636.141    -62.141    491.542   1623.860    491.542    504.015    491.542
 50.670   1220.000   1243.771    -23.771    491.530   1234.055    491.530    501.422    491.530
 50.770    944.962    955.700    -10.738    491.520    947.658    491.520    499.697    491.520
 50.870    743.000    777.849    -34.849    491.511    770.959    491.511    498.495    491.511
 50.970    648.070    684.053    -35.983    491.503    678.012    491.503    497.608    491.503
 51.070    645.000    640.283      4.717    491.497    634.905    491.497    496.923    491.497
 51.170    644.000    619.094     24.906    491.492    614.251    491.492    496.374    491.492
 51.270    650.000    604.186     45.814    491.488    599.783    491.488    495.925    491.488
 51.370    563.000    589.292    -26.292    491.486    585.253    491.486    495.553    491.486
 51.470    585.000    574.097     10.903    491.485    570.362    491.485    495.242    491.485
 51.570    587.774    560.165     27.610    491.486    556.685    491.486    494.981    491.486
 51.670    594.098    548.804     45.294    491.488    545.542    491.488    494.761    491.488
 51.770    571.000    540.505     30.495    491.491    537.428    491.491    494.576    491.491
 51.870    564.000    535.044     28.956    491.495    532.125    491.495    494.419    491.495
 51.970    516.000    531.825    -15.825    491.501    529.043    491.501    494.288    491.501
 52.070    561.633    530.220     31.413    491.508    527.554    491.508    494.177    491.508
 52.170    492.000    529.774    -37.774    491.516    527.208    491.516    494.085    491.516
 52.270    597.000    530.276     66.724    491.526    527.794    491.526    494.010    491.526
 52.370    540.000    531.759      8.241    491.537    529.349    491.537    493.948    491.537
 52.470    543.000    534.569      8.431    491.549    532.219    491.549    493.900    491.549
 52.570    533.128    539.578     -6.450    491.563    537.278    491.563    493.863    491.563
 52.670    577.871    548.595     29.276    491.577    546.336    491.577    493.836    491.577
 52.770    530.564    564.897    -34.333    491.593    562.670    491.593    493.820    491.593
 52.870    612.994    593.570     19.424    491.611    591.367    491.611    493.812    491.611
 52.970    666.000    641.076     24.924    491.629    638.889    491.629    493.812    491.629
 53.070    757.000    713.409     43.591    491.649    711.231    491.649    493.820    491.649
 53.170    916.000    812.761    103.239    491.670    810.587    491.670    493.836    491.670
 53.270    953.000    933.508     19.492    491.692    931.333    491.692    493.859    491.692
 53.370   1122.000   1058.967     63.033    491.715   1056.788    491.715    493.888    491.715
 53.470   1136.000   1160.754    -24.754    491.739   1158.571    491.739    493.924    491.739
 53.570   1217.870   1205.818     12.052    491.765   1203.629    491.765    493.967    491.765
 53.670   1114.000   1176.219    -62.219    491.792   1174.019    491.792    494.016    491.792
 53.770   1101.017   1084.495     16.521    491.820   1082.275    491.820    494.072    491.820
 53.870    942.000    962.211    -20.211    491.849    959.959    491.849    494.133    491.849
 53.970    832.000    839.451     -7.451    491.880    837.157    491.880    494.202    491.880
 54.070    727.000    735.426     -8.426    491.911    733.083    491.911    494.277    491.911
 54.170    635.687    657.908    -22.221    491.944    655.510    491.944    494.358    491.944
 54.270    642.000    606.067     35.933    491.978    603.608    491.978    494.447    491.978
 54.370    575.000    574.436      0.564    492.013    571.913    492.013    494.543    492.013
 54.470    557.345    556.487      0.858    492.049    553.893    492.049    494.646    492.049
 54.570    557.000    546.783     10.217    492.086    544.114    492.086    494.757    492.086
 54.670    503.505    541.672    -38.167    492.124    538.921    492.124    494.876    492.124
 54.770    571.000    539.064     31.936    492.163    536.223    492.163    495.004    492.163
 54.870    569.000    537.900     31.100    492.204    534.962    492.204    495.142    492.204
 54.970    521.000    537.698    -16.698    492.245    534.655    492.245    495.289    492.245
 55.070    571.000    538.259     32.741    492.288    535.100    492.288    495.447    492.288
 55.170    534.000    539.515     -5.515    492.331    536.230    492.331    495.616    492.331
 55.270    553.000    541.473     11.527    492.376    538.051    492.376    495.798    492.376
 55.370    548.069    544.190      3.879    492.421    540.617    492.421    495.994    492.421
 55.470    527.000    547.781    -20.781    492.468    544.044    492.468    496.204    492.468
 55.570    551.000    552.460     -1.460    492.516    548.544    492.516    496.431    492.516
 55.670    535.000    558.648    -23.648    492.565    554.536    492.565    496.676    492.565
 55.770    548.817    567.237    -18.420    492.614    562.909    492.614    496.940    492.614
 55.870    560.856    580.158    -19.302    492.665    575.591    492.665    497.227    492.665
 55.970    598.000    601.404     -3.404    492.717    596.573    492.717    497.539    492.717
 56.070    598.038    638.525    -40.487    492.769    633.400    492.769    497.878    492.769
 56.170    687.001    704.090    -17.089    492.823    698.633    492.823    498.249    492.823
 56.270    829.000    815.847     13.153    492.878    810.019    492.878    498.656    492.878
 56.370    955.000    993.720    -38.720    492.933    987.478    492.933    499.103    492.933
 56.470   1238.154   1252.283    -14.129    492.990   1245.584    492.990    499.596    492.990
 56.570   1524.137   1589.597    -65.459    493.047   1582.402    493.047    500.143    493.047
 56.670   2063.011   1976.102     86.909    493.105   1968.375    493.105    500.752    493.105
 56.770   2403.493   2348.697     54.796    493.165   2340.402    493.165    501.434    493.165
 56.870   2637.000   2616.939     20.061    493.225   2608.025    493.225    502.199    493.225
 56.970   2608.000   2693.821    -85.821    493.286   2684.197    493.286    503.065    493.286
 57.070   2648.007   2549.980     98.026    493.348   2539.500    493.348    504.049    493.348
 57.170   2269.000   2238.667     30.333    493.410   2227.141    493.410    505.177    493.410
 57.270   1941.529   1854.588     86.942    493.474   1841.802    493.474    506.481    493.474
 57.370   1505.000   1481.830     23.170    493.539   1467.543    493.539    508.004    493.539
 57.470   1205.351   1172.491     32.860    493.604   1156.410    493.604    509.814    493.604
 57.570    944.925    946.107     -1.182    493.670    927.843    493.670    512.019    493.670
 57.670    819.000    798.058     20.942    493.737    777.044    493.737    514.802    493.737
 57.770    691.148    711.421    -20.273    493.805    686.780    493.805    518.474    493.805
 57.870    688.011    667.549     20.462    493.873    637.876    493.873    523.560    493.873
 57.970    723.000    652.452     70.548    493.943    615.502    493.943    530.896    493.943
 58.070    690.547    658.839     31.708    494.013    611.134    494.013    541.714    494.013
 58.170    704.000    685.335     18.665    494.084    621.746    494.084    557.660    494.084
 58.270    746.000    734.315     11.685    494.156    647.782    494.156    580.666    494.156
 58.370    784.000    809.259    -25.259    494.228    690.843    494.228    612.611    494.228
 58.470    947.000    912.019     34.981    494.301    751.524    494.301    654.751    494.301
 58.570   1035.000   1040.365     -5.365    494.375    827.697    494.375    706.989    494.375
 58.670   1207.000   1186.016     20.984    494.450    913.373    494.450    767.036    494.450
 58.770   1291.013   1334.250    -43.237    494.526    999.176    494.526    829.546    494.526
 58.870   1440.298   1466.508    -26.209    494.602   1075.572    494.602    885.497    494.602
 58.970   1644.396   1563.966     80.430    494.678   1135.600    494.678    923.021    494.678
 59.070   1609.000   1609.795     -0.795    494.756   1172.940    494.756    931.608    494.756
 59.170   1673.000   1594.263     78.737    494.834   1180.663    494.834    908.450    494.834
 59.270   1572.304   1522.710     49.594    494.913   1157.025    494.913    860.627    494.913
 59.370   1400.000   1416.400    -16.400    494.992   1111.234    494.992    800.185    494.992
 59.470   1321.000   1302.356     18.644    495.073   1059.417    495.073    738.021    495.073
 59.570   1202.000   1203.683     -1.683    495.153   1017.435    495.153    681.379    495.153
 59.670   1169.000   1137.539     31.461    495.235    998.697    495.235    634.014    495.235
 59.770   1096.000   1116.450    -20.450    495.317   1014.610    495.317    597.043    495.317
 59.870   1139.776   1147.101     -7.325    495.399   1072.528    495.399    569.802    495.399
 59.970   1169.302   1226.233    -56.931    495.482   1170.846    495.482    550.645    495.482
 60.070   1379.000   1337.280     41.720    495.566   1294.976    495.566    537.602    495.566
 60.170   1466.000   1450.285     15.715    495.651   1416.801    495.651    528.845    495.651
 60.270   1517.209   1526.757     -9.549    495.735   1499.293    495.735    522.921    495.735
 60.370   1556.118   1532.654     23.463    495.821   1509.440    495.821    518.797    495.821
 60.470   1455.536   1456.877     -1.341    495.907   1436.798    495.907    515.803    495.907
 60.570   1306.142   1318.107    -11.965    495.993   1300.441    495.993    513.533    495.993
 60.670   1195.000   1150.722     44.278    496.080   1134.970    496.080    511.752    496.080
 60.770    965.000    986.952    -21.952    496.168    972.744    496.168    510.329    496.168
 60.870    885.000    848.339     36.661    496.256    835.377    496.256    509.190    496.256
 60.970    756.049    744.431     11.619    496.345    732.458    496.345    508.299    496.345
 61.070    704.000    675.260     28.740    496.434    664.040    496.434    507.639    496.434
 61.170    633.107    635.719     -2.612    496.523    625.020    496.523    507.205    496.523
 61.270    625.000    620.013      4.987    496.613    609.609    496.613    506.995    496.613
 61.370    614.942    624.819     -9.877    496.703    614.487    496.703    507.004    496.703
 61.470    654.000    650.573      3.427    496.794    640.107    496.794    507.213    496.794
 61.570    680.000    700.932    -20.932    496.885    690.166    496.885    507.582    496.885
 61.670    789.000    780.587      8.413    496.977    769.430    496.977    508.037    496.977
 61.770    830.505    891.823    -61.318    497.069    880.297    497.069    508.465    497.069
 61.870    971.990   1030.645    -58.654    497.162   1018.925    497.162    508.720    497.162
 61.970   1054.000   1183.741   -129.741    497.254   1172.152    497.254    508.661    497.254
 62.070   1275.000   1327.551    -52.551    497.348   1316.484    497.348    508.229    497.348
 62.170   1358.000   1430.935    -72.935    497.441   1420.722    497.441    507.484    497.441
 62.270   1527.820   1464.563     63.257    497.535   1455.402    497.535    506.562    497.535
 62.370   1318.000   1416.911    -98.911    497.629   1408.849    497.629    505.599    497.629
 62.470   1308.000   1302.772      5.228    497.724   1295.749    497.724    504.693    497.724
 62.570   1107.000   1152.850    -45.850    497.819   1146.739    497.819    503.903    497.819
 62.670    998.000    997.759      0.241    497.914    992.411    497.914    503.254    497.914
 62.770    849.000    859.582    -10.582    498.010    854.845    498.010    502.746    498.010
 62.870    725.000    749.893    -24.893    498.105    745.635    498.105    502.365    498.105
 62.970    662.000    671.028     -9.028    498.201    667.140    498.201    502.090    498.201
 63.070    612.015    619.103     -7.088    498.298    615.503    498.298    501.896    498.298
 63.170    586.365    587.488     -1.123    498.394    584.117    498.394    501.762    498.394
 63.270    576.000    569.560      6.440    498.491    566.375    498.491    501.671    498.491
 63.370    594.671    560.199     34.472    498.588    557.172    498.588    501.609    498.588
 63.470    571.000    556.214     14.786    498.685    553.322    498.685    501.570    498.685
 63.570    581.590    556.165     25.425    498.783    553.392    498.783    501.547    498.783
 63.670    560.000    560.040     -0.040    498.881    557.371    498.881    501.537    498.881
 63.770    581.000    568.962     12.038    498.979    566.386    498.979    501.537    498.979
 63.870    619.000    584.941     34.059    499.077    582.445    499.077    501.547    499.077
 63.970    629.000    610.481     18.519    499.175    608.055    499.175    501.563    499.175
 64.070    665.000    647.939     17.061    499.273    645.573    499.273    501.587    499.273
 64.170    661.035    698.565    -37.531    499.372    696.249    499.372    501.617    499.372
 64.270    774.000    761.390     12.610    499.470    759.117    499.470    501.652    499.470
 64.370    834.054    832.230      1.824    499.569    829.995    499.569    501.693    499.569
 64.470    885.470    903.148    -17.678    499.668    900.952    499.668    501.738    499.668
 64.570    905.000    963.017    -58.017    499.767    960.865    499.767    501.787    499.767
 64.670   1042.000   1000.251     41.749    499.866    998.149    499.866    501.840    499.866
 64.770   1049.000   1007.542     41.458    499.965   1005.498    499.965    501.897    499.965
 64.870   1024.000    985.048     38.952    500.064    983.065    500.064    501.957    500.064
 64.970    985.000    939.392     45.608    500.164    937.472    500.164    502.020    500.164
 65.070    813.000    880.595    -67.595    500.263    878.735    500.263    502.086    500.263
 65.170    861.000    818.782     42.218    500.362    816.976    500.362    502.155    500.362
 65.270    705.166    761.507    -56.341    500.462    759.747    500.462    502.227    500.462
 65.370    755.000    712.639     42.361    500.561    710.916    500.561    502.301    500.561
 65.470    683.000    672.906     10.094    500.661    671.212    500.661    502.377    500.661
 65.570    638.635    641.341     -2.706    500.760    639.669    500.760    502.456    500.760
 65.670    625.102    616.565      8.537    500.859    614.910    500.859    502.536    500.859
 65.770    559.000    597.343    -38.343    500.959    595.699    500.959    502.619    500.959
 65.870    555.000    582.655    -27.655    501.058    581.021    501.058    502.704    501.058
 65.970    530.936    571.699    -40.763    501.157    570.073    501.157    502.791    501.157
 66.070    579.927    563.860     16.067    501.256    562.241    501.256    502.879    501.256
 66.170    517.000    558.650    -41.650    501.356    557.037    501.356    502.970    501.356
 66.270    562.000    555.658      6.342    501.455    554.051    501.455    503.062    501.455
 66.370    594.000    554.533     39.467    501.554    552.931    501.554    503.156    501.554
 66.470    535.000    555.000    -20.000    501.652    553.401    501.652    503.251    501.652
 66.570    534.000    556.918    -22.918    501.751    555.320    501.751    503.349    501.751
 66.670    544.203    560.361    -16.158    501.850    558.763    501.850    503.448    501.850
 66.770    580.000    565.759     14.241    501.948    564.159    501.948    503.548    501.948
 66.870    545.000    574.140    -29.140    502.047    572.535    502.047    503.651    502.047
 66.970    632.537    587.511     45.027    502.145    585.900    502.145    503.755    502.145
 67.070    628.000    609.373     18.627    502.243    607.753    502.243    503.861    502.243
 67.170    654.041    645.251      8.790    502.340    643.618    502.340    503.969    502.340
 67.270    670.000    702.949    -32.949    502.438    701.299    502.438    504.078    502.438
 67.370    748.000    792.115    -44.115    502.536    790.446    502.536    504.190    502.536
 67.470   1002.000    922.659     79.341    502.633    920.967    502.633    504.304    502.633
 67.570   1114.076   1101.845     12.231    502.730   1100.131    502.730    504.419    502.730
 67.670   1390.912   1330.433     60.480    502.827   1328.700    502.827    504.537    502.827
 67.770   1618.299   1598.810     19.489    502.923   1597.067    502.923    504.657    502.923
 67.870   1830.000   1884.329    -54.329    503.019   1882.587    503.019    504.779    503.019
 67.970   2165.146   2150.917     14.229    503.115   2149.189    503.115    504.904    503.115
 68.070   2432.953   2352.701     80.253    503.211   2351.000    503.211    505.031    503.211
 68.170   2452.000   2445.373      6.627    503.306   2443.705    503.306    505.162    503.306
 68.270   2393.000   2405.440    -12.440    503.402   2403.795    503.402    505.295    503.402
 68.370   2294.000   2243.682     50.318    503.496   2242.034    503.496    505.431    503.496
 68.470   1984.000   1998.364    -14.364    503.591   1996.679    503.591    505.572    503.591
 68.570   1787.939   1716.304     71.635    503.685   1714.550    503.685    505.715    503.685
 68.670   1414.225   1438.160    -23.935    503.779   1436.314    503.779    505.863    503.779
 68.770   1211.000   1192.122     18.878    503.873   1190.171    503.873    506.016    503.873
 68.870    975.000    992.883    -17.883    503.966    990.821    503.966    506.173    503.966
 68.970    859.000    843.491     15.509    504.059    841.318    504.059    506.336    504.059
 69.070    757.000    738.870     18.130    504.151    736.587    504.151    506.504    504.151
 69.170    740.000    669.810     70.190    504.243    667.420    504.243    506.679    504.243
 69.270    655.155    626.331     28.824    504.335    623.834    504.335    506.861    504.335
 69.370    583.172    599.786    -16.614    504.426    597.179    504.426    507.051    504.426
 69.470    558.740    583.719    -24.979    504.517    580.998    504.517    507.250    504.517
 69.570    593.000    573.833     19.167    504.607    570.990    504.607    507.458    504.607
 69.670    540.908    567.522    -26.614    504.697    564.547    504.697    507.677    504.697
 69.770    582.541    563.325     19.215    504.786    560.207    504.786    507.909    504.786
 69.870    566.000    560.472      5.528    504.875    557.196    504.875    508.154    504.875
 69.970    601.212    558.569     42.643    504.964    555.120    504.964    508.415    504.964
 70.070    557.728    557.427      0.301    505.052    553.787    505.052    508.693    505.052
 70.170    617.000    556.959     60.041    505.140    553.108    505.140    508.991    505.140
 70.270    578.000    557.146     20.854    505.227    553.060    505.227    509.312    505.227
 70.370    520.000    558.032    -38.032    505.313    553.684    505.313    509.659    505.313
 70.470    535.000    559.747    -24.747    505.399    555.107    505.399    510.036    505.399
 70.570    542.000    562.575    -20.575    505.485    557.607    505.485    510.449    505.485
 70.670    552.122    567.062    -14.940    505.570    561.724    505.570    510.901    505.570
 70.770    529.554    574.192    -44.638    505.654    568.435    505.654    511.402    505.654
 70.870    591.089    585.631      5.458    505.738    579.395    505.738    511.961    505.738
 70.970    636.699    603.994     32.704    505.821    597.206    505.821    512.590    505.821
 71.070    638.537    633.047      5.490    505.904    625.613    505.904    513.308    505.904
 71.170    713.633    677.694     35.939    505.986    669.491    505.986    514.144    505.986
 71.270    760.000    743.559     16.441    506.068    734.415    506.068    515.145    506.068
 71.370    793.342    835.981    -42.639    506.148    825.647    506.148    516.390    506.148
 71.470    934.000    958.477    -24.477    506.229    946.574    506.229    518.007    506.229
 71.570   1041.466   1110.853    -69.387    506.308   1096.797    506.308    520.205    506.308
 71.670   1187.000   1287.431   -100.431    506.387   1270.324    506.387    523.301    506.387
 71.770   1530.000   1475.885     54.115    506.466   1454.372    506.466    527.758    506.466
 71.870   1689.389   1657.110     32.279    506.543   1629.216    506.543    534.201    506.543
 71.970   1846.000   1806.841     39.159    506.620   1769.825    506.620    543.403    506.620
 72.070   1852.620   1900.452    -47.832    506.697   1850.716    506.697    556.221    506.697
 72.170   1836.197   1921.465    -85.268    506.773   1854.599    506.773    573.464    506.773
 72.270   1827.000   1869.517    -42.517    506.848   1780.540    506.848    595.694    506.848
 72.370   1748.629   1760.638    -12.009    506.922   1644.485    506.922    622.986    506.922
 72.470   1680.000   1619.310     60.690    506.995   1471.570    506.995    654.680    506.995
 72.570   1397.504   1469.306    -71.803    507.068   1287.168    507.068    689.175    507.068
 72.670   1328.000   1328.270     -0.270    507.140   1111.618    507.140    723.777    507.140
 72.770   1253.362   1205.848     47.514    507.212    958.369    507.212    754.684    507.212
 72.870   1157.813   1104.076     53.737    507.282    834.010    507.282    777.345    507.282
 72.970    888.000   1019.601   -131.601    507.352    739.398    507.352    787.554    507.352
 73.070    897.821    947.162    -49.341    507.421    671.431    507.421    783.151    507.421
 73.170    885.751    882.620      3.131    507.490    624.972    507.490    765.137    507.490
 73.270    767.000    824.013    -57.013    507.557    594.455    507.557    737.115    507.557
 73.370    670.000    770.972   -100.972    507.624    574.948    507.624    703.649    507.624
 73.470    752.309    723.835     28.475    507.690    562.631    507.690    668.894    507.690
 73.570    657.866    683.089    -25.223    507.755    554.855    507.755    635.991    507.755
 73.670    593.000    649.089    -56.089    507.819    549.945    507.819    606.966    507.819
 73.770    582.308    621.883    -39.575    507.883    546.938    507.883    582.832    507.883
 73.870    570.488    601.147    -30.659    507.945    545.321    507.945    563.779    507.945
 73.970    543.086    586.221    -43.135    508.007    544.827    508.007    549.411    508.007
 74.070    580.000    576.208      3.792    508.068    545.296    508.068    538.993    508.068
 74.170    561.000    570.096     -9.096    508.128    546.572    508.128    531.671    508.128
 74.270    552.000    566.859    -14.859    508.187    548.443    508.187    526.627    508.187
 74.370    546.790    565.513    -18.723    508.246    550.612    508.246    523.176    508.246
 74.470    612.000    565.145     46.855    508.303    552.692    508.303    520.790    508.303
 74.570    595.773    564.934     30.839    508.359    554.234    508.359    519.098    508.359
 74.670    600.000    564.208     35.792    508.415    554.813    508.415    517.852    508.415
 74.770    636.000    562.552     73.448    508.470    554.170    508.470    516.894    508.470
 74.870    604.000    559.891     44.109    508.524    552.326    508.524    516.128    508.524
 74.970    529.364    556.467    -27.103    508.576    549.582    508.576    515.497    508.576
 75.070    619.000    552.706     66.294    508.628    546.400    508.628    514.964    508.628
 75.170    598.000    549.094     48.906    508.679    543.289    508.679    514.509    508.679
 75.270    555.568    546.106      9.462    508.729    540.739    508.729    514.115    508.729
 75.370    536.000    544.203     -8.203    508.778    539.222    508.778    513.772    508.778
 75.470    552.000    543.846      8.154    508.826    539.207    508.826    513.471    508.826
 75.570    630.000    545.519     84.481    508.873    541.184    508.873    513.208    508.873
 75.670    568.000    549.733     18.267    508.919    545.670    508.919    512.976    508.919
 75.770    573.000    556.997     16.003    508.964    553.178    508.964    512.771    508.964
 75.870    581.000    567.731     13.269    509.009    564.131    509.009    512.589    509.009
 75.970    576.000    582.134     -6.134    509.052    578.730    509.052    512.428    509.052
 76.070    598.000    600.017     -2.017    509.094    596.790    509.094    512.285    509.094
 76.170    592.000    620.658    -28.658    509.135    617.591    509.135    512.157    509.135
 76.270    601.474    642.696    -41.222    509.175    639.775    509.175    512.043    509.175
 76.370    677.509    664.115     13.394    509.214    661.328    509.214    511.941    509.214
 76.470    668.000    682.350    -14.350    509.251    679.688    509.251    511.850    509.251
 76.570    704.117    694.626      9.491    509.288    692.082    509.288    511.768    509.288
 76.670    721.000    698.667     22.333    509.324    696.236    509.324    511.694    509.324
 76.770    686.000    693.599     -7.599    509.359    691.274    509.359    511.628    509.359
 76.870    730.286    680.378     49.908    509.392    678.154    509.392    511.569    509.392
 76.970    643.564    661.321    -17.756    509.425    659.191    509.425    511.515    509.425
 77.070    609.000    639.195    -30.195    509.456    637.154    509.456    511.466    509.456
 77.170    629.000    616.524     12.476    509.487    614.564    509.487    511.422    509.487
 77.270    558.912    595.259    -36.347    509.516    593.375    509.516    511.382    509.516
 77.370    564.000    576.681    -12.681    509.544    574.867    509.544    511.345    509.544
 77.470    527.034    561.419    -34.385    509.571    559.669    509.571    511.312    509.571
 77.570    574.529    549.553     24.976    509.597    547.862    509.597    511.282    509.597
 77.670    534.000    540.775     -6.775    509.622    539.139    509.622    511.254    509.622
 77.770    554.000    534.559     19.441    509.645    532.972    509.645    511.229    509.645
 77.870    487.398    530.313    -42.915    509.668    528.773    509.668    511.205    509.668
 77.970    535.000    527.488      7.512    509.689    525.992    509.689    511.183    509.689
 78.070    537.901    525.634     12.266    509.709    524.179    509.709    511.163    509.709
 78.170    534.271    524.415      9.856    509.728    522.998    509.728    511.145    509.728
 78.270    521.762    523.602     -1.840    509.746    522.220    509.746    511.127    509.746
 78.370    494.199    523.047    -28.848    509.763    521.698    509.763    511.111    509.763
 78.470    534.000    522.665     11.335    509.778    521.347    509.778    511.095    509.778
 78.570    523.000    522.403      0.597    509.793    521.114    509.793    511.081    509.793
 78.670    540.962    522.206     18.756    509.806    520.944    509.806    511.067    509.806
 78.770    494.000    522.150    -28.150    509.818    520.913    509.818    511.054    509.818
 78.870    483.306    522.210    -38.903    509.828    520.995    509.828    511.042    509.828
 78.970    515.000    522.396     -7.396    509.838    521.202    509.838    511.031    509.838
 79.070    550.000    522.732     27.268    509.846    521.556    509.846    511.021    509.846
 79.170    515.000    523.249     -8.249    509.853    522.087    509.853    511.013    509.853
 79.270    523.880    523.975     -0.095    509.859    522.824    509.859    511.008    509.859
 79.370    513.000    524.938    -11.938    509.863    523.794    509.863    511.005    509.863
 79.470    508.000    526.167    -18.167    509.867    525.024    509.867    511.007    509.867
 79.570    575.333    527.691     47.642    509.869    526.542    509.869    511.015    509.869
 79.670    500.660    529.548    -28.889    509.870    528.384    509.870    511.029    509.870
 79.770    540.000    531.796      8.204    509.869    530.608    509.869    511.052    509.869
 79.870    575.000    534.527     40.473    509.867    533.304    509.867    511.085    509.867
 79.970    531.000    537.891     -6.891    509.864    536.622    509.864    511.128    509.864
 80.070    543.000    542.110      0.890    509.860    540.783    509.860    511.182    509.860
 80.170    542.000    547.502     -5.502    509.855    546.107    509.855    511.245    509.855
 80.270    539.000    554.475    -15.475    509.848    553.004    509.848    511.316    509.848
 80.370    537.000    563.485    -26.485    509.840    561.935    509.840    511.389    509.840
 80.470    566.158    574.943     -8.785    509.831    573.316    509.831    511.459    509.831
 80.570    618.575    589.095     29.480    509.820    587.400    509.820    511.519    509.820
 80.670    593.189    605.913    -12.724    509.808    604.169    509.808    511.560    509.808
 80.770    660.000    625.011     34.989    509.795    623.245    509.795    511.573    509.795
 80.870    659.000    645.609     13.391    509.780    643.853    509.780    511.553    509.780
 80.970    642.000    666.568    -24.568    509.764    664.856    509.764    511.499    509.764
 81.070    706.000    686.535     19.465    509.747    684.896    509.747    511.416    509.747
 81.170    687.000    704.161    -17.161    509.728    702.615    509.728    511.312    509.728
 81.270    732.284    718.295     13.989    509.709    716.852    509.709    511.194    509.709
 81.370    782.000    728.067     53.933    509.687    726.731    509.687    511.073    509.687
 81.470    712.000    732.952    -20.952    509.665    731.719    509.665    510.953    509.665
 81.570    741.000    732.814      8.186    509.641    731.676    509.641    510.838    509.641
 81.670    733.000    727.879      5.121    509.616    726.824    509.616    510.733    509.616
 81.770    673.000    718.649    -45.649    509.589    717.665    509.589    510.637    509.589
 81.870    756.000    705.881     50.119    509.562    704.955    509.562    510.552    509.562
 81.970    735.000    690.574     44.426    509.532    689.695    509.532    510.476    509.532
 82.070    717.000    673.867     43.133    509.502    673.023    509.502    510.408    509.502
 82.170    698.000    656.796     41.204    509.470    655.978    509.470    510.347    509.470
 82.270    625.053    640.104    -15.051    509.436    639.306    509.436    510.291    509.436
 82.370    594.000    624.203    -30.203    509.402    623.419    509.402    510.238    509.402
 82.470    625.536    609.283     16.253    509.366    608.508    509.366    510.189    509.366
 82.570    596.548    595.470      1.078    509.328    594.701    509.328    510.140    509.328
 82.670    550.268    582.931    -32.663    509.290    582.165    509.290    510.093    509.290
 82.770    578.000    571.875      6.125    509.250    571.110    509.250    510.046    509.250
 82.870    545.609    562.508    -16.900    509.208    561.742    509.208    509.998    509.208
 82.970    531.000    554.999    -23.999    509.165    554.231    509.165    509.950    509.165
 83.070    552.000    549.461      2.539    509.121    548.691    509.121    509.902    509.121
 83.170    530.000    545.946    -15.946    509.075    545.172    509.075    509.852    509.075
 83.270    493.000    544.428    -51.428    509.028    543.651    509.028    509.802    509.028
 83.370    550.000    544.796      5.204    508.980    544.014    508.980    509.751    508.980
 83.470    516.082    546.830    -30.748    508.930    546.043    508.930    509.699    508.930
 83.570    519.000    550.199    -31.199    508.879    549.407    508.879    509.646    508.879
 83.670    515.000    554.461    -39.461    508.826    553.664    508.826    509.591    508.826
 83.770    592.592    559.073     33.519    508.772    558.271    508.772    509.536    508.772
 83.870    587.000    563.416     23.584    508.717    562.610    508.717    509.480    508.717
 83.970    574.000    566.850      7.150    508.660    566.042    508.660    509.423    508.660
 84.070    596.000    568.798     27.202    508.602    567.990    508.602    509.364    508.602
 84.170    602.210    568.871     33.339    508.542    568.063    508.542    509.305    508.542
 84.270    548.000    566.975    -18.975    508.481    566.169    508.481    509.244    508.481
 84.370    593.317    563.337     29.980    508.419    562.535    508.419    509.182    508.419
 84.470    567.000    558.409      8.591    508.355    557.611    508.355    509.120    508.355
 84.570    511.473    552.735    -41.261    508.289    551.940    508.289    509.056    508.289
 84.670    528.000    546.834    -18.834    508.223    546.044    508.223    508.991    508.223
 84.770    494.836    541.145    -46.309    508.155    540.357    508.155    508.924    508.155
 84.870    512.000    535.988    -23.988    508.085    535.202    508.085    508.857    508.085
 84.970    483.896    531.561    -47.665    508.014    530.776    508.014    508.788    508.014
 85.070    500.225    527.948    -27.723    507.942    527.163    507.942    508.719    507.942
 85.170    546.901    525.140     21.761    507.868    524.354    507.868    508.648    507.868
 85.270    538.000    523.065     14.935    507.793    522.277    507.793    508.576    507.793
 85.370    521.064    521.616     -0.552    507.717    520.825    507.717    508.503    507.717
 85.470    555.833    520.681     35.152    507.639    519.887    507.639    508.429    507.639
 85.570    534.000    520.162     13.838    507.559    519.364    507.559    508.354    507.559
 85.670    494.000    519.987    -25.987    507.479    519.184    507.479    508.277    507.479
 85.770    515.000    520.120     -5.120    507.396    519.312    507.396    508.200    507.396
 85.870    534.335    520.563     13.771    507.313    519.749    507.313    508.121    507.313
 85.970    518.000    521.362     -3.362    507.228    520.541    507.228    508.041    507.228
 86.070    522.000    522.603     -0.603    507.141    521.774    507.141    507.960    507.141
 86.170    488.083    524.412    -36.329    507.054    523.575    507.054    507.879    507.054
 86.270    490.924    526.952    -36.028    506.964    526.105    506.964    507.796    506.964
 86.370    528.000    530.408     -2.408    506.874    529.551    506.874    507.712    506.874
 86.470    606.000    534.974     71.026    506.782    534.104    506.782    507.627    506.782
 86.570    553.000    540.819     12.181    506.688    539.933    506.688    507.540    506.688
 86.670    587.000    548.055     38.945    506.593    547.153    506.593    507.453    506.593
 86.770    554.000    556.700     -2.700    506.497    555.780    506.497    507.365    506.497
 86.870    578.000    566.633     11.367    506.399    565.693    506.399    507.276    506.399
 86.970    626.096    577.567     48.530    506.300    576.607    506.300    507.184    506.300
 87.070    572.000    589.032    -17.032    506.200    588.051    506.200    507.093    506.200
 87.170    584.000    600.372    -16.372    506.098    599.369    506.098    507.001    506.098
 87.270    629.749    610.770     18.979    505.995    609.748    505.995    506.908    505.995
 87.370    641.558    619.315     22.243    505.890    618.275    505.890    506.814    505.890
 87.470    643.000    625.126     17.874    505.784    624.072    505.784    506.720    505.784
 87.570    619.000    627.545     -8.545    505.676    626.480    505.676    506.624    505.676
 87.670    575.714    626.331    -50.617    505.567    625.260    505.567    506.528    505.567
 87.770    618.038    621.736     -3.698    505.457    620.661    505.457    506.431    505.457
 87.870    642.930    614.408     28.522    505.346    613.332    505.346    506.333    505.346
 87.970    584.000    605.273    -21.273    505.233    604.196    505.233    506.235    505.233
 88.070    566.000    595.280    -29.280    505.118    594.200    505.118    506.136    505.118
 88.170    565.078    585.340    -20.262    505.002    584.258    505.002    506.036    505.002
 88.270    583.444    576.260      7.185    504.885    575.173    504.885    505.936    504.885
 88.370    582.000    568.688     13.312    504.767    567.595    504.767    505.836    504.767
 88.470    570.000    563.090      6.910    504.647    561.987    504.647    505.735    504.647
 88.570    609.594    559.732     49.862    504.526    558.619    504.526    505.633    504.526
 88.670    532.289    558.686    -26.397    504.403    557.561    504.403    505.531    504.403
 88.770    556.000    559.838     -3.838    504.279    558.698    504.279    505.430    504.279
 88.870    599.000    562.899     36.101    504.154    561.744    504.154    505.328    504.154
 88.970    568.000    567.435      0.565    504.027    566.263    504.027    505.226    504.027
 89.070    603.000    572.883     30.117    503.899    571.692    503.899    505.124    503.899
 89.170    626.794    578.583     48.211    503.770    577.371    503.770    505.022    503.770
 89.270    533.519    583.818    -50.299    503.639    582.584    503.639    504.921    503.639
 89.370    555.602    587.873    -32.270    503.507    586.613    503.507    504.820    503.507
 89.470    588.446    590.127     -1.680    503.374    588.839    503.374    504.720    503.374
 89.570    630.178    590.171     40.006    503.239    588.851    503.239    504.620    503.239
 89.670    562.000    587.904    -25.904    503.103    586.546    503.103    504.522    503.103
 89.770    546.000    583.541    -37.541    502.966    582.141    502.966    504.424    502.966
 89.870    594.000    577.540     16.460    502.827    576.093    502.827    504.329    502.827
 89.970    543.000    570.472    -27.472    502.687    568.974    502.687    504.235    502.687
 90.070    532.595    562.913    -30.318    502.546    561.359    502.546    504.143    502.546
 90.170    534.611    555.376    -20.764    502.403    553.762    502.403    504.054    502.403
 90.270    529.000    548.271    -19.271    502.259    546.594    502.259    503.967    502.259
 90.370    510.511    541.894    -31.384    502.114    540.149    502.114    503.884    502.114
 90.470    577.000    536.422     40.578    501.968    534.604    501.968    503.805    501.968
 90.570    525.000    531.926     -6.926    501.820    530.029    501.820    503.730    501.820
 90.670    536.401    528.389      8.013    501.671    526.408    501.671    503.662    501.671
 90.770    478.222    525.735    -47.513    501.521    523.663    501.521    503.600    501.521
 90.870    533.023    523.854      9.169    501.369    521.681    501.369    503.547    501.369
 90.970    511.000    522.624    -11.624    501.217    520.341    501.217    503.502    501.217
 91.070    510.000    521.942    -11.942    501.063    519.531    501.063    503.475    501.063
 91.170    482.000    521.718    -39.718    500.908    519.158    500.908    503.467    500.908
 91.270    503.704    521.888    -18.184    500.751    519.152    500.751    503.486    500.751
 91.370    523.000    522.421      0.579    500.594    519.472    500.594    503.540    500.594
 91.470    539.288    523.428     15.860    500.435    520.217    500.435    503.643    500.435
 91.570    480.000    524.948    -44.948    500.275    521.409    500.275    503.810    500.275
 91.670    480.000    527.103    -47.103    500.113    523.147    500.113    504.064    500.113
 91.770    561.758    530.066     31.692    499.951    525.577    499.951    504.432    499.951
 91.870    574.000    534.048     39.952    499.787    528.879    499.787    504.946    499.787
 91.970    540.000    539.305      0.695    499.622    533.269    499.622    505.646    499.622
 92.070    569.286    546.104     23.182    499.456    538.970    499.456    506.575    499.456
 92.170    562.000    554.708      7.292    499.289    546.199    499.289    507.776    499.289
 92.270    584.188    565.347     18.840    499.121    555.147    499.121    509.295    499.121
 92.370    539.000    578.193    -39.193    498.951    565.941    498.951    511.170    498.951
 92.470    617.279    593.314     23.964    498.781    578.627    498.781    513.429    498.781
 92.570    606.000    610.657     -4.657    498.609    593.134    498.609    516.085    498.609
 92.670    660.000    630.010     29.990    498.436    609.265    498.436    519.127    498.436
 92.770    654.720    650.993      3.728    498.262    626.676    498.262    522.517    498.262
 92.870    710.086    673.050     37.036    498.087    644.882    498.087    526.188    498.087
 92.970    724.220    695.468     28.752    497.911    663.275    497.911    530.031    497.911
 93.070    750.000    717.421     32.579    497.733    681.174    497.733    533.902    497.733
 93.170    715.870    738.062    -22.192    497.555    697.922    497.555    537.614    497.555
 93.270    806.113    756.694     49.420    497.375    713.042    497.375    540.945    497.375
 93.370    801.000    772.847     28.153    497.195    726.313    497.195    543.647    497.195
 93.470    814.000    786.372     27.628    497.013    737.826    497.013    545.478    497.013
 93.570    783.727    797.405    -13.678    496.831    747.912    496.831    546.245    496.831
 93.670    839.000    806.291     32.709    496.647    757.010    496.647    545.851    496.647
 93.770    818.000    813.507      4.493    496.462    765.575    496.462    544.320    496.462
 93.870    852.000    819.622     32.378    496.277    774.032    496.277    541.795    496.277
 93.970    834.000    825.276      8.724    496.090    782.804    496.090    538.492    496.090
 94.070    852.762    831.166     21.596    495.902    792.340    495.902    534.661    495.902
 94.170    813.282    837.964    -24.682    495.714    803.071    495.714    530.541    495.714
 94.270    865.000    846.164     18.836    495.524    815.283    495.524    526.341    495.524
 94.370    914.049    855.909     58.141    495.333    828.948    495.333    522.232    495.333
 94.470    862.000    866.857     -4.857    495.142    843.597    495.142    518.343    495.142
 94.570    916.285    878.150     38.135    494.949    858.277    494.949    514.766    494.949
 94.670    896.000    888.460      7.540    494.756    871.607    494.756    511.557    494.756
 94.770    953.560    896.137     57.424    494.562    881.911    494.562    508.743    494.562
 94.870    920.000    899.443     20.557    494.366    887.450    494.366    506.323    494.366
 94.970    970.000    896.882     73.118    494.170    886.745    494.170    504.279    494.170
 95.070    840.474    887.550    -47.076    493.973    878.927    493.973    502.579    493.973
 95.170    924.000    871.393     52.607    493.775    863.980    493.775    501.180    493.775
 95.270    827.640    849.231    -21.592    493.577    842.769    493.577    500.038    493.577
 95.370    815.000    822.572     -7.572    493.377    816.846    493.377    499.109    493.377
 95.470    804.000    793.324     10.676    493.177    788.159    493.177    498.351    493.177
 95.570    709.697    763.527    -53.831    492.976    758.785    492.976    497.729    492.976
 95.670    772.000    735.187     36.813    492.773    730.760    492.773    497.212    492.773
 95.770    728.000    710.191     17.809    492.571    705.996    492.571    496.775    492.571
 95.870    756.000    690.181     65.819    492.367    686.154    492.367    496.399    492.367
 95.970    729.767    676.584     53.183    492.163    672.678    492.163    496.068    492.163
 96.070    618.000    670.611    -52.611    491.958    666.788    491.958    495.773    491.958
 96.170    653.000    673.267    -20.267    491.752    669.499    491.752    495.504    491.752
 96.270    695.884    685.368     10.516    491.545    681.631    491.545    495.256    491.545
 96.370    684.769    707.539    -22.769    491.338    703.813    491.338    495.026    491.338
 96.470    771.000    740.178     30.822    491.130    736.447    491.130    494.811    491.130
 96.570    782.704    783.392     -0.688    490.921    779.643    490.921    494.608    490.921
 96.670    810.000    836.896    -26.896    490.712    833.116    490.712    494.417    490.712
 96.770    870.000    899.898    -29.898    490.502    896.076    490.502    494.237    490.502
 96.870    975.128    970.995      4.133    490.291    967.120    490.291    494.068    490.291
 96.970   1078.000   1048.088     29.912    490.080   1044.152    490.080    493.909    490.080
 97.070   1106.909   1128.348    -21.439    489.868   1124.343    489.868    493.761    489.868
 97.170   1239.000   1208.238     30.762    489.656   1204.156    489.656    493.623    489.656
 97.270   1281.000   1283.607     -2.607    489.443   1279.441    489.443    493.496    489.443
 97.370   1389.693   1349.901     39.792    489.229   1345.646    489.229    493.381    489.229
 97.470   1427.000   1402.553     24.447    489.015   1398.200    489.015    493.278    489.015
 97.570   1406.000   1437.552    -31.552    488.800   1433.093    488.800    493.187    488.800
 97.670   1483.329   1452.153     31.176    488.585   1447.577    488.585    493.111    488.585
 97.770   1443.000   1445.432     -2.432    488.369   1440.724    488.369    493.049    488.369
 97.870   1429.000   1418.444     10.556    488.153   1413.586    488.153    493.004    488.153
 97.970   1394.000   1373.926     20.074    487.937   1368.897    487.937    492.978    487.937
 98.070   1288.278   1315.704    -27.426    487.719   1310.479    487.719    492.973    487.719
 98.170   1280.000   1248.100     31.900    487.502   1242.649    487.502    492.994    487.502
 98.270   1203.000   1175.484     27.516    487.284   1169.771    487.284    493.045    487.284
 98.370   1060.000   1101.971    -41.971    487.066   1095.955    487.066    493.133    487.066
 98.470   1054.000   1031.235     22.765    486.847   1024.865    486.847    493.268    486.847
 98.570    969.631    966.409      3.223    486.628    959.621    486.628    493.462    486.628
 98.670    904.939    910.051     -5.112    486.408    902.766    486.408    493.733    486.408
 98.770    827.488    864.176    -36.687    486.188    856.290    486.188    494.106    486.188
 98.870    842.000    830.311     11.689    485.968    821.690    485.968    494.611    485.968
 98.970    835.463    809.581     25.882    485.748    800.050    485.748    495.291    485.748
 99.070    745.000    802.789    -57.789    485.527    792.120    485.527    496.199    485.527
 99.170    795.000    810.483    -15.483    485.306    798.382    485.306    497.400    485.306
 99.270    845.000    832.992     12.008    485.085    819.086    485.085    498.975    485.085
 99.370    877.000    870.490      6.510    484.864    854.310    484.864    501.020    484.864
 99.470    901.051    922.853    -21.802    484.642    903.821    484.642    503.645    484.642
 99.570    982.214    989.657     -7.444    484.420    967.076    484.420    506.969    484.420
 99.670   1043.000   1070.073    -27.073    484.199   1043.119    484.199    511.119    484.199
 99.770   1167.000   1162.763      4.237    483.976   1130.486    483.976    516.222    483.976
 99.870   1203.070   1265.793    -62.722    483.754   1227.127    483.754    522.395    483.754
 99.970   1357.000   1376.561    -19.561    483.532   1330.344    483.532    529.733    483.532
100.070   1452.162   1491.781    -39.620    483.310   1436.791    483.310    538.298    483.310
100.170   1575.000   1607.542    -32.542    483.087   1542.540    483.087    548.106    483.087
100.270   1767.000   1719.481     47.519    482.865   1643.273    482.865    559.111    482.865
100.370   1784.197   1823.119    -38.922    482.642   1734.625    482.642    571.198    482.642
100.470   1997.000   1914.282     82.718    482.419   1812.621    482.419    584.168    482.419
100.570   1936.742   1989.502    -52.760    482.197   1874.079    482.197    597.733    482.197
100.670   2011.520   2046.210    -34.690    481.974   1916.809    481.974    611.513    481.974
100.770   2146.365   2082.681     63.684    481.752   1939.562    481.752    625.029    481.752
100.870   2109.000   2097.866     11.134    481.530   1941.857    481.530    637.715    481.530
100.970   2238.000   2091.336    146.664    481.307   1923.899    481.307    648.933    481.307
101.070   2019.000   2063.422    -44.422    481.085   1886.691    481.085    658.015    481.085
101.170   1989.000   2015.505    -26.505    480.863   1832.242    480.863    664.331    480.863
101.270   1953.000   1950.206      2.794    480.642   1763.666    480.642    667.386    480.642
101.370   1903.943   1871.307     32.636    480.420   1685.011    480.420    666.916    480.420
101.470   1719.000   1783.381    -64.381    480.199   1600.830    480.199    662.942    480.199
101.570   1730.146   1691.256     38.891    479.977   1515.646    479.977    655.767    479.977
101.670   1545.456   1599.490    -54.034    479.756   1433.501    479.756    645.913    479.756
101.770   1484.000   1511.980    -27.980    479.536   1357.650    479.536    634.018    479.536
101.870   1399.766   1431.717    -31.951    479.316   1290.419    479.316    620.750    479.316
101.970   1390.075   1360.682     29.393    479.096   1233.161    479.096    606.739    479.096
102.070   1324.928   1299.841     25.087    478.876   1186.286    478.876    592.540    478.876
102.170   1284.504   1249.193     35.311    478.657   1149.332    478.657    578.615    478.657
102.270   1253.386   1207.879     45.507    478.438   1121.071    478.438    565.333    478.438
102.370   1170.000   1174.319     -4.319    478.219   1099.651    478.219    552.968    478.219
102.470   1189.030   1146.396     42.634    478.001   1082.768    478.001    541.706    478.001
102.570   1075.000   1121.695    -46.695    477.784   1067.900    477.784    531.653    477.784
102.670   1162.293   1097.789     64.504    477.567   1052.585    477.567    522.844    477.567
102.770   1019.000   1072.565    -53.565    477.350   1034.732    477.350    515.256    477.350
102.870   1033.000   1044.506    -11.506    477.134   1012.893    477.134    508.823    477.134
102.970   1046.000   1012.852     33.148    476.919    986.403    476.919    503.443    476.919
103.070    970.000    977.580     -7.580    476.704    955.361    476.704    498.999    476.704
103.170    896.000    939.256    -43.256    476.490    920.457    476.490    495.364    476.490
103.270    878.000    898.815    -20.815    476.276    882.753    476.276    492.411    476.276
103.370    869.000    857.365     11.635    476.063    843.476    476.063    490.022    476.063
103.470    846.000    816.040     29.960    475.851    803.867    475.851    488.088    475.851
103.570    819.000    775.892     43.108    475.640    765.076    475.640    486.516    475.640
103.670    772.000    737.836     34.164    475.429    728.094    475.429    485.225    475.429
103.770    722.000    702.605     19.395    475.219    693.714    475.219    484.158    475.219
103.870    691.000    670.716     20.284    475.010    662.507    475.010    483.260    475.010
103.970    638.234    642.471     -4.238    474.802    634.817    474.802    482.492    474.802
104.070    590.673    617.982    -27.309    474.595    610.785    474.595    481.821    474.595
104.170    590.000    597.176     -7.176    474.388    590.363    474.388    481.226    474.388
104.270    581.000    579.846      1.154    474.182    573.359    474.182    480.689    474.182
104.370    561.000    565.682     -4.682    473.978    559.478    473.978    480.197    473.978
104.470    571.346    554.317     17.030    473.774    548.363    473.774    479.740    473.774
104.570    555.000    545.356      9.644    473.571    539.630    473.571    479.307    473.571
104.670    506.186    538.450    -32.264    473.370    532.918    473.370    478.907    473.370
104.770    533.000    533.236     -0.236    473.169    527.878    473.169    478.531    473.169
104.870    561.000    529.410     31.590    472.970    524.208    472.970    478.173    472.970
104.970    532.682    526.721      5.961    472.771    521.660    472.771    477.833    472.771
105.070    547.471    524.976     22.494    472.574    520.041    472.574    477.508    472.574
105.170    535.000    524.036     10.964    472.378    519.214    472.378    477.197    472.378
105.270    553.000    523.813     29.187    472.183    519.093    472.183    476.899    472.183
105.370    517.000    524.267     -7.267    471.989    519.638    471.989    476.613    471.989
105.470    566.000    525.399     40.601    471.797    520.851    471.797    476.338    471.797
105.570    527.000    527.247     -0.247    471.606    522.770    471.606    476.074    471.606
105.670    528.370    529.877     -1.506    471.416    525.462    471.416    475.820    471.416
105.770    518.000    533.376    -15.376    471.228    529.016    471.228    475.575    471.228
105.870    565.000    537.844     27.156    471.041    533.531    471.041    475.339    471.041
105.970    581.083    543.377     37.706    470.855    539.103    470.855    475.112    470.855
106.070    554.000    550.055      3.945    470.671    545.813    470.671    474.893    470.671
106.170    593.000    557.927     35.073    470.488    553.710    470.488    474.681    470.488
106.270    555.000    566.996    -11.996    470.307    562.798    470.307    474.478    470.307
106.370    573.000    577.209     -4.209    470.127    573.023    470.127    474.282    470.127
106.470    563.000    588.448    -25.448    469.949    584.268    469.949    474.093    469.949
106.570    580.695    600.522    -19.828    469.773    596.345    469.773    473.912    469.773
106.670    648.851    613.175     35.675    469.598    608.994    469.598    473.737    469.598
106.770    628.000    626.081      1.919    469.425    621.891    469.425    473.569    469.425
106.870    630.000    638.858     -8.858    469.253    634.655    469.253    473.409    469.253
106.970    622.684    651.082    -28.398    469.083    646.862    469.083    473.255    469.083
107.070    612.000    662.312    -50.312    468.915    658.070    468.915    473.107    468.915
107.170    653.000    672.122    -19.122    468.749    667.854    468.749    472.967    468.749
107.270    697.000    680.144     16.856    468.585    675.848    468.585    472.833    468.585
107.370    740.676    686.128     54.548    468.423    681.798    468.423    472.707    468.423
107.470    620.000    689.981    -69.981    468.262    685.613    468.262    472.587    468.262
107.570    743.533    691.797     51.736    468.103    687.388    468.103    472.474    468.103
107.670    690.093    691.845     -1.752    467.947    687.390    467.947    472.368    467.947
107.770    664.024    690.526    -26.502    467.792    686.019    467.792    472.270    467.792
107.870    669.000    688.307    -19.307    467.640    683.743    467.640    472.178    467.640
107.970    695.496    685.663      9.833    467.489    681.037    467.489    472.095    467.489
108.070    669.000    683.022    -14.022    467.341    678.328    467.341    472.019    467.341
108.170    684.000    680.729      3.271    467.194    675.961    467.194    471.951    467.194
108.270    662.831    679.022    -16.191    467.050    674.175    467.050    471.891    467.050
108.370    636.380    678.019    -41.639    466.909    673.084    466.909    471.840    466.909
108.470    673.000    677.708     -4.708    466.769    672.681    466.769    471.797    466.769
108.570    653.000    677.958    -24.958    466.632    672.830    466.632    471.764    466.632
108.670    709.844    678.523     31.321    466.497    673.288    466.497    471.739    466.497
108.770    656.384    679.066    -22.682    466.364    673.716    466.364    471.725    466.364
108.870    699.050    679.194     19.856    466.234    673.721    466.234    471.720    466.234
108.970    647.000    678.497    -31.497    466.106    672.892    466.106    471.726    466.106
109.070    716.000    676.605     39.395    465.981    670.861    465.981    471.744    465.981
109.170    632.731    673.244    -40.513    465.858    667.349    465.858    471.772    465.858
109.270    666.000    668.267     -2.267    465.738    662.212    465.738    471.813    465.738
109.370    653.000    661.677     -8.677    465.620    655.452    465.620    471.867    465.620
109.470    665.000    653.612     11.388    465.505    647.205    465.505    471.935    465.505
109.570    638.000    644.314     -6.314    465.393    637.713    465.393    472.016    465.393
109.670    595.000    634.089    -39.089    465.284    627.281    465.284    472.113    465.284
109.770    621.000    623.265     -2.265    465.177    616.236    465.177    472.225    465.177
109.870    652.000    612.144     39.856    465.073    604.881    465.073    472.355    465.073
109.970    655.000    601.100     53.900    464.971    593.586    464.971    472.503    464.971
110.070    559.851    590.401    -30.550    464.873    582.618    464.873    472.671    464.873
110.170    586.000    580.272      5.728    464.778    572.204    464.778    472.860    464.778
110.270    636.000    570.908     65.092    464.685    562.533    464.685    473.072    464.685
110.370    515.877    562.451    -46.574    464.596    553.748    464.596    473.309    464.596
110.470    537.000    554.998    -17.998    464.509    545.941    464.509    473.574    464.509
110.570    579.059    548.600     30.459    464.426    539.162    464.426    473.870    464.426
110.670    494.761    543.269    -48.508    464.345    533.416    464.345    474.202    464.345
110.770    552.299    538.980     13.319    464.268    528.676    464.268    474.574    464.268
110.870    534.277    535.685     -1.408    464.194    524.886    464.194    474.994    464.194
110.970    551.000    533.317     17.683    464.123    521.971    464.123    475.469    464.123
111.070    487.945    531.799    -43.854    464.056    519.842    464.056    476.011    464.056
111.170    535.000    531.050      3.950    463.992    518.406    463.992    476.634    463.992
111.270    552.000    530.993     21.007    463.931    517.565    463.931    477.355    463.931
111.370    528.793    531.557     -2.763    463.874    517.230    463.874    478.196    463.874
111.470    523.960    532.684     -8.725    463.820    517.313    463.820    479.186    463.820
111.570    550.000    534.334     15.666    463.769    517.737    463.769    480.360    463.769
111.670    553.000    536.480     16.520    463.722    518.435    463.722    481.760    463.722
111.770    566.000    539.118     26.882    463.679    519.350    463.679    483.440    463.679
111.870    488.000    542.265    -54.265    463.639    520.434    463.639    485.462    463.639
111.970    555.000    545.958      9.042    463.603    521.651    463.603    487.901    463.603
112.070    510.000    550.260    -40.260    463.571    522.979    463.571    490.843    463.571
112.170    553.000    555.257     -2.257    463.542    524.402    463.542    494.388    463.542
112.270    575.000    561.059     13.941    463.517    525.921    463.517    498.646    463.517
112.370    598.000    567.795     30.205    463.496    527.542    463.496    503.740    463.496
112.470    535.442    575.615    -40.173    463.479    529.284    463.479    509.801    463.479
112.570    582.000    584.680     -2.680    463.466    531.171    463.466    516.966    463.466
112.670    586.772    595.163     -8.390    463.457    533.238    463.457    525.371    463.457
112.770    563.000    607.238    -44.238    463.452    535.528    463.452    535.152    463.452
112.870    587.000    621.084    -34.084    463.451    538.092    463.451    546.431    463.451
112.970    611.000    636.870    -25.870    463.454    541.000    463.454    559.313    463.454
113.070    661.000    654.763      6.237    463.461    544.337    463.461    573.875    463.461
113.170    695.000    674.915     20.085    463.472    548.216    463.472    590.160    463.472
113.270    699.000    697.474      1.526    463.488    552.784    463.488    608.165    463.488
113.370    756.536    722.580     33.956    463.508    558.238    463.508    627.835    463.508
113.470    736.121    750.375    -14.254    463.532    564.835    463.532    649.056    463.532
113.570    741.000    781.018    -40.018    463.561    572.914    463.561    671.647    463.561
113.670    756.000    814.696    -58.696    463.594    582.916    463.594    695.354    463.594
113.770    913.617    851.654     61.964    463.632    595.414    463.632    719.847    463.632
113.870    964.000    892.210     71.790    463.674    611.133    463.674    744.722    463.674
113.970    920.000    936.795    -16.795    463.721    630.989    463.721    769.492    463.721
114.070    953.683    985.978    -32.295    463.772    656.110    463.772    793.596    463.772
114.170   1015.377   1040.505    -25.127    463.829    687.873    463.829    816.406    463.829
114.270   1077.016   1101.332    -24.316    463.889    727.916    463.889    837.238    463.889
114.370   1122.000   1169.665    -47.665    463.955    778.158    463.955    855.379    463.955
114.470   1204.000   1246.999    -42.999    464.026    840.791    464.026    870.131    464.026
114.570   1325.000   1335.154    -10.154    464.101    918.264    464.101    880.865    464.101
114.670   1433.000   1436.293     -3.293    464.181   1013.235    464.181    887.083    464.181
114.770   1553.000   1552.908      0.092    464.267   1128.502    464.267    888.484    464.267
114.870   1681.273   1687.767     -6.494    464.357   1266.896    464.357    885.001    464.357
114.970   1857.000   1843.779     13.221    464.452   1431.151    464.452    876.811    464.452
115.070   2119.000   2023.813     95.187    464.553   1623.735    464.553    864.314    464.553
115.170   2301.000   2230.452     70.548    464.659   1846.667    464.659    848.077    464.659
115.270   2573.000   2465.722    107.278    464.770   2101.304    464.770    828.768    464.770
115.370   2783.000   2730.820     52.180    464.886   2388.132    464.886    807.100    464.886
115.470   3034.326   3025.857      8.470    465.008   2706.562    465.008    783.776    465.008
115.570   3257.154   3349.645    -92.491    465.135   3054.746    465.135    759.456    465.135
115.670   3622.662   3699.533    -76.870    465.268   3429.435    465.268    734.742    465.268
115.770   3986.000   4071.301    -85.301    465.406   3825.887    465.406    710.159    465.406
115.870   4376.000   4459.129    -83.129    465.549   4237.835    465.549    686.155    465.549
115.970   4672.000   4855.635   -183.635    465.698   4657.528    465.698    663.102    465.698
116.070   5135.000   5251.987   -116.987    465.853   5075.843    465.853    641.294    465.853
116.170   5468.000   5638.098   -170.098    466.014   5482.475    466.014    620.948    466.014
116.270   5973.000   6002.908    -29.908    466.180   5866.217    466.180    602.217    466.180
116.370   6343.000   6334.770      8.230    466.353   6215.335    466.353    585.185    466.353
116.470   6594.000   6621.966    -27.966    466.531   6518.081    466.531    569.883    466.531
116.570   6970.709   6853.362    117.346    466.715   6763.341    466.715    556.290    466.715
116.670   7027.000   7019.212      7.788    466.905   6941.424    466.905    544.348    466.905
116.770   7141.000   7112.013     28.987    467.101   7044.915    467.101    533.965    467.101
116.870   7160.000   7127.280     32.720    467.303   7069.438    467.303    525.027    467.303
116.970   7090.000   7064.054     25.946    467.512   7014.156    467.512    517.405    467.512
117.070   6905.000   6925.031    -20.031    467.727   6881.898    467.727    510.964    467.727
117.170   6855.000   6716.217    138.783    467.948   6678.802    467.948    505.565    467.948
117.270   6420.000   6446.194    -26.194    468.175   6413.583    468.175    501.073    468.175
117.370   6001.000   6125.341   -124.341    468.408   6096.744    468.408    497.362    468.408
117.470   5809.464   5764.989     44.475    468.649   5739.732    468.649    494.314    468.649
117.570   5194.000   5376.706   -182.706    468.895   5354.220    468.895    491.824    468.895
117.670   5029.548   4971.729     57.820    469.148   4951.540    469.148    489.798    469.148
117.770   4592.000   4560.540     31.460    469.408   4542.257    469.408    488.156    469.408
117.870   4256.000   4152.548    103.452    469.675   4135.850    469.675    486.829    469.675
117.970   3917.000   3755.868    161.132    469.948   3740.494    469.948    485.758    469.948
118.070   3601.000   3377.185    223.815    470.228   3362.923    470.228    484.897    470.228
118.170   3044.139   3021.695     22.444    470.515   3008.376    470.515    484.205    470.515
118.270   2871.000   2693.119    177.881    470.809   2680.608    470.809    483.652    470.809
118.370   2445.000   2393.791     51.209    471.110   2381.979    471.110    483.212    471.110
118.470   2102.000   2124.786    -22.786    471.418   2113.587    471.418    482.866    471.418
118.570   1874.000   1886.098    -12.098    471.733   1875.443    471.733    482.597    471.733
118.670   1630.000   1676.831    -46.831    472.055   1666.664    472.055    482.393    472.055
118.770   1509.793   1495.394     14.399    472.384   1485.671    472.384    482.245    472.384
118.870   1318.000   1339.701    -21.701    472.721   1330.384    472.721    482.145    472.721
118.970   1170.000   1207.344    -37.344    473.065   1198.402    473.065    482.088    473.065
119.070   1014.000   1095.761    -81.761    473.416   1087.168    473.416    482.069    473.416
119.170    956.000   1002.366    -46.366    473.775    994.098    473.775    482.084    473.775
119.270    925.000    924.657      0.343    474.141    916.694    474.141    482.132    474.141
119.370    858.000    860.298     -2.298    474.515    852.621    474.515    482.209    474.515
119.470    765.000    807.170    -42.170    474.897    799.762    474.897    482.314    474.897
119.570    778.628    763.396     15.232    475.286    756.239    475.286    482.446    475.286
119.670    681.000    727.353    -46.353    475.684    720.432    475.684    482.604    475.684
119.770    635.000    697.663    -62.663    476.089    690.963    476.089    482.787    476.089
119.870    658.841    673.178    -14.336    476.502    666.682    476.502    482.994    476.502
119.970    621.557    652.952    -31.395    476.922    646.645    476.922    483.226    476.922
120.070    669.853    636.220     33.633    477.351    630.087    477.351    483.482    477.351
120.170    584.000    622.368    -38.368    477.788    616.392    477.788    483.762    477.788
120.270    641.023    610.906     30.116    478.234    605.072    478.234    484.067    478.234
120.370    663.000    601.450     61.550    478.687    595.740    478.687    484.397    478.687
120.470    576.000    593.696    -17.696    479.149    588.093    479.149    484.753    479.149
120.570    595.273    587.409      7.864    479.619    581.894    479.619    485.135    479.619
120.670    572.000    582.403    -10.403    480.097    576.957    480.097    485.546    480.097
120.770    593.000    578.536     14.464    480.584    573.139    480.584    485.985    480.584
120.870    552.000    575.694    -23.694    481.080    570.324    481.080    486.454    481.080
120.970    561.000    573.790    -12.790    481.584    568.426    481.584    486.954    481.584
121.070    602.547    572.754     29.793    482.097    567.371    482.097    487.486    482.097
121.170    575.000    572.528      2.472    482.619    567.101    482.619    488.053    482.619
121.270    569.000    573.062     -4.062    483.149    567.566    483.149    488.654    483.149
121.370    520.000    574.313    -54.313    483.689    568.720    483.689    489.291    483.689
121.470    548.000    576.235    -28.235    484.237    570.519    484.237    489.963    484.237
121.570    603.000    578.781     24.219    484.795    572.917    484.795    490.671    484.795
121.670    598.164    581.906     16.259    485.361    575.864    485.361    491.417    485.361
121.770    564.381    585.550    -21.169    485.937    579.303    485.937    492.200    485.937
121.870    552.000    589.649    -37.649    486.522    583.170    486.522    493.018    486.522
121.970    626.000    594.129     31.871    487.116    587.395    487.116    493.871    487.116
122.070    619.102    598.906     20.197    487.720    591.894    487.720    494.754    487.720
122.170    571.202    603.886    -32.685    488.333    596.578    488.333    495.667    488.333
122.270    608.000    608.968     -0.968    488.955    601.346    488.955    496.605    488.955
122.370    593.031    614.039    -21.008    489.587    606.094    489.587    497.565    489.587
122.470    577.083    618.983    -41.899    490.229    610.706    490.229    498.540    490.229
122.570    635.313    623.676     11.637    490.881    615.068    490.881    499.526    490.881
122.670    571.000    627.998    -56.998    491.542    619.063    491.542    500.516    491.542
122.770    655.000    631.830     23.170    492.214    622.581    492.214    501.503    492.214
122.870    591.810    635.063    -43.253    492.895    625.521    492.895    502.480    492.895
122.970    660.000    637.605     22.395    493.586    627.797    493.586    503.438    493.586
123.070    621.000    639.385    -18.385    494.288    629.348    494.288    504.370    494.288
123.170    664.000    640.359     23.641    494.999    630.137    494.999    505.268    494.999
123.270    680.000    640.512     39.488    495.721    630.156    495.721    506.124    495.721
123.370    688.944    639.856     49.089    496.453    629.423    496.453    506.933    496.453
123.470    686.000    638.428     47.572    497.195    627.980    497.195    507.690    497.195
123.570    615.000    636.287    -21.287    497.948    625.889    497.948    508.393    497.948
123.670    633.000    633.508     -0.508    498.712    623.223    498.712    509.042    498.712
123.770    667.000    630.176     36.824    499.486    620.065    499.486    509.639    499.486
123.870    602.032    626.381    -24.349    500.271    616.502    500.271    510.189    500.271
123.970    662.963    622.218     40.745    501.066    612.623    501.066    510.698    501.066
124.070    605.000    617.780    -12.780    501.873    608.513    501.873    511.174    501.873
124.170    625.000    613.157     11.843    502.690    604.255    502.690    511.623    502.690
124.270    606.000    608.433     -2.433    503.518    599.925    503.518    512.054    503.518
124.370    609.000    603.685      5.315    504.358    595.592    504.358    512.476    504.358
124.470    619.000    598.979     20.021    505.208    591.315    505.208    512.895    505.208
124.570    618.000    594.372     23.628    506.070    587.143    506.070    513.318    506.070
124.670    611.000    589.911     21.089    506.943    583.118    506.943    513.752    506.943
124.770    606.000    585.632     20.368    507.827    579.270    507.827    514.203    507.827
124.870    628.897    581.563     47.334    508.723    575.623    508.723    514.675    508.723
124.970    627.000    577.723     49.277    509.631    572.191    509.631    515.172    509.631
