neutron_powder_diffraction_0046
R_wp: 3.792
Temperature (K): 624.273
Counts: 83578.00
Wavelength (Ã…): 2.52098
COMMENTS
Test file for demonstrating the .xyy file format in Reel1.0
END OF HEADER
   tth       Y_obs     Y_calc      Y_res    Background    Phase_1_Nuc    Phase_1_Mag    Phase_2_Nuc    Phase_2_Mag
  9.970    662.000    680.606    -18.606    679.167    680.173    679.600    679.167    679.167
 10.070    686.000    680.015      5.985    678.490    679.577    678.928    678.490    678.490
 10.170    667.000    679.436    -12.436    677.814    678.993    678.256    677.814    677.814
 10.270    748.000    678.871     69.129    677.139    678.423    677.586    677.139    677.139
 10.370    700.000    678.323     21.677    676.465    677.871    676.916    676.465    676.465
 10.470    714.000    677.797     36.203    675.791    677.339    676.248    675.791    675.791
 10.570    646.000    677.295    -31.295    675.118    676.833    675.580    675.118    675.118
 10.670    666.000    676.825    -10.825    674.447    676.357    674.913    674.447    674.447
 10.770    714.000    676.393     37.607    673.776    675.921    674.248    673.776    673.776
 10.870    706.000    676.011     29.989    673.106    675.533    673.583    673.106    673.106
 10.970    726.000    675.692     50.308    672.438    675.208    672.920    672.438    672.438
 11.070    700.000    675.456     24.544    671.770    674.966    672.258    671.770    671.770
 11.170    703.705    675.330     28.376    671.103    674.835    671.597    671.103    671.103
 11.270    658.720    675.356    -16.636    670.438    674.855    670.937    670.438    670.438
 11.370    689.000    675.602     13.398    669.773    675.094    670.278    669.773    669.773
 11.470    674.000    676.197     -2.197    669.110    675.683    669.620    669.110    669.110
 11.570    731.000    677.431     53.569    668.447    676.910    668.964    668.447    668.447
 11.670    761.000    679.972     81.028    667.786    679.443    668.309    667.786    667.786
 11.770    735.000    685.186     49.814    667.126    684.648    667.655    667.126    667.126
 11.870    774.000    695.297     78.703    666.467    694.747    667.002    666.467    666.467
 11.970    743.000    712.766     30.234    665.809    712.199    666.350    665.809    665.809
 12.070    712.165    738.312    -26.147    665.153    737.724    665.700    665.153    665.153
 12.170    794.000    767.540     26.460    664.497    766.930    665.051    664.497    664.497
 12.270    792.000    788.178      3.822    663.843    787.549    664.404    663.843    663.843
 12.370    797.151    786.727     10.424    663.190    786.092    663.758    663.190    663.190
 12.470    744.148    763.836    -19.688    662.538    763.206    663.113    662.538    662.538
 12.570    700.000    733.323    -33.323    661.888    732.702    662.469    661.888    661.888
 12.670    729.670    706.946     22.723    661.238    706.333    661.827    661.238    661.238
 12.770    700.000    688.690     11.310    660.590    688.079    661.187    660.590    660.590
 12.870    688.000    677.657     10.343    659.944    677.044    660.548    659.944    659.944
 12.970    660.000    671.376    -11.376    659.298    670.758    659.910    659.298    659.298
 13.070    673.000    667.769      5.231    658.654    667.145    659.274    658.654    658.654
 13.170    649.476    665.326    -15.850    658.012    664.695    658.639    658.012    658.012
 13.270    636.000    663.471    -27.471    657.370    662.833    658.006    657.370    657.370
 13.370    630.000    661.953    -31.953    656.731    661.308    657.374    656.731    656.731
 13.470    596.000    660.652    -64.652    656.092    659.998    656.744    656.092    656.092
 13.570    661.000    659.500      1.500    655.455    658.838    656.115    655.455    655.455
 13.670    665.000    658.456      6.544    654.819    657.786    655.488    654.819    654.819
 13.770    652.000    657.494     -5.494    654.185    656.815    654.863    654.185    654.185
 13.870    620.000    656.595    -36.595    653.552    655.907    654.239    653.552    653.552
 13.970    655.000    655.747     -0.747    652.921    655.049    653.617    652.921    652.921
 14.070    659.866    654.952      4.914    652.291    654.245    652.997    652.291    652.291
 14.170    635.000    654.185    -19.185    651.663    653.469    652.378    651.663    651.663
 14.270    651.090    653.433     -2.343    651.036    652.706    651.761    651.036    651.036
 14.370    618.000    652.700    -34.700    650.410    651.964    651.146    650.410    650.410
 14.470    623.000    651.985    -28.985    649.786    651.239    650.532    649.786    649.786
 14.570    642.000    651.286     -9.286    649.164    650.529    649.920    649.164    649.164
 14.670    699.315    650.599     48.716    648.543    649.831    649.310    648.543    648.543
 14.770    650.000    649.924      0.076    647.924    649.145    648.702    647.924    647.924
 14.870    619.000    649.258    -30.258    647.307    648.468    648.096    647.307    647.307
 14.970    657.000    648.601      8.399    646.691    647.800    647.491    646.691    646.691
 15.070    628.000    647.952    -19.952    646.076    647.139    646.888    646.076    646.076
 15.170    628.855    647.310    -18.455    645.463    646.485    646.287    645.463    645.463
 15.270    607.000    646.674    -39.674    644.852    645.838    645.688    644.852    644.852
 15.370    651.000    646.044      4.956    644.243    645.195    645.091    644.243    644.243
 15.470    632.336    645.419    -13.083    643.635    644.558    644.496    643.635    643.635
 15.570    585.000    644.800    -59.800    643.029    643.925    643.903    643.029    643.029
 15.670    645.000    644.185      0.815    642.424    643.297    643.312    642.424    642.424
 15.770    631.460    643.574    -12.114    641.821    642.673    642.722    641.821    641.821
 15.870    617.000    642.968    -25.968    641.220    642.052    642.135    641.220    641.220
 15.970    629.000    642.365    -13.365    640.620    641.436    641.550    640.620    640.620
 16.070    628.000    641.768    -13.768    640.023    640.824    640.967    640.023    640.023
 16.170    639.000    641.177     -2.177    639.427    640.218    640.386    639.427    639.427
 16.270    664.000    640.591     23.409    638.832    639.617    639.807    638.832    638.832
 16.370    654.000    640.006     13.994    638.240    639.016    639.230    638.240    638.240
 16.470    636.000    639.421     -3.421    637.649    638.415    638.655    637.649    637.649
 16.570    652.575    638.840     13.735    637.060    637.817    638.083    637.060    637.060
 16.670    609.000    638.261    -29.261    636.473    637.222    637.512    636.473    636.473
 16.770    606.744    637.686    -30.943    635.888    636.630    636.944    635.888    635.888
 16.870    656.000    637.114     18.886    635.304    636.040    636.378    635.304    635.304
 16.970    671.000    636.545     34.455    634.722    635.453    635.815    634.722    634.722
 17.070    658.000    635.980     22.020    634.142    634.868    635.254    634.142    634.142
 17.170    675.675    635.417     40.258    633.564    634.286    634.695    633.564    633.564
 17.270    686.214    634.857     51.356    632.988    633.707    634.139    632.988    632.988
 17.370    638.000    634.302      3.698    632.414    633.131    633.584    632.414    632.414
 17.470    642.000    633.765      8.235    631.841    632.573    633.033    631.841    631.841
 17.570    585.434    633.275    -47.841    631.270    632.061    632.484    631.270    631.270
 17.670    627.383    632.733     -5.350    630.702    631.498    631.937    630.702    630.702
 17.770    617.000    632.191    -15.191    630.135    630.933    631.393    630.135    630.135
 17.870    586.000    631.677    -45.677    629.570    630.396    630.851    629.570    629.570
 17.970    618.000    631.152    -13.152    629.007    629.847    630.311    629.007    629.007
 18.070    614.000    630.622    -16.622    628.446    629.293    629.775    628.446    628.446
 18.170    625.000    630.090     -5.090    627.886    628.736    629.240    627.886    627.886
 18.270    612.305    629.561    -17.256    627.329    628.181    628.709    627.329    627.329
 18.370    580.807    629.036    -48.228    626.774    627.629    628.180    626.774    626.774
 18.470    623.000    628.513     -5.513    626.220    627.079    627.654    626.220    626.220
 18.570    664.200    627.993     36.207    625.669    626.532    627.131    625.669    625.669
 18.670    676.530    627.479     49.051    625.119    625.988    626.610    625.119    625.119
 18.770    620.000    626.968     -6.968    624.572    625.447    626.092    624.572    624.572
 18.870    602.000    626.458    -24.458    624.026    624.907    625.578    624.026    624.026
 18.970    611.000    625.956    -14.956    623.483    624.372    625.067    623.483    623.483
 19.070    652.000    625.497     26.503    622.941    623.872    624.567    622.941    622.941
 19.170    635.000    625.039      9.961    622.402    623.373    624.068    622.402    622.402
 19.270    595.996    624.548    -28.552    621.865    622.846    623.566    621.865    621.865
 19.370    604.000    624.056    -20.056    621.329    622.318    623.067    621.329    621.329
 19.470    625.163    623.568      1.595    620.796    621.793    622.571    620.796    620.796
 19.570    561.000    623.084    -62.084    620.264    621.271    622.078    620.264    620.264
 19.670    616.000    622.604     -6.604    619.735    620.751    621.588    619.735    619.735
 19.770    588.000    622.127    -34.127    619.208    620.233    621.102    619.208    619.208
 19.870    596.828    621.655    -24.827    618.683    619.719    620.619    618.683    618.683
 19.970    610.000    621.187    -11.187    618.160    619.207    620.140    618.160    618.160
 20.070    620.000    620.723     -0.723    617.639    618.697    619.664    617.639    617.639
 20.170    628.000    620.263      7.737    617.120    618.191    619.192    617.120    617.120
 20.270    623.000    619.813      3.187    616.603    617.691    618.724    616.603    616.603
 20.370    589.306    619.415    -30.109    616.088    617.236    618.267    616.088    616.088
 20.470    597.000    618.997    -21.997    615.575    616.759    617.814    615.575    615.575
 20.570    611.000    618.566     -7.566    615.065    616.273    617.358    615.065    615.065
 20.670    597.000    618.159    -21.159    614.556    615.809    616.906    614.556    614.556
 20.770    613.000    617.791     -4.791    614.050    615.382    616.459    614.050    614.050
 20.870    637.348    617.375     19.973    613.546    614.905    616.016    613.546    613.546
 20.970    565.000    616.969    -51.969    613.044    614.436    615.577    613.044    613.044
 21.070    567.000    616.563    -49.563    612.544    613.964    615.143    612.544    612.544
 21.170    645.000    616.171     28.829    612.046    613.504    614.713    612.046    612.046
 21.270    602.038    615.804    -13.766    611.550    613.065    614.289    611.550    611.550
 21.370    612.000    615.425     -3.425    611.057    612.612    613.869    611.057    611.057
 21.470    642.000    615.040     26.960    610.566    612.151    613.455    610.566    610.566
 21.570    623.000    614.667      8.333    610.076    611.695    613.048    610.076    610.076
 21.670    601.000    614.301    -13.301    609.590    611.244    612.647    609.590    609.590
 21.770    658.116    613.938     44.178    609.105    610.794    612.249    609.105    609.105
 21.870    584.327    613.586    -29.258    608.622    610.350    611.858    608.622    608.622
 21.970    611.000    613.241     -2.241    608.142    609.910    611.472    608.142    608.142
 22.070    642.760    612.904     29.857    607.663    609.474    611.094    607.663    607.663
 22.170    623.000    612.576     10.424    607.187    609.042    610.722    607.187    607.187
 22.270    608.000    612.260     -4.260    606.714    608.617    610.357    606.714    606.714
 22.370    638.066    611.955     26.111    606.242    608.198    609.999    606.242    606.242
 22.470    580.512    611.664    -31.152    605.773    607.787    609.649    605.773    605.773
 22.570    609.907    611.393     -1.486    605.305    607.389    609.310    605.305    605.305
 22.670    597.000    611.134    -14.134    604.840    606.997    608.977    604.840    604.840
 22.770    618.105    610.888      7.217    604.378    606.613    608.653    604.378    604.378
 22.870    648.000    610.661     37.339    603.917    606.240    608.338    603.917    603.917
 22.970    584.000    610.456    -26.456    603.459    605.882    608.033    603.459    603.459
 23.070    592.000    610.273    -18.273    603.003    605.537    607.739    603.003    603.003
 23.170    566.858    610.117    -43.258    602.549    605.210    607.456    602.549    602.549
 23.270    579.106    609.991    -30.885    602.097    604.905    607.184    602.097    602.097
 23.370    601.000    609.901     -8.901    601.648    604.625    606.925    601.648    601.648
 23.470    593.927    609.855    -15.928    601.201    604.377    606.680    601.201    601.201
 23.570    571.478    609.859    -38.381    600.756    604.168    606.448    600.756    600.756
 23.670    654.000    609.927     44.073    600.313    604.009    606.232    600.313    600.313
 23.770    619.000    610.074      8.926    599.873    603.916    606.033    599.873    599.873
 23.870    607.000    610.323     -3.323    599.435    603.909    605.851    599.435    599.435
 23.970    586.640    610.707    -24.067    598.999    604.021    605.687    598.999    598.999
 24.070    598.000    611.284    -13.284    598.566    604.308    605.544    598.566    598.566
 24.170    605.520    612.170     -6.650    598.134    604.885    605.422    598.134    598.134
 24.270    609.000    613.625     -4.625    597.705    606.011    605.324    597.705    597.705
 24.370    589.973    616.212    -26.240    597.279    608.245    605.252    597.279    597.279
 24.470    669.000    620.975     48.025    596.854    612.631    605.208    596.854    596.854
 24.570    668.000    629.402     38.598    596.432    620.656    605.194    596.432    596.432
 24.670    638.000    642.818     -4.818    596.012    633.641    605.215    596.012    596.012
 24.770    627.532    660.995    -33.463    595.595    651.357    605.271    595.595    595.595
 24.870    739.000    680.083     58.917    595.179    669.946    605.369    595.179    595.179
 24.970    668.000    691.481    -23.481    594.766    680.797    605.511    594.766    594.766
 25.070    679.000    687.822     -8.822    594.356    676.533    605.702    594.356    594.356
 25.170    651.000    672.110    -21.110    593.947    660.154    605.949    593.947    593.947
 25.270    623.000    653.345    -30.345    593.541    640.660    606.258    593.541    593.541
 25.370    677.660    637.843     39.816    593.137    624.365    606.636    593.137    593.137
 25.470    613.000    627.501    -14.501    592.736    613.157    607.092    592.736    592.736
 25.570    679.000    621.638     57.362    592.337    606.347    607.635    592.337    592.337
 25.670    616.000    618.772     -2.772    591.940    602.437    608.279    591.940    591.940
 25.770    656.869    617.624     39.245    591.545    600.136    609.037    591.545    591.545
 25.870    663.000    617.419     45.581    591.153    598.648    609.925    591.153    591.153
 25.970    652.000    617.780     34.220    590.763    597.579    610.964    590.763    590.763
 26.070    643.000    618.555     24.445    590.375    596.752    612.179    590.375    590.375
 26.170    657.000    619.694     37.306    589.990    596.087    613.597    589.990    589.990
 26.270    616.695    621.194     -4.498    589.607    595.544    615.256    589.607    589.607
 26.370    605.000    623.080    -18.080    589.226    595.103    617.202    589.226    589.226
 26.470    670.000    625.391     44.609    588.847    594.751    619.485    588.847    588.847
 26.570    676.703    628.181     48.522    588.471    594.474    622.176    588.471    588.471
 26.670    600.000    631.543    -31.543    588.098    594.274    625.364    588.098    588.098
 26.770    598.404    635.593    -37.189    587.726    594.154    629.162    587.726    587.726
 26.870    659.000    640.489     18.511    587.357    594.123    633.720    587.357    587.357
 26.970    642.000    646.441     -4.441    586.990    594.193    639.234    586.990    586.990
 27.070    672.000    653.735     18.265    586.625    594.383    645.972    586.625    586.625
 27.170    656.000    662.767     -6.767    586.263    594.722    654.302    586.263    586.263
 27.270    672.000    674.098     -2.098    585.903    595.252    664.742    585.903    585.903
 27.370    707.000    688.544     18.456    585.546    596.033    678.047    585.546    585.546
 27.470    677.000    707.380    -30.380    585.190    597.163    695.396    585.190    585.190
 27.570    744.000    732.959     11.041    584.837    598.817    718.963    584.837    584.837
 27.670    762.000    771.035     -9.035    584.487    601.428    754.071    584.487    584.487
 27.770    875.445    838.381     37.063    584.138    606.248    816.234    584.138    584.138
 27.870    974.000    980.782     -6.782    583.792    616.690    947.809    583.792    583.792
 27.970   1238.000   1296.713    -58.713    583.449    640.092   1239.911    583.449    583.449
 28.070   1830.000   1930.080   -100.080    583.107    687.177   1825.706    583.107    583.107
 28.170   2862.000   2971.764   -109.764    582.768    764.737   2789.308    582.768    582.768
 28.270   4103.000   4268.387   -165.387    582.431    861.416   3988.792    582.431    582.431
 28.370   5241.000   5290.650    -49.650    582.097    937.963   4934.244    582.097    582.097
 28.470   5356.220   5411.994    -55.774    581.765    948.078   5045.400    581.765    581.765
 28.570   4803.000   4595.724    207.276    581.435    889.767   4287.339    581.435    581.435
 28.670   3460.000   3491.921    -31.921    581.107    812.761   3260.296    581.107    581.107
 28.770   2688.000   2740.237    -52.237    580.782    766.335   2554.688    580.782    580.782
 28.870   2502.000   2567.442    -65.442    580.459    768.096   2379.761    580.459    580.459
 28.970   2737.000   2824.779    -87.779    580.138    804.685   2600.185    580.138    580.138
 29.070   3201.000   3137.012     63.988    579.820    841.409   2875.454    579.820    579.820
 29.170   3247.000   3121.484    125.516    579.504    841.623   2859.511    579.504    579.504
 29.270   2643.932   2685.953    -42.021    579.190    797.237   2468.110    579.190    579.190
 29.370   2077.000   2064.677     12.323    578.879    733.162   1910.576    578.879    578.879
 29.470   1574.838   1511.747     63.091    578.570    676.009   1414.434    578.570    578.570
 29.570   1146.000   1132.036     13.964    578.263    636.760   1073.611    578.263    578.263
 29.670    959.000    913.941     45.059    577.959    614.253    877.683    577.959    577.959
 29.770    897.000    801.349     95.651    577.656    602.681    776.341    577.656    577.656
 29.870    849.000    743.409    105.591    577.356    596.782    723.992    577.356    577.356
 29.970    820.000    710.266    109.734    577.059    593.471    693.858    577.059    577.059
 30.070    700.000    688.447     11.553    576.763    591.371    673.842    576.763    576.763
 30.170    659.377    672.668    -13.291    576.470    589.963    659.176    576.470    576.470
 30.270    666.897    660.839      6.058    576.180    589.082    647.936    576.180    576.180
 30.370    673.000    652.100     20.900    575.891    588.754    639.235    575.891    575.891
 30.470    599.471    646.339    -46.868    575.605    589.230    632.709    575.605    575.605
 30.570    694.132    644.270     49.861    575.321    591.136    628.447    575.321    575.321
 30.670    673.000    647.550     25.450    575.039    595.569    627.006    575.039    575.039
 30.770    669.000    658.306     10.694    574.760    603.856    629.185    574.760    574.760
 30.870    712.180    677.559     34.621    574.483    616.666    635.337    574.483    574.483
 30.970    797.000    702.624     94.376    574.208    632.529    644.249    574.208    574.208
 31.070    739.000    724.630     14.370    573.935    646.433    652.069    573.935    573.935
 31.170    734.000    730.261      3.739    573.665    650.812    653.052    573.665    573.665
 31.270    663.000    713.440    -50.440    573.397    642.225    644.560    573.397    573.397
 31.370    774.000    683.667     90.333    573.131    626.121    630.640    573.131    573.131
 31.470    709.000    653.998     55.002    572.868    609.974    616.868    572.868    572.868
 31.570    692.000    631.235     60.765    572.606    597.684    606.143    572.606    572.606
 31.670    669.000    616.434     52.566    572.347    589.868    598.904    572.347    572.347
 31.770    647.636    607.744     39.891    572.090    585.482    594.347    572.090    572.090
 31.870    619.000    602.761     16.239    571.836    583.164    591.429    571.836    571.836
 31.970    619.000    599.719     19.281    571.583    581.914    589.386    571.583    571.583
 32.070    658.000    597.659     60.341    571.333    581.193    587.797    571.333    571.333
 32.170    645.467    596.151     49.316    571.085    580.763    586.471    571.085    571.085
 32.270    632.000    595.019     36.981    570.840    580.532    585.324    570.840    570.840
 32.370    604.000    594.187      9.813    570.596    580.466    584.316    570.596    570.596
 32.470    556.575    593.625    -37.050    570.355    580.552    583.426    570.355    570.355
 32.570    619.000    593.321     25.679    570.116    580.796    582.639    570.116    570.116
 32.670    615.968    593.281     22.687    569.879    581.212    581.947    569.879    569.879
 32.770    579.000    593.528    -14.528    569.645    581.824    581.347    569.645    569.645
 32.870    600.000    594.100      5.900    569.413    582.671    580.840    569.413    569.413
 32.970    606.725    595.060     11.665    569.182    583.811    580.430    569.182    569.182
 33.070    636.000    596.502     39.498    568.954    585.326    580.128    568.954    568.954
 33.170    617.000    598.571     18.429    568.729    587.342    579.956    568.729    568.729
 33.270    611.000    601.518      9.482    568.505    590.071    579.949    568.505    568.505
 33.370    621.000    605.840     15.160    568.284    593.934    580.186    568.284    568.284
 33.470    651.000    612.644     38.356    568.064    599.863    580.841    568.064    568.064
 33.570    613.945    624.371    -10.426    567.847    609.909    582.303    567.847    567.847
 33.670    631.980    645.817    -13.837    567.633    628.101    585.338    567.633    567.633
 33.770    685.005    684.688      0.317    567.420    660.913    591.178    567.420    567.420
 33.870    716.654    750.065    -33.411    567.209    715.973    601.274    567.209    567.209
 33.970    821.000    847.335    -26.335    567.001    797.807    616.488    567.001    567.001
 34.070    978.000    969.757      8.243    566.795    900.757    635.740    566.795    566.795
 34.170   1052.618   1088.616    -35.998    566.591   1000.710    654.436    566.591    566.591
 34.270   1165.000   1152.388     12.612    566.389   1054.394    664.330    566.389    566.389
 34.370   1056.961   1122.881    -65.920    566.189   1029.727    659.312    566.189    566.189
 34.470    962.579   1019.500    -56.921    565.991    942.999    642.483    565.991    565.991
 34.570    881.585    893.693    -12.108    565.796    837.417    622.074    565.796    565.796
 34.670    835.829    783.930     51.899    565.602    745.297    604.241    565.602    565.602
 34.770    690.000    704.936    -14.936    565.411    679.011    591.341    565.411    565.411
 34.870    634.058    655.296    -21.239    565.222    637.373    583.148    565.222    565.222
 34.970    587.237    626.760    -39.523    565.035    613.454    578.341    565.035    565.035
 35.070    624.000    610.793     13.207    564.850    600.088    575.554    564.850    564.850
 35.170    551.686    601.429    -49.743    564.667    592.261    573.834    564.667    564.667
 35.270    604.000    595.365      8.635    564.486    587.200    572.651    564.486    564.486
 35.370    557.729    591.033    -33.304    564.307    583.586    571.754    564.307    564.307
 35.470    614.000    587.725     26.275    564.131    580.825    571.030    564.131    564.131
 35.570    585.000    585.101     -0.101    563.956    578.631    570.426    563.956    563.956
 35.670    590.000    582.975      7.025    563.784    576.847    569.911    563.784    563.784
 35.770    585.000    581.226      3.774    563.613    575.372    569.467    563.613    563.613
 35.870    590.000    579.771     10.229    563.445    574.134    569.082    563.445    563.445
 35.970    570.000    578.552     -8.552    563.279    573.083    568.747    563.279    563.279
 36.070    618.000    577.523     40.477    563.115    572.181    568.456    563.115    563.115
 36.170    577.000    576.655      0.345    562.952    571.402    568.206    562.952    562.952
 36.270    561.000    575.924    -14.924    562.792    570.722    567.994    562.792    562.792
 36.370    558.000    575.315    -17.315    562.634    570.127    567.821    562.634    562.634
 36.470    528.662    574.816    -46.154    562.478    569.604    567.689    562.478    562.478
 36.570    562.501    574.422    -11.921    562.324    569.145    567.600    562.324    562.324
 36.670    525.000    574.132    -49.132    562.172    568.744    567.559    562.172    562.172
 36.770    544.346    573.950    -29.604    562.022    568.397    567.575    562.022    562.022
 36.870    581.000    573.886      7.114    561.874    568.103    567.657    561.874    561.874
 36.970    550.361    573.962    -23.601    561.728    567.868    567.821    561.728    561.728
 37.070    583.000    574.213      8.787    561.584    567.706    568.091    561.584    561.584
 37.170    553.000    574.713    -21.713    561.441    567.653    568.501    561.441    561.441
 37.270    574.000    575.601     -1.601    561.301    567.783    569.118    561.301    561.301
 37.370    566.815    577.139    -10.324    561.163    568.227    570.075    561.163    561.163
 37.470    571.000    579.795     -8.795    561.027    569.167    571.655    561.027    561.027
 37.570    591.115    584.328      6.786    560.893    570.796    574.425    560.893    560.893
 37.670    620.414    591.816     28.597    560.760    573.202    579.374    560.760    560.760
 37.770    581.638    603.492    -21.853    560.630    576.208    587.912    560.630    560.630
 37.870    663.010    620.173     42.837    560.502    579.175    601.497    560.502    560.502
 37.970    628.129    641.390    -13.261    560.375    580.996    620.766    560.375    560.375
 38.070    629.391    664.771    -35.380    560.251    580.778    644.240    560.251    560.251
 38.170    662.000    685.478    -23.478    560.128    578.711    666.891    560.128    560.128
 38.270    693.000    695.847     -2.847    560.007    575.722    680.129    560.007    560.007
 38.370    639.562    689.782    -50.221    559.888    572.632    677.040    559.888    559.888
 38.470    656.609    669.539    -12.929    559.771    569.927    659.386    559.771    559.771
 38.570    629.000    643.615    -14.615    559.656    567.830    635.446    559.656    559.656
 38.670    627.084    619.539      7.546    559.543    566.343    612.743    559.543    559.543
 38.770    583.000    600.912    -17.912    559.432    565.343    595.003    559.432    559.432
 38.870    575.000    588.223    -13.223    559.322    564.678    582.869    559.322    559.322
 38.970    554.402    580.335    -25.933    559.215    564.227    575.324    559.215    559.215
 39.070    569.000    575.667     -6.667    559.109    563.907    570.870    559.109    559.109
 39.170    571.000    572.880     -1.880    559.005    563.662    568.223    559.005    559.005
 39.270    618.000    571.106     46.894    558.903    563.465    566.544    558.903    558.903
 39.370    546.000    569.870    -23.870    558.803    563.299    565.374    558.803    558.803
 39.470    564.000    568.939     -4.939    558.704    563.156    564.487    558.704    558.704
 39.570    574.000    568.202      5.798    558.608    563.032    563.778    558.608    558.608
 39.670    552.059    567.602    -15.543    558.513    562.924    563.191    558.513    558.513
 39.770    566.691    567.105     -0.414    558.420    562.830    562.695    558.420    558.420
 39.870    528.705    566.689    -37.985    558.329    562.749    562.269    558.329    558.329
 39.970    542.000    566.339    -24.339    558.239    562.680    561.899    558.239    558.239
 40.070    571.000    566.044      4.956    558.152    562.623    561.572    558.152    558.152
 40.170    595.000    565.794     29.206    558.066    562.578    561.282    558.066    558.066
 40.270    623.000    565.584     57.416    557.982    562.544    561.021    557.982    557.982
 40.370    601.000    565.409     35.591    557.899    562.523    560.785    557.899    557.899
 40.470    612.007    565.266     46.741    557.819    562.515    560.570    557.819    557.819
 40.570    587.225    565.154     22.070    557.740    562.521    560.373    557.740    557.740
 40.670    582.484    565.071     17.413    557.663    562.542    560.192    557.663    557.663
 40.770    551.000    565.017    -14.017    557.587    562.580    560.024    557.587    557.587
 40.870    596.485    564.992     31.493    557.513    562.637    559.868    557.513    557.513
 40.970    560.000    564.998     -4.998    557.441    562.716    559.723    557.441    557.441
 41.070    590.626    565.037     25.589    557.371    562.820    559.589    557.371    557.371
 41.170    576.000    565.114     10.886    557.302    562.954    559.463    557.302    557.302
 41.270    516.000    565.233    -49.233    557.235    563.124    559.346    557.235    557.235
 41.370    563.066    565.402     -2.335    557.170    563.336    559.237    557.170    557.170
 41.470    560.742    565.629     -4.888    557.106    563.601    559.136    557.106    557.106
 41.570    522.076    565.929    -43.853    557.044    563.932    559.043    557.044    557.044
 41.670    538.555    566.321    -27.766    556.984    564.347    558.959    556.984    556.984
 41.770    570.000    566.833      3.167    556.925    564.876    558.884    556.925    556.925
 41.870    584.000    567.517     16.483    556.868    565.568    558.820    556.868    556.868
 41.970    602.838    568.472     34.365    556.813    566.518    558.770    556.813    556.813
 42.070    533.000    569.900    -36.900    556.759    567.921    558.742    556.759    556.759
 42.170    500.000    572.193    -72.193    556.707    570.155    558.749    556.707    556.707
 42.270    584.000    576.044      7.956    556.656    573.887    558.819    556.656    556.656
 42.370    564.714    582.494    -17.780    556.607    580.120    558.989    556.607    556.607
 42.470    563.000    592.786    -29.786    556.560    590.051    559.307    556.560    556.560
 42.570    603.000    607.910     -4.910    556.514    604.634    559.809    556.514    556.514
 42.670    661.605    627.835     33.770    556.469    623.840    560.494    556.469    556.469
 42.770    664.000    650.535     13.465    556.427    645.716    561.285    556.427    556.427
 42.870    623.000    671.054    -48.054    556.385    665.492    561.998    556.385    556.385
 42.970    680.281    682.022     -1.741    556.346    676.070    562.356    556.346    556.346
 43.070    679.263    678.246      1.016    556.307    672.449    562.164    556.307    556.307
 43.170    660.000    661.742     -1.742    556.271    656.568    561.497    556.271    556.271
 43.270    598.781    639.470    -40.689    556.236    635.130    560.617    556.236    556.236
 43.370    601.312    617.776    -16.464    556.202    614.247    559.762    556.202    556.202
 43.470    598.000    600.105     -2.105    556.170    597.237    559.059    556.170    556.170
 43.570    551.336    587.406    -36.070    556.139    585.014    558.545    556.139    556.139
 43.670    570.000    579.117     -9.117    556.110    577.037    558.199    556.110    556.110
 43.770    550.000    574.058    -24.058    556.082    572.170    557.976    556.082    556.082
 43.870    557.000    571.057    -14.057    556.056    569.284    557.833    556.056    556.056
 43.970    602.000    569.244     32.756    556.031    567.541    557.737    556.031    556.031
 44.070    580.502    568.083     12.419    556.007    566.425    557.668    556.007    556.007
 44.170    535.000    567.283    -32.283    555.985    565.656    557.615    555.985    555.985
 44.270    590.937    566.701     24.237    555.965    565.095    557.572    555.965    555.965
 44.370    598.653    566.264     32.390    555.946    564.674    557.537    555.946    555.946
 44.470    554.000    565.932    -11.932    555.928    564.353    557.508    555.928    555.928
 44.570    587.000    565.683     21.317    555.911    564.110    557.485    555.911    555.911
 44.670    608.713    565.500     43.213    555.896    563.930    557.467    555.896    555.896
 44.770    553.173    565.371    -12.199    555.883    563.801    557.454    555.883    555.883
 44.870    598.004    565.289     32.715    555.870    563.716    557.444    555.870    555.870
 44.970    543.000    565.246    -22.246    555.860    563.667    557.439    555.860    555.860
 45.070    543.000    565.239    -22.239    555.850    563.651    557.438    555.850    555.850
 45.170    596.000    565.263     30.737    555.842    563.664    557.440    555.842    555.842
 45.270    520.264    565.315    -45.051    555.835    563.703    557.447    555.835    555.835
 45.370    565.000    565.396     -0.396    555.829    563.768    557.457    555.829    555.829
 45.470    580.632    565.502     15.130    555.825    563.855    557.472    555.825    555.825
 45.570    606.225    565.635     40.591    555.822    563.966    557.490    555.822    555.822
 45.670    568.000    565.792      2.208    555.820    564.100    557.512    555.820    555.820
 45.770    545.000    565.976    -20.976    555.819    564.256    557.539    555.819    555.819
 45.870    549.000    566.187    -17.187    555.820    564.437    557.571    555.820    555.820
 45.970    604.000    566.427     37.573    555.822    564.642    557.607    555.822    555.822
 46.070    571.000    566.697      4.303    555.826    564.874    557.648    555.826    555.826
 46.170    522.799    567.000    -44.201    555.830    565.134    557.695    555.830    555.830
 46.270    544.450    567.339    -22.889    555.836    565.427    557.747    555.836    555.836
 46.370    600.000    567.718     32.282    555.843    565.754    557.807    555.843    555.843
 46.470    598.679    568.144     30.535    555.851    566.121    557.873    555.851    555.851
 46.570    611.594    568.622     42.972    555.860    566.534    557.947    555.860    555.860
 46.670    593.201    569.162     24.039    555.871    567.001    558.031    555.871    555.871
 46.770    592.000    569.775     22.225    555.883    567.532    558.124    555.883    555.883
 46.870    560.000    570.479    -10.479    555.896    568.142    558.230    555.896    555.896
 46.970    577.000    571.299      5.701    555.910    568.856    558.351    555.910    555.910
 47.070    581.353    572.284      9.069    555.925    569.715    558.491    555.925    555.925
 47.170    617.705    573.521     44.184    555.941    570.799    558.660    555.941    555.941
 47.270    607.700    575.177     32.523    555.959    572.259    558.873    555.959    555.959
 47.370    587.000    577.541      9.459    555.977    574.357    559.157    555.977    555.977
 47.470    548.000    581.074    -33.074    555.997    577.509    559.554    555.997    555.997
 47.570    598.000    586.397     11.603    556.018    582.279    560.124    556.018    556.018
 47.670    576.451    594.183    -17.732    556.040    589.278    560.928    556.040    556.040
 47.770    591.000    604.908    -13.908    556.063    598.935    562.012    556.063    556.063
 47.870    613.162    618.478     -5.316    556.087    611.164    563.368    556.087    556.087
 47.970    683.000    633.789     49.211    556.112    624.963    564.896    556.112    556.112
 48.070    631.000    648.332    -17.332    556.138    638.051    566.367    556.138    556.138
 48.170    673.000    658.338     14.662    556.165    647.009    567.439    556.165    556.165
 48.270    639.449    660.467    -21.017    556.193    648.800    567.805    556.193    556.193
 48.370    656.000    654.404      1.596    556.223    643.136    567.442    556.223    556.223
 48.470    673.000    643.208     29.792    556.253    632.788    566.633    556.253    556.253
 48.570    651.000    630.835     20.165    556.284    621.342    565.748    556.284    556.284
 48.670    571.000    620.118    -49.118    556.316    611.360    565.053    556.316    556.316
 48.770    657.595    612.442     45.153    556.349    604.092    564.683    556.349    556.349
 48.870    562.029    608.128    -46.099    556.384    599.821    564.680    556.384    556.384
 48.970    593.000    606.888    -13.888    556.419    598.268    565.030    556.419    556.419
 49.070    528.000    608.219    -80.219    556.455    598.960    565.708    556.455    556.455
 49.170    576.000    611.719    -35.719    556.492    601.500    566.704    556.492    556.492
 49.270    596.000    617.301    -21.301    556.530    605.762    568.062    556.530    556.530
 49.370    590.594    625.457    -34.864    556.568    612.092    569.927    556.568    556.568
 49.470    649.967    637.801     12.166    556.608    621.728    572.673    556.608    556.608
 49.570    652.000    658.223     -6.223    556.649    637.698    577.161    556.649    556.649
 49.670    707.602    694.858     12.744    556.690    666.356    585.170    556.690    556.690
 49.770    763.000    762.428      0.572    556.733    719.208    599.914    556.733    556.733
 49.870    846.000    883.185    -37.185    556.776    813.644    626.249    556.776    556.776
 49.970   1073.860   1083.390     -9.530    556.820    970.197    669.905    556.820    556.820
 50.070   1249.000   1382.710   -133.710    556.865   1204.247    735.172    556.865    556.865
 50.170   1759.000   1777.497    -18.497    556.911   1512.952    821.257    556.911    556.911
 50.270   2155.465   2223.981    -68.516    556.957   1862.115    918.610    556.957    556.957
 50.370   2611.000   2630.558    -19.558    557.005   2180.146   1007.238    557.005    557.005
 50.470   2812.000   2874.363    -62.363    557.053   2371.054   1060.276    557.053    557.053
 50.570   2856.000   2861.889     -5.889    557.102   2361.701   1057.327    557.102    557.102
 50.670   2613.464   2599.471     13.992    557.152   2156.967    999.792    557.152    557.152
 50.770   2273.000   2187.426     85.574    557.202   1835.377    909.433    557.202    557.202
 50.870   1680.939   1747.384    -66.445    557.253   1492.117    812.700    557.253    557.253
 50.970   1306.560   1366.737    -60.176    557.305   1195.607    728.584    557.305    557.305
 51.070   1092.000   1085.032      6.968    557.358    976.826    665.675    557.358    557.358
 51.170    848.842    902.781    -53.939    557.412    836.144    624.125    557.412    557.412
 51.270    825.000    798.393     26.607    557.466    756.507    599.407    557.466    557.466
 51.370    724.000    744.283    -20.283    557.521    715.978    585.869    557.521    557.521
 51.470    741.000    716.821     24.179    557.576    695.534    578.901    557.576    557.576
 51.570    739.000    700.115     38.885    557.633    682.207    575.574    557.633    557.633
 51.670    682.000    686.215     -4.215    557.690    669.571    574.361    557.690    557.690
 51.770    703.692    673.099     30.594    557.747    656.301    574.567    557.747    557.747
 51.870    687.000    661.426     25.574    557.806    643.421    575.826    557.806    557.806
 51.970    634.000    652.083    -18.083    557.865    632.183    577.773    557.865    557.865
 52.070    678.000    645.255     32.745    557.924    623.319    579.864    557.924    557.924
 52.170    596.013    640.378    -44.365    557.984    617.019    581.344    557.984    557.984
 52.270    630.000    636.510     -6.510    558.045    613.096    581.458    558.045    558.045
 52.370    673.000    633.004     39.996    558.107    611.192    579.916    558.107    558.107
 52.470    584.965    629.931    -44.966    558.169    610.965    577.133    558.169    558.169
 52.570    601.128    627.862    -26.734    558.231    612.225    573.868    558.231    558.231
 52.670    663.832    627.520     36.313    558.294    615.042    570.771    558.294    558.294
 52.770    675.000    629.761     45.239    558.358    619.884    568.235    558.358    558.358
 52.870    668.000    635.780     32.220    558.422    627.788    566.414    558.422    558.422
 52.970    700.000    647.427     52.573    558.487    640.614    565.300    558.487    558.487
 53.070    675.000    667.508      7.492    558.552    661.246    564.812    558.552    558.552
 53.170    684.411    699.804    -15.393    558.618    693.546    564.873    558.618    558.618
 53.270    802.000    748.550     53.450    558.684    741.789    565.440    558.684    558.684
 53.370    843.000    817.175     25.825    558.751    809.426    566.493    558.751    558.751
 53.470    928.000    906.400     21.600    558.818    897.212    567.998    558.818    558.818
 53.570    990.999   1011.973    -20.974    558.886   1001.006    569.845    558.886    558.886
 53.670   1177.732   1122.363     55.369    558.954   1109.536    571.776    558.954    558.954
 53.770   1187.040   1217.459    -30.418    559.023   1203.054    573.428    559.023    559.023
 53.870   1301.000   1271.853     29.147    559.092   1256.569    574.386    559.092    559.092
 53.970   1276.000   1267.036      8.964    559.162   1251.959    574.259    559.162    559.162
 54.070   1168.000   1205.047    -37.047    559.232   1191.227    573.078    559.232    559.232
 54.170   1045.000   1106.630    -61.630    559.302   1094.732    571.229    559.302    559.302
 54.270    950.000    996.819    -46.819    559.373    987.043    569.176    559.373    559.373
 54.370    936.171    894.291     41.880    559.444    886.492    567.265    559.444    559.444
 54.470    769.000    809.202    -40.202    559.516    803.049    565.686    559.516    559.516
 54.570    702.000    744.812    -42.812    559.587    739.913    564.498    559.587    559.587
 54.670    688.082    699.766    -11.684    559.660    695.759    563.675    559.660    559.660
 54.770    694.571    670.315     24.256    559.732    666.906    563.147    559.732    559.732
 54.870    608.060    652.117    -44.057    559.805    649.095    562.831    559.805    559.805
 54.970    613.000    641.393    -28.393    559.879    638.615    562.658    559.879    559.879
 55.070    635.000    635.378     -0.378    559.952    632.756    562.575    559.952    559.952
 55.170    573.000    632.311    -59.311    560.026    629.789    562.548    560.026    560.026
 55.270    642.602    631.185     11.417    560.100    628.727    562.559    560.100    560.100
 55.370    681.346    631.489     49.856    560.175    629.068    562.596    560.175    560.175
 55.470    621.000    633.001    -12.001    560.249    630.595    562.655    560.249    560.249
 55.570    599.703    635.674    -35.970    560.324    633.263    562.735    560.324    560.324
 55.670    643.000    639.583      3.417    560.400    637.149    562.833    560.400    560.400
 55.770    598.755    644.946    -46.191    560.475    642.466    562.954    560.475    560.475
 55.870    676.000    652.204     23.796    560.551    649.652    563.101    560.551    560.551
 55.970    626.000    662.229    -36.229    560.627    659.570    563.283    560.627    560.627
 56.070    698.000    676.698     21.302    560.703    673.878    563.519    560.703    560.703
 56.170    726.000    698.695     27.305    560.779    695.623    563.842    560.779    560.779
 56.270    741.875    733.476      8.399    560.856    730.006    564.311    560.856    560.856
 56.370    770.000    789.163    -19.163    560.932    785.057    565.015    560.932    560.932
 56.470    851.000    876.796    -25.796    561.009    871.694    566.075    561.009    561.009
 56.570    963.000   1009.035    -46.035    561.086   1002.438    567.630    561.086    561.086
 56.670   1155.966   1196.923    -40.957    561.163   1188.215    569.803    561.163    561.163
 56.770   1417.000   1444.821    -27.821    561.241   1433.340    572.642    561.241    561.241
 56.870   1819.337   1744.452     74.885    561.318   1729.634    576.057    561.318    561.318
 56.970   2121.000   2069.433     51.567    561.395   2051.010    579.760    561.395    561.395
 57.070   2412.000   2371.856     40.144    561.473   2350.090    583.225    561.473    561.473
 57.170   2639.000   2585.795     53.205    561.551   2561.670    585.731    561.551    561.551
 57.270   2645.030   2648.539     -3.510    561.629   2623.707    586.590    561.629    561.629
 57.370   2622.000   2538.435     83.565    561.706   2514.756    585.568    561.706    561.706
 57.470   2439.000   2292.390    146.610    561.784   2271.304    583.073    561.784    561.784
 57.570   1998.000   1978.407     19.593    561.862   1960.603    579.860    561.862    561.862
 57.670   1710.739   1658.875     51.864    561.940   1644.358    576.623    561.940    561.940
 57.770   1315.000   1375.349    -60.349    562.018   1363.657    573.840    562.018    562.018
 57.870   1093.000   1148.457    -55.457    562.096   1138.864    571.784    562.096    562.096
 57.970   1006.074    982.423     23.652    562.175    974.073    570.588    562.175    562.175
 58.070    880.000    870.967      9.033    562.253    862.908    570.351    562.253    562.253
 58.170    767.000    803.331    -36.331    562.331    794.445    571.237    562.331    562.331
 58.270    796.000    769.066     26.934    562.409    757.919    573.563    562.409    562.409
 58.370    744.000    760.679    -16.679    562.487    745.375    577.788    562.487    562.487
 58.470    807.000    774.187     32.813    562.565    752.327    584.411    562.565    562.565
 58.570    777.196    808.089    -30.893    562.643    776.970    593.735    562.643    562.643
 58.670    862.000    861.561      0.439    562.720    818.677    605.568    562.720    562.720
 58.770    944.000    932.517     11.483    562.798    876.328    618.942    562.798    562.798
 58.870   1039.790   1015.982     23.807    562.876    946.822    631.985    562.876    562.876
 58.970   1061.654   1103.266    -41.613    562.953   1024.109    642.061    562.953    562.953
 59.070   1194.000   1183.249     10.751    563.031   1099.758    646.482    563.031    563.031
 59.170   1260.754   1246.561     14.193    563.108   1165.725    643.921    563.108    563.108
 59.270   1241.541   1288.554    -47.013    563.185   1216.383    635.352    563.185    563.185
 59.370   1285.000   1307.025    -22.025    563.263   1247.000    623.301    563.263    563.263
 59.470   1251.000   1300.259    -49.259    563.340   1253.199    610.427    563.340    563.340
 59.570   1288.000   1270.889     17.111    563.416   1235.621    598.717    563.416    563.416
 59.670   1250.028   1229.499     20.529    563.493   1203.738    589.279    563.493    563.493
 59.770   1191.163   1190.816      0.347    563.569   1171.973    582.414    563.569    563.569
 59.870   1239.000   1167.362     71.638    563.646   1153.136    577.838    563.646    563.646
 59.970   1239.000   1166.936     72.064    563.722   1155.603    574.978    563.722    563.722
 60.070   1309.000   1193.534    115.466    563.798   1183.966    573.241    563.798    563.798
 60.170   1254.000   1248.280      5.720    563.873   1239.807    572.172    563.873    563.873
 60.270   1428.000   1327.813    100.187    563.949   1320.047    571.495    563.949    563.949
 60.370   1449.000   1421.322     27.678    564.024   1414.030    571.062    564.024    564.024
 60.470   1569.883   1509.205     60.678    564.099   1502.236    570.797    564.099    564.099
 60.570   1636.995   1565.563     71.432    564.174   1558.816    570.659    564.174    564.174
 60.670   1593.739   1566.905     26.834    564.248   1560.300    570.621    564.248    564.248
 60.770   1523.000   1505.122     17.878    564.322   1498.584    570.673    564.322    564.322
 60.870   1332.395   1392.893    -60.498    564.396   1386.333    570.815    564.396    564.396
 60.970   1270.000   1254.675     15.325    564.470   1247.982    571.061    564.470    564.470
 61.070   1127.000   1114.316     12.684    564.543   1107.352    571.437    564.543    564.543
 61.170    999.000    989.050      9.950    564.616    981.631    571.987    564.616    564.616
 61.270    920.000    888.652     31.348    564.689    880.513    572.792    564.689    564.689
 61.370    846.000    816.673     29.327    564.761    807.404    574.001    564.761    564.761
 61.470    756.000    772.627    -16.627    564.833    761.567    575.864    564.833    564.833
 61.570    770.523    754.499     16.024    564.904    740.592    578.778    564.904    564.904
 61.670    815.000    760.849     54.151    564.976    742.474    583.307    564.976    564.976
 61.770    877.000    791.877     85.123    565.047    766.709    590.155    565.047    565.047
 61.870    824.883    849.202    -24.319    565.117    814.178    600.059    565.117    565.117
 61.970    918.000    934.445    -16.445    565.187    885.936    613.584    565.187    565.187
 62.070    987.000   1047.050    -60.050    565.257    981.315    630.846    565.257    565.257
 62.170   1144.000   1181.957    -37.957    565.326   1095.888    651.213    565.326    565.326
 62.270   1327.000   1327.698     -0.698    565.395   1219.811    673.069    565.395    565.395
 62.370   1432.000   1465.388    -33.388    565.463   1336.935    693.683    565.463    565.463
 62.470   1539.000   1569.819    -30.819    565.531   1425.727    709.390    565.531    565.531
 62.570   1558.449   1615.715    -57.265    565.599   1464.600    716.504    565.599    565.599
 62.670   1573.000   1589.882    -16.882    565.666   1442.275    713.104    565.666    565.666
 62.770   1435.000   1499.668    -64.668    565.733   1365.010    700.271    565.733    565.733
 62.870   1330.000   1367.818    -37.818    565.799   1252.205    681.335    565.799    565.799
 62.970   1256.623   1220.242     36.380    565.864   1125.973    660.090    565.864    565.864
 63.070   1084.000   1077.854      6.146    565.930   1004.161    639.601    565.930    565.930
 63.170    863.000    954.107    -91.107    565.994    898.253    621.840    565.994    565.994
 63.270    813.937    855.348    -41.410    566.058    813.662    607.742    566.058    566.058
 63.370    791.000    782.246      8.754    566.122    750.957    597.408    566.122    566.122
 63.470    749.000    731.827     17.173    566.185    707.596    590.412    566.185    566.185
 63.570    732.569    699.406     33.163    566.247    679.573    586.074    566.247    566.247
 63.670    668.000    680.264    -12.264    566.309    662.850    583.714    566.309    566.309
 63.770    649.000    670.668    -21.668    566.371    654.223    582.803    566.371    566.371
 63.870    679.279    668.316     10.963    566.432    651.688    583.044    566.432    566.432
 63.970    705.651    672.397     33.254    566.492    654.469    584.400    566.492    566.492
 64.070    742.000    683.434     58.566    566.552    662.851    587.107    566.552    566.552
 64.170    693.449    703.032     -9.583    566.611    677.922    591.684    566.611    566.611
 64.270    731.000    733.500     -2.500    566.669    701.205    598.915    566.669    566.669
 64.370    821.000    777.307     43.693    566.727    734.184    609.783    566.727    566.727
 64.470    823.722    836.322    -12.600    566.784    777.707    625.312    566.784    566.784
 64.570    948.667    910.884     37.783    566.841    831.313    646.300    566.841    566.841
 64.670   1043.000    998.778     44.222    566.897    892.577    672.961    566.897    566.897
 64.770   1080.581   1094.312    -13.731    566.952    956.561    704.543    566.952    566.952
 64.870   1208.000   1187.834     20.166    567.007   1015.664    739.000    567.007    567.007
 64.970   1356.000   1266.507     89.493    567.061   1060.583    772.803    567.061    567.061
 65.070   1258.553   1317.153    -58.600    567.114   1083.034    801.060    567.114    567.114
 65.170   1335.116   1330.528      4.588    567.167   1079.208    818.335    567.167    567.167
 65.270   1376.000   1304.720     71.280    567.219   1051.314    820.503    567.219    567.219
 65.370   1320.000   1245.910     74.090    567.270   1006.180    806.911    567.270    567.270
 65.470   1154.000   1166.027    -12.027    567.320    952.447    780.842    567.320    567.320
 65.570   1064.000   1078.301    -14.301    567.370    897.939    747.701    567.370    567.370
 65.670   1002.000    993.392      8.608    567.419    848.053    712.749    567.419    567.419
 65.770    922.186    917.825      4.360    567.468    805.361    679.938    567.468    567.468
 65.870    800.816    854.286    -53.470    567.515    770.127    651.689    567.515    567.515
 65.970    742.000    802.839    -60.839    567.562    741.370    629.050    567.562    567.562
 66.070    746.497    762.292    -15.795    567.608    717.913    612.006    567.608    567.608
 66.170    744.000    731.077     12.923    567.653    698.895    599.852    567.653    567.653
 66.270    656.000    707.591    -51.591    567.698    683.740    591.562    567.698    567.698
 66.370    646.706    690.334    -43.628    567.742    672.002    586.082    567.742    567.742
 66.470    683.000    678.024      4.976    567.785    663.303    582.511    567.785    567.785
 66.570    634.000    669.675    -35.675    567.827    657.337    580.167    567.827    567.827
 66.670    698.039    664.589     33.450    567.868    653.873    578.584    567.868    567.868
 66.770    634.000    662.313    -28.313    567.909    652.749    577.472    567.909    567.909
 66.870    636.750    662.618    -25.869    567.948    653.908    576.657    567.948    567.948
 66.970    702.000    665.539     36.461    567.987    657.477    576.048    567.987    567.987
 67.070    624.000    671.482    -47.482    568.025    663.910    575.597    568.025    568.025
 67.170    722.773    681.424     41.350    568.062    674.195    575.290    568.062    568.062
 67.270    692.462    697.165     -4.703    568.099    690.123    575.139    568.099    568.099
 67.370    743.000    721.623     21.377    568.134    714.580    575.175    568.134    568.134
 67.470    786.000    759.068     26.932    568.169    751.777    575.455    568.169    568.169
 67.570    763.000    815.146    -52.146    568.202    807.281    576.061    568.202    568.202
 67.670    853.363    896.503    -43.141    568.235    887.640    577.088    568.235    568.235
 67.770    995.000   1009.819    -14.819    568.267    999.437    578.635    568.267    568.267
 67.870   1213.000   1160.225     52.775    568.298   1147.730    580.777    568.298    568.298
 67.970   1359.964   1349.243     10.721    568.328   1334.022    583.534    568.328    568.328
 68.070   1529.000   1572.619    -43.619    568.357   1554.129    586.839    568.357    568.357
 68.170   1752.000   1818.439    -66.439    568.385   1796.326    590.505    568.385    568.385
 68.270   2068.000   2065.808      2.192    568.413   2040.043    594.208    568.413    568.413
 68.370   2324.000   2284.624     39.376    568.439   2255.646    597.484    568.439    568.439
 68.470   2528.624   2438.583     90.041    568.464   2407.390    599.772    568.464    568.464
 68.570   2490.000   2495.027     -5.027    568.489   2463.116    600.568    568.489    568.489
 68.670   2423.000   2440.210    -17.210    568.512   2409.282    599.658    568.512    568.512
 68.770   2222.000   2287.523    -65.523    568.535   2259.059    597.248    568.535    568.535
 68.870   2074.000   2069.444      4.556    568.556   2044.422    593.837    568.556    568.556
 68.970   1805.401   1822.298    -16.896    568.577   1801.138    589.984    568.577    568.577
 69.070   1523.446   1576.298    -52.852    568.596   1558.962    586.154    568.596    568.596
 69.170   1311.884   1352.479    -40.595    568.615   1338.611    582.670    568.615    568.615
 69.270   1160.000   1162.876     -2.876    568.632   1151.942    579.717    568.632    568.632
 69.370    967.946   1011.842    -43.896    568.649   1003.244    577.362    568.649    568.649
 69.470    939.000    897.915     41.085    568.664    891.082    575.583    568.664    568.664
 69.570    859.000    815.990     43.010    568.679    810.433    574.296    568.679    568.679
 69.670    814.004    759.381     54.623    568.692    754.710    573.404    568.692    568.692
 69.770    669.909    721.403    -51.495    568.705    717.332    572.804    568.705    568.705
 69.870    756.000    696.342     59.658    568.716    692.670    572.407    568.716    568.716
 69.970    702.000    679.831     22.169    568.726    676.426    572.143    568.726    568.726
 70.070    669.000    668.822      0.178    568.736    665.598    571.967    568.736    568.736
 70.170    657.000    661.343     -4.343    568.744    658.243    571.849    568.744    568.744
 70.270    685.000    656.195     28.805    568.751    653.180    571.769    568.751    568.751
 70.370    629.598    652.693    -23.095    568.757    649.734    571.717    568.757    568.757
 70.470    666.000    650.466     15.534    568.762    647.540    571.688    568.762    568.762
 70.570    658.043    649.344      8.699    568.766    646.429    571.680    568.766    568.766
 70.670    685.000    649.295     35.705    568.768    646.368    571.692    568.768    568.768
 70.770    699.623    650.412     49.210    568.770    647.450    571.728    568.770    568.770
 70.870    603.621    652.950    -49.329    568.770    649.921    571.792    568.770    568.770
 70.970    628.624    657.389    -28.765    568.770    654.253    571.897    568.770    568.770
 71.070    710.000    664.552     45.448    568.768    661.249    572.058    568.768    568.768
 71.170    730.000    675.739     54.261    568.765    672.182    572.304    568.765    568.765
 71.270    662.000    692.877    -30.877    568.761    688.936    572.677    568.761    568.761
 71.370    751.000    718.620     32.380    568.756    714.109    573.232    568.756    568.756
 71.470    730.000    756.336    -26.336    568.750    750.996    574.041    568.750    568.750
 71.570    802.000    809.890     -7.890    568.742    803.379    575.186    568.742    568.742
 71.670    899.000    883.147     15.853    568.734    875.041    576.750    568.734    568.734
 71.770   1015.000    979.187     35.813    568.724    968.994    578.798    568.724    568.724
 71.870   1120.000   1099.283     20.717    568.713   1086.487    581.358    568.713    568.713
 71.970   1213.000   1241.812    -28.812    568.701   1225.931    584.397    568.701    568.701
 72.070   1303.000   1401.253    -98.253    568.688   1381.925    587.799    568.688    568.688
 72.170   1549.000   1567.429    -18.429    568.673   1544.507    591.350    568.673    568.673
 72.270   1747.000   1725.157     21.843    568.657   1698.821    594.732    568.657    568.657
 72.370   1779.852   1854.932    -75.079    568.641   1825.776    597.534    568.641    568.641
 72.470   2013.000   1935.983     77.017    568.623   1905.040    599.319    568.623    568.623
 72.570   2081.000   1952.603    128.397    568.603   1921.235    599.755    568.603    568.603
 72.670   1834.000   1901.151    -67.151    568.583   1870.788    598.768    568.583    568.583
 72.770   1759.894   1792.020    -32.127    568.561   1763.866    596.578    568.561    568.561
 72.870   1723.338   1644.535     78.804    568.538   1619.381    593.590    568.538    568.538
 72.970   1467.000   1479.512    -12.512    568.514   1457.713    590.240    568.514    568.514
 73.070   1374.898   1314.461     60.437    568.488   1296.009    586.891    568.488    568.488
 73.170   1122.000   1161.962    -39.962    568.462   1146.593    583.798    568.462    568.462
 73.270   1087.133   1029.678     57.455    568.434   1016.982    581.109    568.434    568.434
 73.370    898.000    920.973    -22.973    568.405    910.479    578.884    568.405    568.405
 73.470    855.618    835.826     19.791    568.374    827.069    577.121    568.374    568.374
 73.570    762.000    771.906     -9.906    568.343    764.463    575.777    568.343    568.343
 73.670    720.000    725.647     -5.647    568.310    719.153    574.797    568.310    568.310
 73.770    651.000    693.155    -42.155    568.276    687.304    574.120    568.276    568.276
 73.870    650.000    670.838    -20.838    568.240    665.375    573.699    568.240    568.240
 73.970    697.008    655.753     41.255    568.203    650.457    573.495    568.203    568.203
 74.070    692.067    645.703     46.364    568.165    640.375    573.492    568.165    568.165
 74.170    672.000    639.178     32.822    568.126    633.621    573.683    568.126    568.126
 74.270    639.000    635.204      3.796    568.085    629.220    574.072    568.085    568.085
 74.370    622.000    633.177    -11.177    568.044    626.563    574.664    568.044    568.044
 74.470    689.000    632.715     56.285    568.000    625.267    575.458    568.000    568.000
 74.570    650.586    633.529     17.058    567.956    625.059    576.441    567.956    567.956
 74.670    660.432    635.338     25.094    567.910    625.692    577.576    567.910    567.910
 74.770    655.000    637.811     17.189    567.863    626.896    578.804    567.863    567.863
 74.870    644.000    640.534      3.466    567.815    628.343    580.037    567.815    567.815
 74.970    650.000    642.995      7.005    567.765    629.639    581.158    567.765    567.765
 75.070    642.000    644.640     -2.640    567.714    630.354    582.039    567.714    567.714
 75.170    683.804    644.993     38.811    567.661    630.124    582.572    567.661    567.661
 75.270    672.000    643.853     28.147    567.608    628.784    582.719    567.608    567.608
 75.370    660.610    641.405     19.205    567.553    626.457    582.540    567.553    567.553
 75.470    722.000    638.170     83.830    567.496    623.514    582.188    567.496    567.496
 75.570    696.000    634.851     61.149    567.438    620.453    581.866    567.438    567.438
 75.670    672.000    632.203     39.797    567.379    617.799    581.806    567.379    567.379
 75.770    641.000    630.984     10.016    567.319    616.067    582.251    567.319    567.319
 75.870    629.000    631.954     -2.954    567.257    615.753    583.465    567.257    567.257
 75.970    635.000    635.873     -0.873    567.194    617.341    585.726    567.194    567.194
 76.070    624.000    643.488    -19.488    567.130    621.290    589.318    567.130    567.130
 76.170    674.000    655.469     18.531    567.064    628.006    594.508    567.064    567.064
 76.270    676.000    672.324      3.676    566.997    637.787    601.505    566.997    566.997
 76.370    682.000    694.264    -12.264    566.928    650.746    610.406    566.928    566.928
 76.470    756.000    721.062     34.938    566.858    666.730    621.138    566.858    566.858
 76.570    789.167    751.904     37.263    566.787    685.229    633.398    566.787    566.787
 76.670    825.000    785.270     39.730    566.714    705.304    646.605    566.714    566.714
 76.770    832.000    818.851     13.149    566.640    725.537    659.869    566.640    566.640
 76.870    853.000    849.561      3.439    566.565    744.042    671.991    566.565    566.565
 76.970    923.335    873.736     49.598    566.488    758.579    681.549    566.488    566.488
 77.070    917.602    887.774     29.829    566.410    766.947    687.142    566.410    566.410
 77.170    902.801    889.199     13.603    566.330    767.635    687.805    566.330    566.330
 77.270    908.000    877.666     30.334    566.249    760.429    683.407    566.249    566.249
 77.370    853.247    855.117     -1.870    566.167    746.511    674.704    566.167    566.167
 77.470    860.510    824.949     35.561    566.083    727.952    663.024    566.083    566.083
 77.570    747.918    790.876    -42.958    565.998    707.014    649.813    565.998    565.998
 77.670    750.000    756.144     -6.144    565.912    685.679    636.341    565.912    565.912
 77.770    705.000    723.224    -18.224    565.824    665.450    623.570    565.824    565.824
 77.870    744.000    693.767     50.233    565.734    647.335    612.146    565.734    565.734
 77.970    678.000    668.678      9.322    565.644    631.884    602.422    565.644    565.644
 78.070    600.284    648.228    -47.944    565.552    619.263    594.505    565.552    565.552
 78.170    664.709    632.211     32.499    565.458    609.345    588.314    565.458    565.458
 78.270    632.058    620.104     11.954    565.363    601.812    583.648    565.363    565.363
 78.370    592.000    611.233    -19.233    565.267    596.251    580.244    565.267    565.267
 78.470    628.000    604.897     23.103    565.169    592.233    577.828    565.169    565.169
 78.570    583.345    600.458    -17.113    565.070    589.369    576.154    565.070    565.070
 78.670    623.651    597.386     26.265    564.969    587.336    575.016    564.969    564.969
 78.770    605.025    595.276      9.749    564.867    585.884    574.256    564.867    564.867
 78.870    579.663    593.839    -14.176    564.764    584.837    573.762    564.764    564.764
 78.970    610.000    592.878     17.122    564.659    584.075    573.459    564.659    564.659
 79.070    589.000    592.275     -3.275    564.553    583.522    573.302    564.553    564.553
 79.170    591.706    591.961     -0.256    564.445    583.138    573.266    564.445    564.445
 79.270    617.253    591.909     25.344    564.336    582.901    573.341    564.336    564.336
 79.370    570.126    592.121    -21.995    564.226    582.812    573.532    564.226    564.226
 79.470    556.324    592.625    -36.301    564.114    582.879    573.857    564.114    564.114
 79.570    575.000    593.475    -18.475    564.001    583.124    574.347    564.001    564.001
 79.670    567.000    594.756    -27.756    563.886    583.578    575.060    563.886    563.886
 79.770    583.228    596.598    -13.370    563.770    584.281    576.082    563.770    563.770
 79.870    623.605    599.187     24.419    563.652    585.284    577.549    563.652    563.652
 79.970    594.000    602.792     -8.792    563.533    586.656    579.662    563.533    563.533
 80.070    620.000    607.793     12.207    563.413    588.484    582.713    563.413    563.413
 80.170    605.000    614.701     -9.701    563.291    590.883    587.098    563.291    563.291
 80.270    595.433    624.182    -28.749    563.168    594.000    593.336    563.168    563.168
 80.370    609.000    637.045    -28.045    563.043    598.015    602.056    563.043    563.043
 80.470    642.000    654.210    -12.210    562.917    603.142    613.962    562.917    562.917
 80.570    667.000    676.624     -9.624    562.790    609.620    629.766    562.790    562.790
 80.670    703.000    705.151     -2.151    562.661    617.703    650.076    562.661    562.661
 80.770    777.000    740.418     36.582    562.531    627.646    675.264    562.531    562.531
 80.870    811.000    782.631     28.369    562.399    639.673    705.314    562.399    562.399
 80.970    842.000    831.370     10.630    562.266    653.919    739.670    562.266    562.266
 81.070    895.000    885.379      9.621    562.131    670.351    777.112    562.131    562.131
 81.170    946.000    942.431      3.569    561.995    688.687    815.692    561.995    561.995
 81.270   1034.000    999.306     34.694    561.858    708.353    852.769    561.858    561.858
 81.370   1076.000   1052.006     23.994    561.719    728.486    885.206    561.719    561.719
 81.470   1120.000   1096.278     23.722    561.579    748.019    909.816    561.579    561.579
 81.570   1173.020   1128.411     44.609    561.437    765.837    924.004    561.437    561.437
 81.670   1202.000   1145.972     56.028    561.294    780.933    926.342    561.294    561.294
 81.770   1249.000   1148.120    100.880    561.150    792.512    916.782    561.150    561.150
 81.870   1200.000   1135.516     64.484    561.004    800.049    896.511    561.004    561.004
 81.970   1145.000   1110.074     34.926    560.857    803.314    867.669    560.857    560.857
 82.070   1122.000   1074.719     47.281    560.708    802.426    833.063    560.708    560.708
 82.170   1032.000   1032.755     -0.755    560.558    797.668    795.714    560.558    560.558
 82.270    967.000    987.251    -20.251    560.406    789.343    758.387    560.406    560.406
 82.370    981.567    940.809     40.758    560.253    777.859    723.278    560.253    560.253
 82.470    904.059    895.510      8.548    560.099    763.813    691.870    560.099    560.099
 82.570    875.365    852.931     22.434    559.944    747.990    664.955    559.944    559.944
 82.670    775.125    814.097    -38.972    559.787    731.217    642.734    559.787    559.787
 82.770    749.000    779.461    -30.461    559.628    714.188    624.962    559.628    559.628
 82.870    701.643    748.999    -47.356    559.468    697.410    611.113    559.468    559.468
 82.970    732.636    722.434     10.202    559.307    681.261    600.530    559.307    559.307
 83.070    645.000    699.450    -54.450    559.144    666.084    592.554    559.144    559.144
 83.170    712.646    679.811     32.835    558.980    652.229    586.600    558.980    558.980
 83.270    622.670    663.371    -40.701    558.815    640.024    582.192    558.815    558.815
 83.370    607.133    650.033    -42.900    558.648    629.735    578.969    558.648    558.648
 83.470    596.270    639.716    -43.446    558.480    621.538    576.672    558.480    558.480
 83.570    598.000    632.320    -34.320    558.311    615.514    575.123    558.311    558.311
 83.670    576.000    627.712    -51.712    558.140    611.651    574.200    558.140    558.140
 83.770    569.000    625.697    -56.697    557.968    609.843    573.812    557.968    557.968
 83.870    620.601    626.000     -5.398    557.794    609.894    573.883    557.794    557.794
 83.970    572.000    628.250    -56.250    557.619    611.515    574.329    557.619    557.619
 84.070    641.136    631.972      9.164    557.443    614.329    575.053    557.443    557.443
 84.170    625.000    636.588    -11.588    557.265    617.876    575.938    557.265    557.265
 84.270    615.000    641.430    -26.430    557.086    621.627    576.845    557.086    557.086
 84.370    669.704    645.768     23.936    556.906    625.004    577.621    556.906    556.906
 84.470    670.332    648.869     21.463    556.724    627.434    578.108    556.724    556.724
 84.570    693.031    650.112     42.919    556.541    628.428    578.174    556.541    556.541
 84.670    641.000    649.124     -8.124    556.357    627.693    577.738    556.357    556.357
 84.770    620.339    645.875    -25.536    556.171    625.199    576.800    556.171    556.171
 84.870    604.000    640.672    -36.672    555.984    621.181    575.433    555.984    555.984
 84.970    599.000    634.044    -35.044    555.796    616.040    573.762    555.796    555.796
 85.070    628.000    626.596      1.404    555.606    610.238    571.932    555.606    555.606
 85.170    643.982    618.907     25.075    555.416    604.211    570.085    555.416    555.416
 85.270    621.000    611.472      9.528    555.223    598.326    568.347    555.223    555.223
 85.370    581.000    604.680    -23.680    555.030    592.864    566.826    555.030    555.030
 85.470    581.000    598.808    -17.808    554.835    588.015    565.612    554.835    554.835
 85.570    587.884    594.033     -6.149    554.639    583.882    564.776    554.639    554.639
 85.670    604.000    590.444     13.556    554.441    580.497    564.375    554.441    554.441
 85.770    587.170    588.059     -0.889    554.243    577.836    564.453    554.243    554.243
 85.870    556.174    586.849    -30.675    554.043    575.839    565.040    554.043    554.043
 85.970    556.000    586.753    -30.753    553.841    574.428    566.154    553.841    553.841
 86.070    568.742    587.693    -18.951    553.639    573.527    567.791    553.639    553.639
 86.170    570.223    589.578    -19.355    553.435    573.072    569.925    553.435    553.435
 86.270    622.000    592.311     29.689    553.230    573.023    572.499    553.230    553.230
 86.370    632.554    595.786     36.768    553.024    573.371    575.417    553.024    553.024
 86.470    631.004    599.889     31.114    552.816    574.138    578.542    552.816    552.816
 86.570    555.000    604.495    -49.495    552.607    575.382    581.692    552.607    552.607
 86.670    585.000    609.467    -24.467    552.397    577.190    584.641    552.397    552.397
 86.770    592.145    614.662    -22.517    552.186    579.677    587.134    552.186    552.186
 86.870    639.411    619.952     19.458    551.974    582.975    588.908    551.974    551.974
 86.970    582.565    625.253    -42.688    551.760    587.219    589.745    551.760    551.760
 87.070    621.000    630.564     -9.564    551.545    592.535    589.519    551.545    551.545
 87.170    629.000    635.986     -6.986    551.329    599.013    588.239    551.329    551.329
 87.270    657.946    641.683     16.264    551.112    606.685    586.039    551.112    551.112
 87.370    666.000    647.818     18.182    550.893    615.497    583.135    550.893    550.893
 87.470    664.000    654.475      9.525    550.674    625.289    579.771    550.674    550.674
 87.570    677.822    661.596     16.227    550.453    635.770    576.178    550.453    550.453
 87.670    669.000    668.951      0.049    550.231    646.515    572.557    550.231    550.231
 87.770    672.000    676.130     -4.130    550.008    656.951    569.067    550.008    550.008
 87.870    637.843    682.558    -44.715    549.783    666.386    565.828    549.783    549.783
 87.970    687.122    687.548     -0.427    549.558    674.056    562.919    549.558    549.558
 88.070    708.000    690.425     17.575    549.331    679.246    560.378    549.331    549.331
 88.170    709.368    690.694     18.674    549.103    681.454    558.214    549.103    549.103
 88.270    684.000    688.196     -4.196    548.875    680.543    556.406    548.875    548.875
 88.370    716.000    683.169     32.831    548.645    676.781    554.922    548.645    548.645
 88.470    676.000    676.167     -0.167    548.413    670.764    553.718    548.413    548.413
 88.570    672.000    667.912      4.088    548.181    663.259    552.750    548.181    548.181
 88.670    666.000    659.170      6.830    547.948    655.071    551.978    547.948    547.948
 88.770    642.349    650.664     -8.315    547.714    646.958    551.365    547.714    547.714
 88.870    653.941    643.031     10.910    547.478    639.587    550.881    547.478    547.478
 88.970    596.000    636.785    -40.785    547.242    633.494    550.505    547.242    547.242
 89.070    634.000    632.293      1.707    547.004    629.065    550.216    547.004    547.004
 89.170    614.084    629.751    -15.667    546.765    626.512    549.999    546.765    546.765
 89.270    587.581    629.186    -41.605    546.526    625.874    549.842    546.526    546.526
 89.370    633.291    630.453      2.838    546.285    627.022    549.731    546.285    546.285
 89.470    625.000    633.254     -8.254    546.043    629.668    549.653    546.043    546.043
 89.570    622.870    637.152    -14.283    545.800    633.393    549.592    545.800    545.800
 89.670    634.000    641.598     -7.598    545.556    637.663    549.532    545.556    545.556
 89.770    643.678    645.959     -2.282    545.312    641.865    549.453    545.312    545.312
 89.870    667.000    649.562     17.438    545.066    645.345    549.336    545.066    545.066
 89.970    689.746    651.771     37.975    544.819    647.486    549.163    544.819    544.819
 90.070    625.826    652.097    -26.271    544.571    647.811    548.919    544.571    544.571
 90.170    609.339    650.298    -40.959    544.323    646.085    548.599    544.323    544.323
 90.270    647.000    646.431      0.569    544.073    642.360    548.205    544.073    544.073
 90.370    637.147    640.808     -3.661    543.822    636.939    547.750    543.822    543.822
 90.470    605.000    633.898    -28.898    543.571    630.273    547.251    543.571    543.571
 90.570    598.426    626.214    -27.788    543.318    622.858    546.724    543.318    543.318
 90.670    588.831    618.242    -29.411    543.065    615.163    546.188    543.065    543.065
 90.770    673.000    610.395     62.605    542.811    607.589    545.655    542.811    542.811
 90.870    577.000    603.003    -26.003    542.555    600.453    545.137    542.555    542.555
 90.970    621.912    596.302     25.610    542.299    593.984    544.643    542.299    542.299
 91.070    580.886    590.443     -9.557    542.042    588.330    544.177    542.042    542.042
 91.170    594.759    585.500      9.259    541.784    583.559    543.741    541.784    541.784
 91.270    558.872    581.479    -22.608    541.526    579.680    543.337    541.526    541.526
 91.370    592.000    578.343     13.657    541.266    576.655    542.962    541.266    541.266
 91.470    553.000    576.021    -23.021    541.006    574.417    542.615    541.006    541.006
 91.570    528.307    574.434    -46.126    540.745    572.889    542.292    540.745    540.745
 91.670    540.000    573.506    -33.506    540.483    571.998    541.992    540.483    540.483
 91.770    551.159    573.179    -22.020    540.220    571.686    541.711    540.220    540.220
 91.870    579.176    573.421      5.754    539.957    571.925    541.450    539.957    539.957
 91.970    598.000    574.235     23.765    539.692    572.715    541.207    539.692    539.692
 92.070    614.833    575.658     39.174    539.427    574.094    540.985    539.427    539.427
 92.170    557.603    577.766    -20.163    539.161    576.134    540.786    539.161    539.161
 92.270    568.477    580.667    -12.190    538.895    578.940    540.612    538.895    538.895
 92.370    553.745    584.500    -30.755    538.628    582.647    540.468    538.628    538.628
 92.470    588.000    589.425     -1.425    538.360    587.409    540.359    538.360    538.360
 92.570    593.000    595.608     -2.608    538.091    593.390    540.289    538.091    538.091
 92.670    579.000    603.213    -24.213    537.821    600.748    540.262    537.821    537.821
 92.770    581.000    612.383    -31.383    537.551    609.624    540.280    537.551    537.551
 92.870    664.473    623.220     41.253    537.281    620.120    540.345    537.281    537.281
 92.970    648.000    635.771     12.229    537.009    632.283    540.455    537.009    537.009
 93.070    650.000    650.013     -0.013    536.737    646.096    540.606    536.737    536.737
 93.170    677.000    665.837     11.163    536.465    661.454    540.792    536.465    536.465
 93.270    712.000    683.039     28.961    536.191    678.164    541.003    536.191    536.191
 93.370    766.000    701.312     64.688    535.918    695.930    541.229    535.918    535.918
 93.470    729.000    720.252      8.748    535.643    714.358    541.460    535.643    535.643
 93.570    730.746    739.374     -8.628    535.368    732.974    541.685    535.368    535.368
 93.670    809.563    758.168     51.395    535.093    751.274    541.899    535.093    535.093
 93.770    732.000    776.178    -44.178    534.816    768.797    542.106    534.816    534.816
 93.870    807.011    793.151     13.859    534.540    785.276    542.322    534.540    534.540
 93.970    831.284    809.077     22.207    534.263    800.665    542.580    534.263    534.263
 94.070    821.674    824.168     -2.494    533.985    815.130    542.929    533.985    533.985
 94.170    904.000    838.797     65.203    533.707    828.983    543.427    533.707    533.707
 94.270    862.000    853.348      8.652    533.428    842.546    544.137    533.428    533.428
 94.370    821.482    868.100    -46.618    533.149    856.040    545.116    533.149    533.149
 94.470    840.389    883.166    -42.776    532.870    869.533    546.411    532.870    532.870
 94.570    933.000    898.520     34.480    532.590    882.974    548.046    532.590    532.590
 94.670    950.000    914.062     35.938    532.309    896.260    550.022    532.309    532.309
 94.770    940.000    929.664     10.336    532.029    909.296    552.308    532.029    532.029
 94.870    910.000    945.159    -35.159    531.747    921.979    554.842    531.747    531.747
 94.970   1014.163    960.260     53.903    531.466    934.119    557.525    531.466    531.466
 95.070   1000.000    974.449     25.551    531.184    945.328    560.226    531.184    531.184
 95.170    918.000    986.909    -68.909    530.902    954.950    562.786    530.902    530.902
 95.270    944.000    996.535    -52.535    530.619    962.060    565.025    530.619    530.619
 95.370   1016.000   1002.049     13.951    530.336    965.565    566.758    530.336    530.336
 95.470   1021.048   1002.209     18.839    530.053    964.393    567.815    530.053    530.053
 95.570    980.000    996.102    -16.102    529.770    957.756    568.071    529.770    529.770
 95.670   1035.000    983.414     51.586    529.486    945.392    567.474    529.486    529.486
 95.770   1003.000    964.598     38.402    529.202    927.717    566.059    529.202    529.202
 95.870    899.157    940.778    -41.620    528.918    905.746    563.933    528.918    528.918
 95.970    915.000    913.562      1.438    528.634    880.928    561.258    528.634    528.634
 96.070    922.000    884.794     37.206    528.349    854.923    558.216    528.349    528.349
 96.170    883.000    856.356     26.644    528.065    829.432    554.988    528.065    528.065
 96.270    858.717    830.051     28.666    527.780    806.089    551.741    527.780    527.780
 96.370    799.496    807.533     -8.038    527.495    786.409    548.617    527.495    527.495
 96.470    738.348    790.281    -51.933    527.210    771.759    545.727    527.210    527.210
 96.570    808.512    779.575     28.938    526.924    763.335    543.154    526.924    526.924
 96.670    855.000    776.489     78.511    526.639    762.163    540.948    526.639    526.639
 96.770    826.685    781.886     44.799    526.354    769.082    539.133    526.354    526.354
 96.870    782.000    796.411    -14.411    526.068    784.735    537.710    526.068    526.068
 96.970    799.899    820.464    -20.565    525.783    809.537    536.664    525.783    525.783
 97.070    875.779    854.174     21.605    525.497    843.647    535.968    525.497    525.497
 97.170    871.979    897.513    -25.534    525.212    887.068    535.588    525.212    525.212
 97.270    951.000    949.965      1.035    524.926    939.324    535.485    524.926    524.926
 97.370   1033.000   1010.672     22.328    524.641    999.599    535.620    524.641    524.641
 97.470   1128.446   1078.336     50.110    524.355   1066.640    535.946    524.355    524.355
 97.570   1090.000   1151.169    -61.169    524.070   1138.706    536.417    524.070    524.070
 97.670   1245.448   1226.847     18.601    523.785   1213.529    536.980    523.785    523.785
 97.770   1281.000   1302.544    -21.544    523.500   1288.338    537.578    523.500    523.500
 97.870   1376.000   1374.897      1.103    523.214   1359.835    538.147    523.214    523.214
 97.970   1488.000   1440.155     47.845    522.930   1424.336    538.622    522.930    522.930
 98.070   1519.000   1494.410     24.590    522.645   1478.002    538.934    522.645    522.645
 98.170   1593.000   1534.016     58.984    522.360   1517.248    539.023    522.360    522.360
 98.270   1596.000   1556.142     39.858    522.076   1539.290    538.840    522.076    522.076
 98.370   1578.000   1559.320     18.680    521.792   1542.680    538.363    521.792    521.792
 98.470   1557.000   1543.740     13.260    521.508   1527.604    537.596    521.508    521.508
 98.570   1533.000   1511.183     21.817    521.225   1495.810    536.570    521.225    521.225
 98.670   1456.453   1464.617     -8.165    520.941   1450.215    535.334    520.941    520.941
 98.770   1388.000   1407.684    -19.684    520.658   1394.400    533.948    520.658    520.658
 98.870   1346.056   1344.232      1.824    520.376   1332.153    532.471    520.376    520.376
 98.970   1224.000   1277.995    -53.995    520.093   1267.152    530.961    520.093    520.093
 99.070   1245.000   1212.395     32.605    519.811   1202.768    529.468    519.811    519.811
 99.170   1147.465   1150.441     -2.976    519.530   1141.969    528.032    519.530    519.530
 99.270   1119.000   1094.688     24.312    519.249   1087.279    526.686    519.249    519.249
 99.370   1108.642   1047.249     61.393    518.968   1040.787    525.454    518.968    518.968
 99.470    979.000   1009.820    -30.820    518.688   1004.174    524.351    518.688    518.688
 99.570   1004.000    983.721     20.279    518.408    978.753    523.387    518.408    518.408
 99.670    966.000    969.923     -3.923    518.129    965.494    522.561    518.129    518.129
 99.770    954.000    969.075    -15.075    517.850    965.049    521.872    517.850    517.850
 99.870    938.012    981.516    -43.504    517.572    977.766    521.309    517.572    517.572
 99.970   1044.451   1007.286     37.166    517.294   1003.698    520.863    517.294    517.294
100.070   1066.000   1046.133     19.867    517.017   1042.606    520.519    517.017    517.017
100.170   1063.000   1097.504    -34.504    516.740   1093.952    520.264    516.740    516.740
100.270   1205.183   1160.530     44.653    516.464   1156.884    520.080    516.464    516.464
100.370   1239.522   1234.001      5.521    516.189   1230.207    519.953    516.189    516.189
100.470   1255.423   1316.325    -60.902    515.915   1312.347    519.866    515.915    515.915
100.570   1447.883   1405.502     42.381    515.641   1401.319    519.802    515.641    515.641
100.670   1421.956   1499.093    -77.138    515.368   1494.702    519.746    515.368    515.368
100.770   1635.000   1594.256     40.744    515.095   1589.669    519.681    515.095    515.095
100.870   1658.695   1687.897    -29.202    514.824   1683.140    519.594    514.824    514.824
100.970   1804.000   1776.775     27.225    514.553   1771.888    519.472    514.553    514.553
101.070   2031.000   1857.868    173.132    514.283   1852.896    519.306    514.283    514.283
101.170   1989.000   1928.632     60.368    514.013   1923.625    519.094    514.013    514.013
101.270   1964.000   1987.164    -23.164    513.745   1982.166    518.838    513.745    513.745
101.370   2073.954   2032.153     41.801    513.478   2027.199    518.546    513.478    513.478
101.470   2085.000   2062.686     22.314    513.211   2057.800    518.230    513.211    513.211
101.570   2032.000   2078.041    -46.041    512.945   2073.232    517.904    512.945    512.945
101.670   2037.000   2077.621    -40.621    512.681   2072.884    517.581    512.681    512.681
101.770   2112.000   2061.117     50.883    512.417   2056.435    517.273    512.417    512.417
101.870   2034.000   2028.841      5.159    512.154   2024.187    516.990    512.154    512.154
101.970   1967.248   1982.052    -14.805    511.893   1977.390    516.741    511.893    511.893
102.070   2003.591   1923.084     80.506    511.632   1918.375    516.528    511.632    511.632
102.170   1882.000   1855.161     26.839    511.372   1850.364    516.353    511.372    511.372
102.270   1683.000   1781.976    -98.976    511.114   1777.055    516.214    511.114    511.114
102.370   1663.000   1707.201    -44.201    510.857   1702.125    516.103    510.857    510.857
102.470   1666.950   1634.087     32.864    510.600   1628.836    516.011    510.600    510.600
102.570   1541.000   1565.216    -24.216    510.345   1559.783    515.928    510.345    510.345
102.670   1541.000   1502.403     38.597    510.092   1496.792    515.840    510.092    510.092
102.770   1410.000   1446.676    -36.676    509.839   1440.905    515.737    509.839    509.839
102.870   1421.328   1398.315     23.013    509.588   1392.411    515.607    509.588    509.588
102.970   1364.685   1356.913      7.771    509.338   1350.914    515.444    509.338    509.338
103.070   1261.000   1321.463    -60.463    509.089   1315.412    515.240    509.089    509.089
103.170   1294.893   1290.475      4.418    508.842   1284.420    514.990    508.842    508.842
103.270   1235.213   1262.142    -26.929    508.596   1256.138    514.689    508.596    508.596
103.370   1176.000   1234.568    -58.568    508.351   1228.671    514.335    508.351    508.351
103.470   1184.000   1206.023    -22.023    508.108   1200.293    513.924    508.108    508.108
103.570   1120.156   1175.198    -55.042    507.866   1169.690    513.459    507.866    507.866
103.670   1118.050   1141.357    -23.306    507.626   1136.123    512.945    507.626    507.626
103.770   1074.000   1104.370    -30.370    507.387   1099.452    512.389    507.387    507.387
103.870   1071.030   1064.631      6.399    507.150   1060.059    511.803    507.150    507.150
103.970   1048.000   1022.869     25.131    506.914   1018.663    511.199    506.914    506.914
104.070    926.903    979.987    -53.084    506.680    976.155    510.588    506.680    506.680
104.170    858.000    936.932    -78.932    506.447    933.471    509.980    506.447    506.447
104.270    880.000    894.603    -14.603    506.217    891.501    509.386    506.217    506.217
104.370    894.940    853.802     41.138    505.987    851.039    508.811    505.987    505.987
104.470    792.000    815.205    -23.205    505.760    812.758    508.261    505.760    505.760
104.570    791.000    779.345     11.655    505.534    777.187    507.741    505.534    505.534
104.670    740.000    746.607     -6.607    505.310    744.707    507.253    505.310    505.310
104.770    676.118    717.223    -41.105    505.088    715.551    506.796    505.088    505.088
104.870    674.000    691.265    -17.265    504.867    689.796    506.368    504.867    504.867
104.970    713.000    668.747     44.253    504.649    667.448    505.974    504.649    504.649
105.070    662.000    649.522     12.478    504.432    648.365    505.611    504.432    504.432
105.170    627.000    633.374     -6.374    504.217    632.334    505.274    504.217    504.217
105.270    614.000    620.039     -6.039    504.004    619.094    504.963    504.004    504.004
105.370    633.614    609.227     24.387    503.793    608.357    504.673    503.793    503.793
105.470    653.000    600.646     52.354    503.584    599.834    504.404    503.584    503.584
105.570    610.000    594.015     15.985    503.377    593.246    504.152    503.377    503.377
105.670    624.000    589.085     34.915    503.173    588.345    503.915    503.173    503.173
105.770    549.380    585.641    -36.260    502.970    584.917    503.693    502.970    502.970
105.870    592.000    583.509      8.491    502.769    582.791    503.484    502.769    502.769
105.970    601.489    582.559     18.929    502.571    581.837    503.288    502.571    502.571
106.070    591.000    582.702      8.298    502.374    581.966    503.104    502.374    502.374
106.170    618.587    583.885     34.703    502.180    583.124    502.932    502.180    502.180
106.270    598.214    586.084     12.131    501.988    585.288    502.772    501.988    501.988
106.370    591.000    589.300      1.700    501.798    588.459    502.625    501.798    501.798
106.470    635.152    593.551     41.601    501.611    592.654    502.491    501.611    501.611
106.570    642.000    598.862     43.138    501.426    597.897    502.371    501.426    501.426
106.670    616.000    605.258     10.742    501.243    604.213    502.265    501.243    501.243
106.770    577.272    612.755    -35.483    501.063    611.618    502.174    501.063    501.063
106.870    628.000    621.349      6.651    500.885    620.108    502.097    500.885    500.885
106.970    588.000    631.008    -43.008    500.710    629.650    502.033    500.710    500.710
107.070    650.000    641.657      8.343    500.537    640.174    501.983    500.537    500.537
107.170    690.000    653.181     36.819    500.367    651.562    501.945    500.367    500.367
107.270    705.000    665.409     39.591    500.199    663.649    501.915    500.199    500.199
107.370    711.000    678.124     32.876    500.034    676.218    501.892    500.034    500.034
107.470    693.908    691.052      2.856    499.871    689.001    501.872    499.871    499.871
107.570    733.000    703.876     29.124    499.711    701.684    501.850    499.711    499.711
107.670    772.000    716.238     55.762    499.554    713.914    501.823    499.554    499.554
107.770    754.000    727.753     26.247    499.399    725.313    501.785    499.399    499.399
107.870    717.000    738.037    -21.037    499.248    735.499    501.730    499.248    499.248
107.970    733.000    746.738    -13.738    499.099    744.127    501.655    499.099    499.099
108.070    800.188    753.582     46.606    498.953    750.926    501.556    498.953    498.953
108.170    795.000    758.419     36.581    498.809    755.750    501.429    498.809    498.809
108.270    714.483    761.258    -46.775    498.669    758.607    501.274    498.669    498.669
108.370    800.679    762.270     38.409    498.532    759.667    501.093    498.532    498.532
108.470    771.000    761.769      9.231    498.397    759.239    500.889    498.397    498.397
108.570    730.000    760.160    -30.160    498.266    757.727    500.666    498.266    498.266
108.670    778.060    757.890     20.170    498.137    755.569    500.429    498.137    498.137
108.770    725.000    755.389    -30.389    498.012    753.192    500.183    498.012    498.012
108.870    732.032    753.038    -21.007    497.890    750.972    499.935    497.890    497.890
108.970    753.514    751.141      2.373    497.771    749.207    499.687    497.771    497.771
109.070    748.000    749.904     -1.904    497.655    748.102    499.444    497.655    497.655
109.170    702.320    749.435    -47.115    497.542    747.758    499.210    497.542    497.542
109.270    748.000    749.732     -1.732    497.433    748.173    498.985    497.433    497.433
109.370    743.000    750.689     -7.689    497.326    749.240    498.773    497.326    497.326
109.470    711.000    752.100    -41.100    497.224    750.750    498.574    497.224    497.224
109.570    763.737    753.666     10.070    497.124    752.407    498.388    497.124    497.124
109.670    735.000    755.021    -20.021    497.028    753.842    498.215    497.028    497.028
109.770    771.034    755.755     15.279    496.936    754.648    498.053    496.936    496.936
109.870    781.434    755.458     25.977    496.846    754.415    497.902    496.846    496.846
109.970    720.854    753.768    -32.914    496.761    752.783    497.761    496.761    496.761
110.070    761.000    750.417     10.583    496.679    749.489    497.625    496.679    496.679
110.170    743.000    745.277     -2.277    496.600    744.404    497.493    496.600    496.600
110.270    730.000    738.378     -8.378    496.525    737.551    497.373    496.525    496.525
110.370    702.000    729.866    -27.866    496.454    729.082    497.259    496.454    496.454
110.470    734.000    719.995     14.005    496.387    719.253    497.150    496.387    496.387
110.570    699.000    709.084    -10.084    496.323    708.380    497.048    496.323    496.323
110.670    712.000    697.476     14.524    496.263    696.808    496.950    496.263    496.263
110.770    712.779    685.507     27.272    496.207    684.874    496.859    496.207    496.207
110.870    679.000    673.494      5.506    496.155    672.892    496.773    496.155    496.155
110.970    683.000    661.712     21.288    496.106    661.140    496.694    496.106    496.106
111.070    640.000    650.407    -10.407    496.062    649.862    496.621    496.062    496.062
111.170    620.834    639.787    -18.953    496.021    639.265    496.555    496.021    496.021
111.270    654.000    630.002     23.998    495.985    629.501    496.495    495.985    495.985
111.370    601.000    621.164    -20.164    495.952    620.681    496.443    495.952    495.952
111.470    591.855    613.347    -21.491    495.924    612.879    496.397    495.924    495.924
111.570    604.436    606.584     -2.148    495.900    606.129    496.359    495.900    495.900
111.670    587.616    600.878    -13.263    495.880    600.433    496.327    495.880    495.880
111.770    613.000    596.202     16.798    495.864    595.763    496.303    495.864    495.864
111.870    628.579    592.504     36.075    495.853    592.070    496.285    495.853    495.853
111.970    587.823    589.719     -1.896    495.846    589.287    496.273    495.846    495.846
112.070    547.000    587.767    -40.767    495.843    587.337    496.268    495.843    495.843
112.170    565.000    586.566    -21.566    495.844    586.135    496.269    495.844    495.844
112.270    600.000    586.028     13.972    495.850    585.595    496.276    495.850    495.850
112.370    612.000    586.071     25.929    495.861    585.635    496.288    495.861    495.861
112.470    598.000    586.615     11.385    495.876    586.176    496.305    495.876    495.876
112.570    618.185    587.592     30.593    495.895    587.148    496.328    495.895    495.895
112.670    589.000    588.938      0.062    495.919    588.490    496.356    495.919    495.919
112.770    623.000    590.607     32.393    495.948    590.154    496.389    495.948    495.948
112.870    585.000    592.560     -7.560    495.981    592.103    496.426    495.981    495.981
112.970    592.006    594.775     -2.769    496.019    594.313    496.468    496.019    496.019
113.070    614.000    597.244     16.756    496.062    596.777    496.516    496.062    496.062
113.170    586.000    599.972    -13.972    496.110    599.500    496.568    496.110    496.110
113.270    617.000    602.981     14.019    496.162    602.503    496.626    496.162    496.162
113.370    647.879    606.308     41.571    496.220    605.824    496.689    496.220    496.220
113.470    579.992    610.006    -30.014    496.282    609.515    496.759    496.282    496.282
113.570    652.000    614.147     37.853    496.349    613.646    496.836    496.349    496.349
113.670    586.000    618.824    -32.824    496.422    618.311    496.919    496.422    496.422
113.770    582.000    624.161    -42.161    496.499    623.633    497.011    496.499    496.499
113.870    594.685    630.316    -35.631    496.582    629.769    497.111    496.582    496.582
113.970    615.119    637.490    -22.371    496.669    636.920    497.220    496.669    496.669
114.070    648.000    645.943      2.057    496.762    645.344    497.340    496.762    496.762
114.170    674.007    656.002     18.005    496.861    655.368    497.471    496.861    496.861
114.270    664.000    668.080     -4.080    496.964    667.404    497.614    496.964    496.964
114.370    690.000    682.692      7.308    497.073    681.964    497.770    497.073    497.073
114.470    670.000    700.471    -30.471    497.187    699.682    497.941    497.187    497.187
114.570    730.909    722.194      8.715    497.307    721.332    498.127    497.307    497.307
114.670    732.000    748.792    -16.792    497.432    747.844    498.329    497.432    497.432
114.770    747.000    781.373    -34.373    497.562    780.326    498.549    497.562    497.562
114.870    842.000    821.232     20.768    497.698    820.070    498.788    497.698    497.698
114.970    926.000    869.858     56.142    497.840    868.564    499.047    497.840    497.840
115.070    959.407    928.933     30.474    497.988    927.489    499.326    497.988    497.988
115.170    994.000   1000.320     -6.320    498.141    998.708    499.626    498.141    498.141
115.270   1082.537   1086.035     -3.498    498.300   1084.235    499.949    498.300    498.300
115.370   1150.000   1188.209    -38.209    498.464   1186.200    500.293    498.464    498.464
115.470   1347.000   1309.027     37.973    498.635   1306.789    500.659    498.635    498.635
115.570   1458.000   1450.650      7.350    498.812   1448.164    501.047    498.812    498.812
115.670   1589.387   1615.124    -25.737    498.994   1612.370    501.457    498.994    498.994
115.770   1817.820   1804.268     13.552    499.182   1801.227    501.886    499.182    499.182
115.870   1977.000   2019.546    -42.546    499.377   2016.204    502.333    499.377    499.377
115.970   2247.000   2261.941    -14.941    499.577   2258.284    502.797    499.577    499.577
116.070   2571.000   2531.816     39.184    499.784   2527.834    503.276    499.784    499.784
116.170   2820.000   2828.785     -8.785    499.997   2824.473    503.765    499.997    499.997
116.270   3229.069   3151.597     77.471    500.216   3146.953    504.263    500.216    500.216
116.370   3511.000   3498.030     12.970    500.441   3493.056    504.766    500.441    500.441
116.470   3750.789   3864.782   -113.993    500.673   3859.489    505.270    500.673    500.673
116.570   4299.000   4247.633     51.367    500.911   4242.034    505.773    500.911    500.911
116.670   4720.008   4641.125     78.883    501.156   4635.236    506.273    501.156    501.156
116.770   4835.000   5038.789   -203.789    501.407   5032.632    506.768    501.407    501.407
116.870   5495.667   5433.177     62.490    501.664   5426.776    507.256    501.664    501.664
116.970   5792.057   5815.968    -23.911    501.929   5809.351    507.736    501.929    501.929
117.070   5970.000   6178.135   -208.135    502.199   6171.332    508.208    502.199    502.199
117.170   6575.603   6510.185     65.418    502.477   6503.227    508.671    502.477    502.477
117.270   6864.000   6802.497     61.503    502.761   6795.416    509.125    502.761    502.761
117.370   7102.000   7045.783     56.217    503.052   7038.613    509.567    503.052    503.052
117.470   7184.620   7231.673    -47.052    503.350   7224.449    509.997    503.350    503.350
117.570   7453.000   7353.375     99.625    503.655   7346.132    510.412    503.655    503.655
117.670   7475.932   7406.315     69.617    503.966   7399.085    510.811    503.966    503.966
117.770   7491.587   7388.626    102.960    504.285   7381.440    511.193    504.285    504.285
117.870   7410.000   7301.357    108.643    504.611   7294.241    511.555    504.611    504.611
117.970   7012.649   7148.344   -135.695    504.944   7141.322    511.897    504.944    504.944
118.070   6939.000   6935.784      3.216    505.284   6928.876    512.219    505.284    505.284
118.170   6657.000   6671.615    -14.615    505.631   6664.840    512.518    505.631    505.631
118.270   6306.062   6364.852    -58.789    505.985   6358.227    512.796    505.985    505.985
118.370   6003.828   6024.973    -21.145    506.347   6018.514    513.051    506.347    506.347
118.470   5562.000   5661.425    -99.425    506.716   5655.148    513.284    506.716    506.716
118.570   5404.552   5283.254    121.298    507.092   5277.174    513.495    507.092    507.092
118.670   5039.458   4898.837    140.621    507.476   4892.969    513.686    507.476    507.476
118.770   4546.000   4515.703     30.297    507.868   4510.061    513.860    507.868    507.868
118.870   4217.000   4140.412     76.588    508.267   4135.006    514.021    508.267    508.267
118.970   3838.000   3778.475     59.525    508.674   3773.312    514.173    508.674    508.674
119.070   3469.000   3434.329     34.671    509.088   3429.415    514.320    509.088    509.088
119.170   3113.000   3111.343      1.657    509.510   3106.679    514.469    509.510    509.510
119.270   2916.000   2811.868    104.132    509.940   2807.450    514.624    509.940    509.940
119.370   2543.302   2537.312      5.990    510.378   2533.136    514.790    510.378    510.378
119.470   2365.000   2288.249     76.751    510.824   2284.306    514.971    510.824    510.824
119.570   2075.000   2064.540     10.460    511.277   2060.818    515.173    511.277    511.277
119.670   1822.000   1865.457    -43.457    511.739   1861.941    515.399    511.739    511.739
119.770   1650.867   1689.814    -38.947    512.209   1686.487    515.652    512.209    512.209
119.870   1612.000   1536.084     75.916    512.687   1532.926    515.935    512.687    512.687
119.970   1423.000   1402.511     20.489    513.173   1399.502    516.251    513.173    513.173
120.070   1271.000   1287.210    -16.210    513.667   1284.326    516.601    513.667    513.667
120.170   1246.131   1188.248     57.883    514.170   1185.464    516.987    514.170    514.170
120.270   1203.000   1103.721     99.279    514.681   1101.011    517.410    514.681    514.681
120.370   1093.000   1031.806     61.194    515.200   1029.143    517.872    515.200    515.200
120.470    963.000    970.805     -7.805    515.728    968.161    518.373    515.728    515.728
120.570    942.897    919.171     23.726    516.264    916.517    518.914    516.264    516.264
120.670    825.958    875.526    -49.568    516.809    872.831    519.496    516.809    516.809
120.770    805.921    838.659    -32.738    517.363    835.894    520.118    517.363    517.363
120.870    808.866    807.528      1.338    517.925    804.660    520.781    517.925    517.925
120.970    775.045    781.247     -6.203    518.496    778.245    521.487    518.496    518.496
121.070    776.000    759.072     16.928    519.076    755.902    522.235    519.076    519.076
121.170    776.073    740.384     35.689    519.665    737.012    523.026    519.665    519.665
121.270    739.577    724.673     14.904    520.263    721.064    523.862    520.263    520.263
121.370    718.964    711.520      7.444    520.869    707.638    524.744    520.869    520.869
121.470    645.000    700.587    -55.587    521.485    696.393    525.672    521.485    521.485
121.570    641.000    691.593    -50.593    522.110    687.050    526.648    522.110    522.110
121.670    734.427    684.314     50.113    522.744    679.381    527.674    522.744    522.744
121.770    683.687    678.562      5.124    523.387    673.198    528.750    523.387    523.387
121.870    702.000    674.184     27.816    524.040    668.345    529.879    524.040    524.040
121.970    640.000    671.050    -31.050    524.702    664.692    531.061    524.702    524.702
122.070    703.000    669.048     33.952    525.373    662.125    532.298    525.373    525.373
122.170    684.000    668.082     15.918    526.054    660.547    533.592    526.054    526.054
122.270    627.001    668.062    -41.061    526.744    659.869    534.943    526.744    526.744
122.370    654.000    668.907    -14.907    527.444    660.007    536.352    527.444    527.444
122.470    626.768    670.538    -43.770    528.154    660.882    537.818    528.154    528.154
122.570    700.601    672.873     27.728    528.873    662.417    539.340    528.873    528.873
122.670    630.000    675.832    -45.832    529.602    664.532    540.915    529.602    529.602
122.770    671.000    679.330     -8.330    530.341    667.148    542.538    530.341    530.341
122.870    647.431    683.276    -35.845    531.090    670.179    544.204    531.090    531.090
122.970    681.000    687.575     -6.575    531.848    673.539    545.905    531.848    531.848
123.070    664.000    692.123    -28.123    532.617    677.132    547.631    532.617    532.617
123.170    656.000    696.813    -40.813    533.396    680.863    549.372    533.396    533.396
123.270    672.000    701.528    -29.528    534.185    684.628    551.113    534.185    534.185
123.370    699.054    706.147     -7.092    534.985    688.320    552.842    534.985    534.985
123.470    727.000    710.545     16.455    535.794    691.830    554.543    535.794    535.794
123.570    746.870    714.595     32.275    536.614    695.049    556.198    536.614    536.614
123.670    718.000    718.175     -0.175    537.444    697.868    557.790    537.444    537.444
123.770    732.029    721.166     10.864    538.285    700.188    559.305    538.285    538.285
123.870    763.000    723.452     39.548    539.137    701.907    560.725    539.137    539.137
123.970    692.000    724.942    -32.942    539.999    702.948    562.039    539.999    539.999
124.070    736.000    725.626     10.374    540.871    703.309    563.236    540.871    540.871
124.170    703.843    725.442    -21.598    541.754    702.936    564.309    541.754    541.754
124.270    778.000    724.382     53.618    542.649    701.825    565.255    542.649    542.649
124.370    784.000    722.469     61.531    543.554    699.998    566.074    543.554    543.554
124.470    725.000    719.748      5.252    544.470    697.497    566.770    544.470    544.470
124.570    677.000    716.286    -39.286    545.397    694.382    567.349    545.397    545.397
124.670    673.232    712.160    -38.928    546.335    690.724    567.818    546.335    546.335
124.770    722.066    707.458     14.608    547.284    686.600    568.188    547.284    547.284
124.870    702.094    702.273     -0.180    548.244    682.093    568.469    548.244    548.244
124.970    686.683    696.701    -10.018    549.216    677.286    568.672    549.216    549.216
