neutron_powder_diffraction_0091
R_wp: 4.077
Temperature (K): 845.477
Counts: 83562.00
Wavelength (Ã…): 2.52098
COMMENTS
Test file for demonstrating the .xyy file format in Reel1.0
END OF HEADER
   tth       Y_obs     Y_calc      Y_res    Background    Phase_1_Nuc    Phase_1_Mag    Phase_2_Nuc    Phase_2_Mag
  9.970    525.497    548.202    -22.706    546.716    547.811    546.716    547.017    546.806
 10.070    525.899    548.986    -23.087    547.407    548.593    547.407    547.708    547.497
 10.170    668.000    549.770    118.230    548.084    549.375    548.084    548.387    548.176
 10.270    570.541    550.557     19.984    548.748    550.160    548.748    549.053    548.841
 10.370    556.399    551.350      5.049    549.400    550.951    549.400    549.705    549.493
 10.470    557.000    552.154      4.846    550.039    551.752    550.039    550.346    550.133
 10.570    633.000    552.974     80.026    550.665    552.570    550.665    550.973    550.761
 10.670    596.843    553.817     43.026    551.279    553.410    551.279    551.589    551.375
 10.770    593.315    554.692     38.623    551.881    554.283    551.881    552.191    551.978
 10.870    585.000    555.612     29.388    552.470    555.200    552.470    552.782    552.568
 10.970    584.672    556.594     28.077    553.047    556.180    553.047    553.360    553.146
 11.070    603.000    557.663     45.337    553.612    557.247    553.612    553.927    553.712
 11.170    519.864    558.854    -38.990    554.166    558.435    554.166    554.481    554.267
 11.270    628.000    560.221     67.779    554.707    559.799    554.707    555.024    554.809
 11.370    591.000    561.858     29.142    555.236    561.433    555.236    555.554    555.339
 11.470    610.490    563.958     46.532    555.754    563.530    555.754    556.074    555.858
 11.570    590.000    566.959     23.041    556.260    566.527    556.260    556.581    556.365
 11.670    582.200    571.807     10.393    556.754    571.371    556.754    557.077    556.861
 11.770    643.000    580.228     62.772    557.238    579.784    557.238    557.562    557.345
 11.870    602.000    594.585      7.415    557.709    594.130    557.709    558.035    557.818
 11.970    661.331    616.734     44.597    558.170    616.264    558.170    558.497    558.280
 12.070    648.000    645.570      2.430    558.619    645.081    558.619    558.948    558.730
 12.170    651.000    673.534    -22.534    559.058    673.027    559.058    559.388    559.170
 12.270    719.000    685.684     33.316    559.485    685.168    559.485    559.816    559.598
 12.370    703.881    672.769     31.112    559.902    672.258    559.902    560.235    560.016
 12.470    636.000    645.038     -9.038    560.308    644.540    560.308    560.642    560.423
 12.570    562.000    617.321    -55.321    560.703    616.837    560.703    561.038    560.820
 12.670    601.330    596.615      4.715    561.087    596.139    561.087    561.425    561.205
 12.770    588.000    583.655      4.345    561.461    583.185    561.461    561.800    561.581
 12.870    573.000    576.460     -3.460    561.825    575.991    561.825    562.165    561.946
 12.970    534.790    572.677    -37.887    562.178    572.208    562.178    562.520    562.300
 13.070    527.565    570.639    -43.074    562.521    570.168    562.521    562.865    562.645
 13.170    527.057    569.450    -42.394    562.854    568.977    562.854    563.199    562.979
 13.270    528.000    568.703    -40.703    563.177    568.228    563.177    563.524    563.303
 13.370    559.000    568.217     -9.217    563.490    567.739    563.490    563.838    563.618
 13.470    527.724    567.903    -40.179    563.793    567.422    563.793    564.143    563.922
 13.570    534.000    567.710    -33.710    564.086    567.226    564.086    564.438    564.217
 13.670    537.000    567.603    -30.603    564.370    567.117    564.370    564.723    564.502
 13.770    523.000    567.560    -44.560    564.643    567.070    564.643    564.998    564.777
 13.870    562.000    567.564     -5.564    564.908    567.071    564.908    565.264    565.043
 13.970    600.000    567.603     32.397    565.162    567.107    565.162    565.521    565.299
 14.070    603.645    567.668     35.977    565.408    567.168    565.408    565.768    565.546
 14.170    551.000    567.750    -16.750    565.644    567.248    565.644    566.006    565.784
 14.270    595.950    567.847     28.103    565.871    567.340    565.871    566.235    566.013
 14.370    531.335    567.956    -36.621    566.089    567.446    566.089    566.454    566.232
 14.470    557.581    568.092    -10.511    566.298    567.578    566.298    566.665    566.443
 14.570    507.000    568.216    -61.216    566.497    567.699    566.497    566.867    566.645
 14.670    565.000    568.335     -3.335    566.688    567.814    566.688    567.060    566.837
 14.770    527.000    568.454    -41.454    566.870    567.929    566.870    567.244    567.021
 14.870    603.919    568.578     35.341    567.044    568.050    567.044    567.419    567.197
 14.970    558.000    568.767    -10.767    567.209    568.235    567.209    567.586    567.363
 15.070    565.334    568.936     -3.603    567.365    568.400    567.365    567.744    567.522
 15.170    536.759    569.052    -32.292    567.513    568.512    567.513    567.894    567.671
 15.270    551.000    569.158    -18.158    567.652    568.614    567.652    568.035    567.813
 15.370    530.121    569.260    -39.138    567.783    568.712    567.783    568.168    567.946
 15.470    549.000    569.357    -20.357    567.906    568.805    567.906    568.293    568.071
 15.570    594.000    569.449     24.551    568.021    568.892    568.021    568.410    568.188
 15.670    546.000    569.536    -23.536    568.127    568.975    568.127    568.519    568.297
 15.770    494.000    569.617    -75.617    568.226    569.051    568.226    568.620    568.398
 15.870    552.000    569.692    -17.692    568.317    569.122    568.317    568.712    568.491
 15.970    546.000    569.762    -23.762    568.400    569.188    568.400    568.797    568.576
 16.070    584.000    569.826     14.174    568.475    569.247    568.475    568.875    568.654
 16.170    558.000    569.884    -11.884    568.542    569.300    568.542    568.945    568.723
 16.270    581.000    569.935     11.065    568.602    569.346    568.602    569.007    568.786
 16.370    556.000    569.981    -13.981    568.654    569.387    568.654    569.061    568.841
 16.470    545.000    570.020    -25.020    568.699    569.421    568.699    569.108    568.888
 16.570    545.000    570.053    -25.053    568.736    569.449    568.736    569.148    568.928
 16.670    546.000    570.080    -24.080    568.766    569.471    568.766    569.181    568.961
 16.770    587.000    570.101     16.899    568.789    569.486    568.789    569.206    568.987
 16.870    562.000    570.118     -8.118    568.805    569.498    568.805    569.224    569.005
 16.970    576.000    570.136      5.864    568.814    569.510    568.814    569.236    569.017
 17.070    533.000    570.139    -37.139    568.815    569.508    568.815    569.240    569.022
 17.170    548.166    570.135    -21.969    568.810    569.498    568.810    569.237    569.019
 17.270    547.000    570.125    -23.125    568.798    569.482    568.798    569.228    569.010
 17.370    608.475    570.109     38.367    568.779    569.460    568.779    569.211    568.995
 17.470    544.000    570.087    -26.087    568.753    569.432    568.753    569.188    568.972
 17.570    569.000    570.059     -1.059    568.721    569.398    568.721    569.159    568.943
 17.670    604.148    570.026     34.122    568.682    569.359    568.682    569.123    568.908
 17.770    556.000    570.004    -14.004    568.636    569.330    568.636    569.080    568.866
 17.870    536.000    570.014    -34.014    568.584    569.334    568.584    569.031    568.818
 17.970    537.000    569.969    -32.969    568.526    569.282    568.526    568.976    568.763
 18.070    616.000    569.912     46.088    568.462    569.218    568.462    568.914    568.702
 18.170    578.000    569.850      8.150    568.391    569.149    568.391    568.847    568.636
 18.270    581.000    569.782     11.218    568.314    569.074    568.314    568.773    568.563
 18.370    592.353    569.710     22.643    568.231    568.994    568.231    568.693    568.484
 18.470    513.000    569.637    -56.637    568.142    568.915    568.142    568.607    568.399
 18.570    537.934    569.560    -31.627    568.047    568.830    568.047    568.515    568.308
 18.670    529.000    569.472    -40.472    567.946    568.734    567.946    568.418    568.212
 18.770    513.000    569.382    -56.382    567.839    568.636    567.839    568.315    568.110
 18.870    577.000    569.306      7.694    567.727    568.551    567.727    568.206    568.002
 18.970    561.000    569.204     -8.204    567.608    568.441    567.608    568.091    567.889
 19.070    578.729    569.094      9.635    567.485    568.323    567.485    567.971    567.770
 19.170    567.000    568.980     -1.980    567.355    568.200    567.355    567.845    567.646
 19.270    521.000    568.862    -47.862    567.221    568.073    567.221    567.714    567.516
 19.370    554.000    568.748    -14.748    567.080    567.949    567.080    567.578    567.381
 19.470    565.000    568.622     -3.622    566.935    567.814    566.935    567.436    567.241
 19.570    560.261    568.489     -8.228    566.784    567.671    566.784    567.289    567.096
 19.670    547.000    568.351    -21.351    566.628    567.524    566.628    567.137    566.946
 19.770    595.000    568.211     26.789    566.466    567.374    566.466    566.980    566.790
 19.870    550.571    568.066    -17.495    566.300    567.218    566.300    566.818    566.630
 19.970    576.000    567.917      8.083    566.129    567.058    566.129    566.651    566.465
 20.070    550.000    567.775    -17.775    565.952    566.905    565.952    566.479    566.295
 20.170    607.090    567.656     39.434    565.771    566.775    565.771    566.302    566.121
 20.270    567.000    567.498     -0.498    565.585    566.606    565.585    566.121    565.942
 20.370    563.000    567.333     -4.333    565.394    566.429    565.394    565.934    565.758
 20.470    581.180    567.164     14.016    565.198    566.248    565.198    565.744    565.570
 20.570    516.000    566.992    -50.992    564.998    566.063    564.998    565.548    565.377
 20.670    566.960    566.816      0.144    564.793    565.874    564.793    565.348    565.180
 20.770    519.000    566.638    -47.638    564.583    565.683    564.583    565.144    564.979
 20.870    535.862    566.467    -30.605    564.369    565.498    564.369    564.936    564.773
 20.970    552.666    566.331    -13.666    564.151    565.348    564.151    564.723    564.563
 21.070    554.000    566.186    -12.186    563.928    565.188    563.928    564.505    564.350
 21.170    504.000    566.027    -62.027    563.701    565.014    563.701    564.284    564.132
 21.270    592.447    565.847     26.599    563.470    564.819    563.470    564.059    563.910
 21.370    555.000    565.674    -10.674    563.235    564.630    563.235    563.829    563.684
 21.470    519.000    565.488    -46.488    562.995    564.427    562.995    563.596    563.455
 21.570    590.000    565.329     24.671    562.751    564.251    562.751    563.359    563.222
 21.670    568.048    565.135      2.912    562.504    564.040    562.504    563.118    562.985
 21.770    586.167    564.939     21.228    562.252    563.826    562.252    562.873    562.745
 21.870    538.113    564.759    -26.646    561.996    563.626    561.996    562.624    562.501
 21.970    566.000    564.566      1.434    561.737    563.415    561.737    562.372    562.254
 22.070    601.000    564.369     36.631    561.474    563.198    561.474    562.116    562.004
 22.170    561.000    564.184     -3.184    561.207    562.992    561.207    561.857    561.750
 22.270    526.000    563.990    -37.990    560.936    562.777    560.936    561.594    561.493
 22.370    531.000    563.797    -32.797    560.662    562.562    560.662    561.328    561.233
 22.470    541.000    563.608    -22.608    560.385    562.350    560.385    561.059    560.970
 22.570    533.000    563.421    -30.421    560.103    562.139    560.103    560.786    560.704
 22.670    592.506    563.240     29.267    559.819    561.932    559.819    560.510    560.435
 22.770    591.000    563.065     27.935    559.530    561.732    559.530    560.231    560.163
 22.870    543.713    562.899    -19.185    559.239    561.539    559.239    559.949    559.889
 22.970    504.000    562.744    -58.744    558.944    561.357    558.944    559.664    559.612
 23.070    564.263    562.603      1.660    558.646    561.187    558.646    559.376    559.333
 23.170    549.000    562.480    -13.480    558.345    561.034    558.345    559.086    559.051
 23.270    615.000    562.379     52.621    558.041    560.902    558.041    558.792    558.767
 23.370    553.000    562.307     -9.307    557.734    560.798    557.734    558.496    558.481
 23.470    546.000    562.275    -16.275    557.423    560.732    557.423    558.198    558.193
 23.570    569.000    562.294      6.706    557.110    560.716    557.110    557.896    557.902
 23.670    562.000    562.371     -0.371    556.793    560.757    556.793    557.593    557.610
 23.770    522.272    562.534    -40.262    556.474    560.882    556.474    557.287    557.316
 23.870    581.000    562.817     18.183    556.152    561.125    556.152    556.978    557.021
 23.970    558.000    563.279     -5.279    555.827    561.546    555.827    556.668    556.723
 24.070    601.000    564.041     36.959    555.500    562.265    555.500    556.355    556.425
 24.170    627.000    565.368     61.632    555.170    563.547    555.170    556.041    556.125
 24.270    537.742    567.826    -30.084    554.837    565.959    554.837    555.724    555.824
 24.370    558.000    572.447    -14.447    554.502    570.533    554.502    555.405    555.522
 24.470    612.000    580.672     31.328    554.164    578.711    554.164    555.085    555.220
 24.570    585.839    593.743     -7.904    553.823    591.736    553.823    554.763    554.916
 24.670    614.541    611.357      3.185    553.481    609.304    553.481    554.440    554.612
 24.770    650.046    629.615     20.431    553.135    627.514    553.135    554.115    554.308
 24.870    648.669    639.936      8.734    552.788    637.777    552.788    553.789    554.004
 24.970    663.000    635.244     27.756    552.438    633.015    552.438    553.461    553.700
 25.070    625.000    618.962      6.038    552.086    616.650    552.086    553.133    553.396
 25.170    634.000    600.007     33.993    551.732    597.606    551.732    552.803    553.093
 25.270    609.899    584.328     25.571    551.375    581.836    551.375    552.473    552.790
 25.370    606.000    573.595     32.405    551.017    571.012    551.017    552.142    552.489
 25.470    547.000    567.087    -20.087    550.656    564.409    550.656    551.811    552.189
 25.570    590.000    563.362     26.638    550.294    560.587    550.294    551.479    551.890
 25.670    583.000    561.188     21.812    549.929    558.311    549.929    551.147    551.594
 25.770    552.657    559.809     -7.153    549.563    556.825    549.563    550.815    551.300
 25.870    590.947    558.846     32.101    549.195    555.747    549.195    550.483    551.009
 25.970    619.000    558.126     60.874    548.825    554.905    548.825    550.151    550.721
 26.070    594.000    557.571     36.429    548.453    554.222    548.453    549.820    550.437
 26.170    567.144    557.142     10.002    548.079    553.655    548.079    549.491    550.157
 26.270    613.000    556.814     56.186    547.704    553.181    547.704    549.162    549.881
 26.370    575.000    556.575     18.425    547.327    552.785    547.327    548.835    549.611
 26.470    615.000    556.419     58.581    546.948    552.460    546.948    548.509    549.347
 26.570    576.000    556.342     19.658    546.568    552.204    546.568    548.186    549.090
 26.670    550.637    556.347     -5.711    546.186    552.017    546.186    547.865    548.840
 26.770    572.113    556.442     15.671    545.803    551.905    545.803    547.546    548.598
 26.870    511.398    556.637    -45.239    545.418    551.877    545.418    547.231    548.366
 26.970    603.347    556.949     46.398    545.032    551.951    545.032    546.920    548.143
 27.070    587.000    557.403     29.597    544.645    552.149    544.645    546.613    547.932
 27.170    593.000    558.035     34.965    544.256    552.505    544.256    546.311    547.733
 27.270    607.000    558.899     48.101    543.866    553.071    543.866    546.014    547.547
 27.370    554.000    560.069     -6.069    543.475    553.921    543.475    545.722    547.376
 27.470    586.750    561.686     25.064    543.082    555.192    543.082    545.437    547.221
 27.570    583.000    564.070     18.930    542.689    557.205    542.689    545.159    547.083
 27.670    622.000    568.197     53.803    542.294    560.931    542.294    544.889    546.964
 27.770    586.696    576.994      9.702    541.898    569.293    541.898    544.627    546.865
 27.870    636.000    597.624     38.376    541.502    589.452    541.502    544.374    546.788
 27.970    695.000    642.263     52.737    541.104    633.577    541.104    544.130    546.733
 28.070    750.000    721.468     28.532    540.705    712.227    540.705    543.896    546.702
 28.170    846.000    827.468     18.532    540.305    817.636    540.305    543.673    546.695
 28.270    935.000    919.676     15.324    539.904    909.233    539.904    543.459    546.713
 28.370    995.370    942.249     53.121    539.503    931.181    539.503    543.257    546.755
 28.470    938.166    882.674     55.492    539.101    870.953    539.101    543.064    546.822
 28.570    802.000    794.551      7.449    538.698    782.136    538.698    542.880    546.909
 28.670    772.000    737.984     34.016    538.294    724.837    538.294    542.704    547.015
 28.770    762.000    736.840     25.160    537.889    722.934    537.889    542.534    547.134
 28.870    825.000    777.841     47.159    537.484    763.166    537.484    542.366    547.260
 28.970    845.000    822.849     22.151    537.078    807.416    537.078    542.197    547.383
 29.070    845.000    829.568     15.432    536.672    813.400    536.672    542.021    547.494
 29.170    731.002    785.184    -54.182    536.265    768.313    536.265    541.835    547.580
 29.270    723.445    716.430      7.015    535.857    698.904    535.857    541.631    547.626
 29.370    686.190    654.329     31.862    535.449    636.220    535.449    541.402    547.617
 29.470    592.056    612.144    -20.087    535.041    593.551    535.041    541.143    547.540
 29.570    609.000    588.632     20.368    534.632    569.675    534.632    540.847    547.380
 29.670    627.000    576.997     50.003    534.223    557.810    534.223    540.510    547.127
 29.770    570.000    571.208     -1.208    533.813    551.936    533.813    540.129    546.773
 29.870    615.701    567.875     47.826    533.403    548.667    533.403    539.702    546.317
 29.970    524.916    565.564    -40.648    532.993    546.563    532.993    539.231    545.759
 30.070    608.000    563.770     44.230    532.583    545.113    532.583    538.718    545.108
 30.170    594.387    562.352     32.034    532.172    544.158    532.172    538.168    544.373
 30.270    572.213    561.355     10.858    531.761    543.724    531.761    537.587    543.568
 30.370    528.222    561.050    -32.828    531.350    544.060    531.350    536.982    542.708
 30.470    589.000    562.093     26.907    530.939    545.802    530.939    536.359    541.808
 30.570    613.000    565.651     47.349    530.528    550.094    530.528    535.725    540.882
 30.670    574.000    573.153      0.847    530.116    558.347    530.116    535.085    539.942
 30.770    663.000    585.350     77.650    529.705    571.294    529.705    534.443    539.000
 30.870    570.299    600.704    -30.405    529.294    587.389    529.294    533.805    538.064
 30.970    629.000    613.947     15.053    528.882    601.356    528.882    533.173    537.142
 31.070    633.060    617.299     15.761    528.471    605.413    528.471    532.549    536.239
 31.170    579.804    607.436    -27.631    528.060    596.230    528.060    531.934    535.358
 31.270    628.936    590.113     38.823    527.649    579.556    527.649    531.331    534.501
 31.370    572.000    573.006     -1.006    527.238    563.059    527.238    530.739    533.669
 31.470    577.000    560.041     16.959    526.827    550.666    526.827    530.158    532.864
 31.570    581.376    551.734     29.642    526.416    542.890    526.416    529.590    532.084
 31.670    549.236    546.910      2.326    526.006    538.560    526.006    529.032    531.329
 31.770    511.000    544.136    -33.136    525.596    536.245    525.596    528.485    530.598
 31.870    534.000    542.404     -8.404    525.186    534.939    525.186    527.948    529.890
 31.970    519.000    541.193    -22.193    524.777    534.123    524.777    527.421    529.203
 32.070    547.000    540.280      6.720    524.368    533.576    524.368    526.903    528.537
 32.170    562.374    539.579     22.795    523.959    533.214    523.959    526.394    527.889
 32.270    496.509    539.059    -42.550    523.551    533.009    523.551    525.893    527.260
 32.370    516.396    538.710    -22.314    523.143    532.951    523.143    525.399    526.647
 32.470    545.000    538.536      6.464    522.736    533.046    522.736    524.913    526.049
 32.570    501.973    538.549    -36.576    522.329    533.309    522.329    524.433    525.465
 32.670    516.486    538.776    -22.290    521.922    533.767    521.922    523.959    524.894
 32.770    558.468    539.255     19.213    521.516    534.462    521.516    523.491    524.336
 32.870    534.000    540.045     -6.045    521.111    535.450    521.111    523.028    523.788
 32.970    555.000    541.229     13.771    520.706    536.819    520.706    522.570    523.251
 33.070    560.780    542.937     17.843    520.302    538.699    520.302    522.117    522.724
 33.170    579.000    545.390     33.610    519.899    541.313    519.899    521.668    522.206
 33.270    563.000    549.035     13.965    519.496    545.106    519.496    521.224    521.696
 33.370    515.560    554.880    -39.320    519.094    551.089    519.094    520.783    521.193
 33.470    574.000    565.189      8.811    518.692    561.526    518.692    520.345    520.698
 33.570    589.000    584.455      4.545    518.292    580.909    518.292    519.912    520.210
 33.670    641.000    619.875     21.125    517.892    616.437    517.892    519.481    519.728
 33.770    710.000    679.718     30.282    517.493    676.375    517.493    519.054    519.251
 33.870    759.000    768.218     -9.218    517.094    764.962    517.094    518.629    518.780
 33.970    866.000    877.499    -11.499    516.697    874.322    516.697    518.208    518.315
 34.070   1008.000    978.721     29.279    516.300    975.625    516.300    517.789    517.854
 34.170    973.000   1023.229    -50.229    515.904   1020.222    515.904    517.372    517.398
 34.270    994.382    981.254     13.128    515.509    978.343    515.509    516.959    516.946
 34.370    890.661    880.666      9.995    515.115    877.845    515.115    516.547    516.499
 34.470    719.570    770.118    -50.548    514.722    767.373    514.722    516.138    516.055
 34.570    692.000    679.438     12.562    514.330    676.759    514.330    515.731    515.615
 34.670    593.000    617.314    -24.314    513.939    614.693    513.939    515.327    515.178
 34.770    602.000    579.906     22.094    513.549    577.338    513.549    514.924    514.745
 34.870    566.188    559.022      7.166    513.160    556.505    513.160    514.524    514.315
 34.970    567.000    547.373     19.627    512.772    544.903    512.772    514.126    513.889
 35.070    516.541    540.342    -23.800    512.385    537.918    512.385    513.730    513.465
 35.170    535.000    535.578     -0.578    512.000    533.197    512.000    513.335    513.045
 35.270    535.000    532.028      2.972    511.615    529.687    511.615    512.943    512.627
 35.370    533.000    529.222      3.778    511.231    526.920    511.231    512.553    512.212
 35.470    507.187    526.928    -19.741    510.849    524.662    510.849    512.165    511.799
 35.570    536.000    525.010     10.990    510.467    522.778    510.467    511.778    511.389
 35.670    556.000    523.378     32.622    510.087    521.178    510.087    511.394    510.982
 35.770    557.640    521.968     35.673    509.709    519.797    509.709    511.011    510.577
 35.870    519.000    520.733     -1.733    509.331    518.590    509.331    510.630    510.175
 35.970    495.000    519.638    -24.638    508.954    517.522    508.954    510.251    509.775
 36.070    528.000    518.659      9.341    508.579    516.567    508.579    509.874    509.377
 36.170    536.000    517.775     18.225    508.205    515.707    508.205    509.499    508.981
 36.270    492.000    516.973    -24.973    507.833    514.925    507.833    509.125    508.588
 36.370    532.630    516.240     16.390    507.462    514.213    507.462    508.754    508.197
 36.470    510.000    515.570     -5.570    507.092    513.561    507.092    508.384    507.808
 36.570    545.252    514.957     30.295    506.723    512.966    506.723    508.016    507.422
 36.670    517.027    514.398      2.629    506.356    512.424    506.356    507.650    507.037
 36.770    519.000    513.897      5.103    505.990    511.937    505.990    507.286    506.655
 36.870    500.000    513.461    -13.461    505.626    511.516    505.626    506.924    506.274
 36.970    518.514    513.115      5.399    505.263    511.183    505.263    506.563    505.896
 37.070    485.000    512.912    -27.912    504.901    510.991    504.901    506.205    505.520
 37.170    470.000    512.951    -42.951    504.541    511.041    504.541    505.848    505.145
 37.270    526.857    513.393     13.464    504.182    511.492    504.182    505.493    504.773
 37.370    544.370    514.430     29.940    503.825    512.539    503.825    505.140    504.403
 37.470    533.685    516.215     17.470    503.470    514.332    503.470    504.789    504.035
 37.570    505.000    518.710    -13.710    503.115    516.835    503.115    504.440    503.669
 37.670    528.000    521.501      6.499    502.763    519.633    502.763    504.093    503.305
 37.770    509.000    523.666    -14.666    502.412    521.805    502.412    503.747    502.942
 37.870    484.000    524.118    -40.118    502.062    522.263    502.062    503.404    502.582
 37.970    539.050    522.532     16.518    501.714    520.683    501.714    503.063    502.224
 38.070    534.162    519.665     14.497    501.368    517.820    501.368    502.723    501.868
 38.170    530.000    516.446     13.554    501.023    514.604    501.023    502.386    501.513
 38.270    517.000    513.420      3.580    500.680    511.578    500.680    502.050    501.161
 38.370    492.000    510.881    -18.881    500.338    509.038    500.338    501.717    500.811
 38.470    525.000    508.934     16.066    499.999    507.089    499.999    501.385    500.462
 38.570    539.000    507.516     31.484    499.660    505.669    499.660    501.056    500.116
 38.670    478.000    506.492    -28.492    499.324    504.642    499.324    500.729    499.772
 38.770    534.701    505.730     28.971    498.989    503.877    498.989    500.403    499.429
 38.870    511.000    505.133      5.867    498.656    503.277    498.656    500.080    499.089
 38.970    507.000    504.633      2.367    498.324    502.773    498.324    499.759    498.750
 39.070    499.424    504.192     -4.768    497.994    502.328    497.994    499.440    498.414
 39.170    502.127    503.789     -1.663    497.666    501.921    497.666    499.123    498.079
 39.270    524.451    503.414     21.038    497.340    501.540    497.340    498.808    497.746
 39.370    495.000    503.059     -8.059    497.015    501.179    497.015    498.496    497.416
 39.470    470.000    502.721    -32.721    496.693    500.835    496.693    498.185    497.087
 39.570    508.000    502.399      5.601    496.372    500.506    496.372    497.877    496.761
 39.670    517.527    502.091     15.436    496.052    500.189    496.052    497.571    496.436
 39.770    462.217    501.795    -39.578    495.735    499.885    495.735    497.267    496.113
 39.870    516.000    501.507     14.493    495.419    499.588    495.419    496.966    495.793
 39.970    493.000    501.236     -8.236    495.105    499.307    495.105    496.667    495.474
 40.070    484.000    500.978    -16.978    494.793    499.039    494.793    496.370    495.158
 40.170    484.000    500.734    -16.734    494.483    498.783    494.483    496.075    494.843
 40.270    518.764    500.502     18.262    494.175    498.539    494.175    495.783    494.530
 40.370    504.000    500.285      3.715    493.868    498.310    493.868    495.493    494.220
 40.470    484.000    500.083    -16.083    493.564    498.094    493.564    495.205    493.912
 40.570    464.000    499.898    -35.898    493.261    497.896    493.261    494.920    493.605
 40.670    504.606    499.731      4.875    492.960    497.715    492.960    494.638    493.301
 40.770    515.404    499.587     15.818    492.661    497.555    492.661    494.357    492.998
 40.870    452.000    499.467    -47.467    492.364    497.419    492.364    494.080    492.698
 40.970    500.000    499.375      0.625    492.069    497.310    492.069    493.804    492.400
 41.070    516.000    499.317     16.683    491.776    497.235    491.776    493.532    492.104
 41.170    477.000    499.300    -22.300    491.485    497.200    491.485    493.261    491.810
 41.270    503.022    499.333      3.689    491.195    497.213    491.195    492.994    491.518
 41.370    496.000    499.426     -3.426    490.908    497.287    490.908    492.729    491.228
 41.470    479.000    499.597    -20.597    490.622    497.437    490.622    492.467    490.940
 41.570    541.271    499.870     41.401    490.339    497.688    490.339    492.207    490.654
 41.670    484.000    500.283    -16.283    490.057    498.079    490.057    491.950    490.371
 41.770    545.000    500.911     44.089    489.777    498.684    489.777    491.696    490.089
 41.870    543.791    501.900     41.891    489.500    499.648    489.500    491.445    489.810
 41.970    508.000    503.545      4.455    489.224    501.268    489.224    491.196    489.533
 42.070    524.000    506.392     17.608    488.951    504.090    488.951    490.951    489.258
 42.170    553.767    511.323     42.444    488.679    508.996    488.679    490.708    488.985
 42.270    527.503    519.515      7.988    488.409    517.163    488.409    490.468    488.714
 42.370    573.677    532.117     41.561    488.142    529.740    488.142    490.232    488.446
 42.470    517.121    549.606    -32.485    487.876    547.207    487.876    489.998    488.179
 42.570    555.000    570.868    -15.868    487.612    568.447    487.612    489.768    487.915
 42.670    551.000    592.211    -41.211    487.351    589.768    487.351    489.540    487.653
 42.770    623.629    607.129     16.500    487.091    604.662    487.091    489.316    487.393
 42.870    607.378    609.070     -1.692    486.834    606.569    486.834    489.096    487.135
 42.970    593.000    596.893     -3.893    486.578    594.350    486.578    488.878    486.879
 43.070    612.823    576.164     36.660    486.325    573.571    486.325    488.664    486.626
 43.170    557.000    553.977      3.023    486.073    551.331    486.073    488.454    486.375
 43.270    503.000    534.880    -31.880    485.824    532.181    485.824    488.247    486.126
 43.370    523.000    520.592      2.408    485.577    517.840    485.577    488.044    485.879
 43.470    525.000    510.965     14.035    485.331    508.160    485.331    487.844    485.635
 43.570    509.000    504.945      4.055    485.088    502.088    485.088    487.648    485.393
 43.670    521.307    501.313     19.994    484.847    498.403    484.847    487.457    485.153
 43.770    540.000    499.087     40.913    484.608    496.124    484.608    487.269    484.915
 43.870    462.453    497.636    -35.184    484.371    494.617    484.371    487.086    484.680
 43.970    496.066    496.609     -0.543    484.136    493.531    484.136    486.906    484.447
 44.070    483.000    495.828    -12.828    483.904    492.690    483.904    486.732    484.216
 44.170    531.000    495.207     35.793    483.673    492.006    483.673    486.561    483.988
 44.270    479.000    494.700    -15.700    483.444    491.433    483.444    486.396    483.762
 44.370    452.701    494.282    -41.581    483.218    490.946    483.218    486.235    483.538
 44.470    511.000    493.934     17.066    482.993    490.526    482.993    486.080    483.317
 44.570    476.000    493.645    -17.645    482.771    490.161    482.771    485.929    483.098
 44.670    465.000    493.405    -28.405    482.551    489.842    482.551    485.785    482.881
 44.770    460.000    493.208    -33.208    482.333    489.562    482.333    485.645    482.667
 44.870    485.000    493.050     -8.050    482.117    489.317    482.117    485.512    482.456
 44.970    503.000    492.926     10.074    481.903    489.101    481.903    485.385    482.246
 45.070    520.348    492.834     27.515    481.691    488.913    481.691    485.264    482.040
 45.170    514.158    492.772     21.386    481.481    488.750    481.481    485.150    481.836
 45.270    522.540    492.740     29.800    481.274    488.611    481.274    485.044    481.634
 45.370    478.000    492.737    -14.737    481.068    488.495    481.068    484.944    481.435
 45.470    528.460    492.763     35.698    480.865    488.402    480.865    484.853    481.238
 45.570    490.000    492.818     -2.818    480.664    488.332    480.664    484.770    481.045
 45.670    497.000    492.904      4.096    480.464    488.285    480.464    484.696    480.854
 45.770    475.000    493.022    -18.022    480.267    488.262    480.267    484.631    480.665
 45.870    511.948    493.174     18.773    480.072    488.264    480.072    484.576    480.480
 45.970    463.331    493.363    -30.032    479.880    488.295    479.880    484.532    480.297
 46.070    524.000    493.592     30.408    479.689    488.355    479.689    484.498    480.117
 46.170    498.000    493.865      4.135    479.500    488.449    479.500    484.477    479.940
 46.270    497.957    494.188      3.769    479.314    488.580    479.314    484.469    479.767
 46.370    500.000    494.566      5.434    479.130    488.755    479.130    484.475    479.596
 46.470    489.635    495.009     -5.374    478.947    488.981    478.947    484.495    479.429
 46.570    497.106    495.527      1.578    478.767    489.266    478.767    484.531    479.265
 46.670    489.208    496.135     -6.927    478.589    489.625    478.589    484.584    479.104
 46.770    480.299    496.856    -16.557    478.413    490.080    478.413    484.656    478.947
 46.870    482.000    497.728    -15.728    478.239    490.666    478.239    484.747    478.793
 46.970    496.398    498.824     -2.426    478.068    491.455    478.068    484.860    478.644
 47.070    494.000    500.278     -6.278    477.898    492.580    477.898    484.995    478.498
 47.170    476.000    502.334    -26.334    477.730    494.281    477.730    485.155    478.357
 47.270    519.285    505.389     13.896    477.565    496.955    477.565    485.341    478.219
 47.370    484.000    510.002    -26.002    477.402    501.155    477.402    485.556    478.086
 47.470    542.952    516.810     26.142    477.241    507.519    477.241    485.801    477.958
 47.570    501.000    526.318    -25.318    477.081    516.547    477.081    486.079    477.835
 47.670    574.000    538.555     35.445    476.924    528.268    476.924    486.392    477.717
 47.770    562.000    552.659      9.341    476.769    541.816    476.769    486.742    477.604
 47.870    563.000    566.476     -3.476    476.617    555.037    476.617    487.130    477.497
 47.970    602.815    576.571     26.244    476.466    564.498    476.466    487.560    477.396
 48.070    631.000    579.588     51.412    476.317    566.841    476.317    488.033    477.300
 48.170    576.000    574.800      1.200    476.171    561.338    476.171    488.549    477.210
 48.270    544.000    564.865    -20.865    476.026    550.646    476.026    489.110    477.127
 48.370    577.000    553.553     23.447    475.884    538.530    475.884    489.714    477.050
 48.470    551.000    543.618      7.382    475.743    527.746    475.743    490.362    476.979
 48.570    549.000    536.412     12.588    475.605    519.648    475.605    491.050    476.914
 48.670    515.915    532.242    -16.327    475.469    514.548    475.469    491.772    476.854
 48.770    541.000    530.800     10.200    475.335    512.147    475.335    492.521    476.799
 48.870    543.236    531.550     11.686    475.202    511.919    475.202    493.286    476.748
 48.970    504.000    534.004    -30.004    475.072    513.395    475.072    494.055    476.700
 49.070    500.480    537.895    -37.415    474.944    516.324    474.944    494.809    476.652
 49.170    504.358    543.300    -38.942    474.818    520.807    474.818    495.527    476.603
 49.270    548.756    550.905     -2.148    474.694    527.556    474.694    496.187    476.551
 49.370    522.000    562.659    -40.659    474.572    538.548    474.572    496.763    476.493
 49.470    538.451    583.082    -44.630    474.453    558.326    474.453    497.229    476.425
 49.570    628.987    621.311      7.675    474.335    596.054    474.335    497.561    476.347
 49.670    734.825    692.982     41.842    474.219    667.385    474.219    497.742    476.256
 49.770    862.787    819.663     43.125    474.105    793.898    474.105    497.759    476.150
 49.870   1015.233   1022.774     -7.541    473.993    997.027    473.993    497.607    476.029
 49.970   1250.052   1310.713    -60.661    473.883   1285.172    473.883    497.291    475.895
 50.070   1634.000   1662.751    -28.751    473.776   1637.607    473.776    496.825    475.747
 50.170   2083.917   2018.039     65.877    473.670   1993.480    473.670    496.228    475.588
 50.270   2311.000   2280.423     30.577    473.566   2256.611    473.566    495.523    475.420
 50.370   2298.000   2353.559    -55.559    473.464   2330.604    473.464    494.736    475.246
 50.470   2184.000   2205.345    -21.345    473.364   2183.285    473.364    493.892    475.070
 50.570   1847.868   1897.725    -49.856    473.266   1876.549    473.266    493.015    474.892
 50.670   1548.063   1535.491     12.572    473.170   1515.174    473.170    492.127    474.714
 50.770   1150.000   1205.439    -55.439    473.077   1185.956    473.077    491.242    474.540
 50.870    947.196    953.799     -6.603    472.984    935.129    472.984    490.377    474.369
 50.970    762.286    788.785    -26.499    472.894    770.906    472.894    489.540    474.203
 51.070    631.000    694.371    -63.371    472.806    677.257    472.806    488.740    474.043
 51.170    688.000    645.945     42.055    472.720    629.562    472.720    487.981    473.888
 51.270    627.000    621.208      5.792    472.636    605.514    472.636    487.267    473.739
 51.370    638.000    605.140     32.860    472.554    590.089    472.554    486.599    473.596
 51.470    572.089    590.694    -18.605    472.473    576.236    472.473    485.978    473.460
 51.570    597.977    576.445     21.532    472.395    562.531    472.395    485.402    473.329
 51.670    556.025    563.253     -7.229    472.318    549.836    472.318    484.872    473.204
 51.770    562.000    552.132      9.868    472.243    539.167    472.243    484.385    473.084
 51.870    537.604    543.594     -5.990    472.170    531.039    472.170    483.939    472.970
 51.970    561.000    537.655     23.345    472.099    525.471    472.099    483.533    472.861
 52.070    578.000    534.015     43.985    472.030    522.163    472.030    483.165    472.757
 52.170    562.356    532.266     30.089    471.963    520.710    471.963    482.833    472.657
 52.270    533.000    532.067      0.933    471.898    520.772    471.898    482.534    472.562
 52.370    559.000    533.254     25.746    471.834    522.189    471.834    482.268    472.471
 52.470    543.000    535.935      7.065    471.773    525.069    471.773    482.032    472.385
 52.570    555.000    540.608     14.392    471.713    529.912    471.713    481.825    472.302
 52.670    534.230    548.356    -14.126    471.655    537.803    471.655    481.645    472.223
 52.770    565.000    561.120      3.880    471.599    550.683    471.599    481.491    472.147
 52.870    580.000    581.917     -1.917    471.544    571.572    471.544    481.362    472.075
 52.970    647.000    614.761     32.239    471.492    604.485    471.492    481.258    472.006
 53.070    677.000    664.056     12.944    471.441    653.825    471.441    481.176    471.940
 53.170    739.000    733.223      5.777    471.392    723.017    471.392    481.116    471.877
 53.270    836.509    822.673     13.836    471.344    812.471    471.344    481.078    471.818
 53.370    904.000    927.463    -23.463    471.299    917.247    471.299    481.061    471.761
 53.470    987.000   1034.958    -47.958    471.255   1024.711    471.255    481.065    471.706
 53.570   1149.000   1123.594     25.406    471.213   1113.298    471.213    481.089    471.655
 53.670   1102.000   1167.365    -65.365    471.173   1157.004    471.173    481.134    471.606
 53.770   1205.791   1150.402     55.389    471.135   1139.955    471.135    481.199    471.559
 53.870   1100.761   1079.674     21.087    471.098   1069.117    471.098    481.284    471.515
 53.970    957.217    978.725    -21.507    471.063    968.032    471.063    481.389    471.474
 54.070    945.000    871.882     73.118    471.029    861.030    471.029    481.515    471.435
 54.170    862.000    775.710     86.290    470.998    764.677    470.998    481.663    471.398
 54.270    711.940    698.345     13.595    470.968    687.110    470.968    481.832    471.363
 54.370    607.000    641.504    -34.504    470.939    630.048    470.939    482.023    471.331
 54.470    579.959    602.870    -22.910    470.913    591.170    470.913    482.238    471.301
 54.570    591.877    578.296     13.580    470.887    566.333    470.887    482.477    471.273
 54.670    574.701    563.502     11.199    470.864    551.251    470.864    482.741    471.247
 54.770    566.000    555.009     10.991    470.842    542.446    470.842    483.032    471.223
 54.870    605.000    550.415     54.585    470.822    537.514    470.822    483.350    471.201
 54.970    529.463    548.263    -18.800    470.804    534.996    470.804    483.698    471.182
 55.070    589.000    547.756     41.244    470.787    534.094    470.787    484.077    471.164
 55.170    574.000    548.508     25.492    470.771    534.418    470.771    484.490    471.149
 55.270    612.000    550.361     61.639    470.758    535.809    470.758    484.937    471.136
 55.370    575.000    553.296     21.704    470.746    538.246    470.746    485.423    471.124
 55.470    569.738    557.397     12.341    470.735    541.810    470.735    485.948    471.115
 55.570    554.000    562.871     -8.871    470.726    546.703    470.726    486.518    471.108
 55.670    571.000    570.133      0.867    470.718    553.340    470.718    487.133    471.102
 55.770    606.207    580.001     26.206    470.712    562.534    470.712    487.799    471.099
 55.870    592.000    594.065     -2.065    470.708    575.869    470.708    488.518    471.098
 55.970    601.000    615.273    -14.273    470.705    596.290    470.705    489.296    471.098
 56.070    665.000    648.712     16.288    470.703    628.881    470.703    490.135    471.101
 56.170    713.000    702.322     10.678    470.703    681.573    470.703    491.042    471.106
 56.270    778.000    786.997     -8.997    470.705    765.258    470.705    492.021    471.113
 56.370    968.363    915.331     53.031    470.708    892.524    470.708    493.077    471.121
 56.470   1134.545   1098.391     36.154    470.712   1074.436    470.712    494.217    471.132
 56.570   1312.000   1340.590    -28.590    470.718   1315.406    470.718    495.446    471.145
 56.670   1657.619   1633.670     23.949    470.725   1607.177    470.725    496.771    471.160
 56.770   2010.919   1951.252     59.667    470.734   1923.366    470.734    498.198    471.177
 56.870   2231.000   2245.705    -14.705    470.744   2216.342    470.744    499.734    471.196
 56.970   2376.202   2452.221    -76.019    470.755   2421.285    470.755    501.386    471.217
 57.070   2592.000   2510.274     81.726    470.768   2477.641    470.768    503.161    471.241
 57.170   2385.000   2400.309    -15.309    470.783   2365.822    470.783    505.064    471.266
 57.270   2157.000   2159.567     -2.567    470.798   2123.053    470.798    507.102    471.294
 57.370   1823.327   1854.703    -31.376    470.815   1815.991    470.815    509.279    471.324
 57.470   1659.000   1546.414    112.586    470.833   1505.345    470.833    511.598    471.356
 57.570   1182.000   1274.879    -92.879    470.853   1231.303    470.853    514.061    471.391
 57.670   1031.000   1059.620    -28.620    470.874   1013.399    470.874    516.666    471.428
 57.770    916.428    903.941     12.488    470.896    854.947    470.896    519.407    471.467
 57.870    829.000    800.853     28.147    470.919    748.968    470.919    522.275    471.509
 57.970    766.931    739.105     27.826    470.944    684.228    470.944    525.254    471.553
 58.070    680.000    707.894    -27.894    470.970    649.942    470.970    528.321    471.599
 58.170    695.000    699.453     -4.453    470.997    638.375    470.997    531.444    471.648
 58.270    731.000    709.607     21.393    471.026    645.388    471.026    534.582    471.699
 58.370    773.000    736.901     36.099    471.056    669.577    471.056    537.685    471.752
 58.470    697.000    781.043    -84.043    471.086    710.710    471.086    540.693    471.808
 58.570    810.000    841.196    -31.196    471.119    768.019    471.119    543.536    471.865
 58.670    858.000    914.489    -56.489    471.152    838.710    471.152    546.141    471.925
 58.770   1004.000    995.075      8.925    471.186    917.017    471.186    548.427    471.986
 58.870   1096.000   1074.616     21.384    471.222    994.678    471.222    550.321    472.050
 58.970   1162.801   1144.857     17.945    471.259   1063.505    471.259    551.754    472.115
 59.070   1261.200   1199.644     61.556    471.297   1117.396    471.297    552.671    472.182
 59.170   1325.000   1233.690     91.310    471.336   1151.096    471.336    553.038    472.251
 59.270   1239.478   1242.198     -2.720    471.376   1159.821    471.376    552.842    472.322
 59.370   1216.000   1225.401     -9.401    471.417   1143.787    471.417    552.093    472.395
 59.470   1233.144   1192.266     40.878    471.459   1111.924    471.459    550.824    472.470
 59.570   1258.000   1156.742    101.258    471.503   1078.127    471.503    549.088    472.548
 59.670   1221.000   1131.573     89.427    471.547   1055.072    471.547    546.952    472.628
 59.770   1178.000   1126.088     51.912    471.593   1052.016    471.593    544.491    472.712
 59.870   1149.000   1147.000      2.000    471.639   1075.598    471.639    541.783    472.799
 59.970   1224.638   1197.984     26.654    471.687   1129.420    471.687    538.904    472.890
 60.070   1248.330   1276.457    -28.127    471.735   1210.834    471.735    535.923    472.984
 60.170   1357.000   1370.522    -13.522    471.785   1307.888    471.785    532.902    473.083
 60.270   1463.270   1458.695      4.575    471.835   1399.056    471.835    529.892    473.186
 60.370   1463.741   1513.576    -49.835    471.887   1456.900    471.887    526.936    473.293
 60.470   1513.566   1511.372      2.194    471.939   1457.593    471.939    524.065    473.405
 60.570   1547.000   1444.787    102.213    471.992   1393.803    471.992    521.303    473.521
 60.670   1422.000   1327.492     94.508    472.046   1279.176    472.046    518.667    473.641
 60.770   1220.000   1184.601     35.399    472.102   1138.808    472.102    516.168    473.764
 60.870   1029.443   1040.381    -10.938    472.158    996.958    472.158    513.809    473.891
 60.970    935.000    912.273     22.727    472.215    871.066    472.215    511.594    474.021
 61.070    816.000    809.923      6.077    472.272    770.782    472.272    509.521    474.152
 61.170    721.000    736.414    -15.414    472.331    699.197    472.331    507.586    474.284
 61.270    652.000    690.594    -38.594    472.390    655.163    472.390    505.784    474.416
 61.370    718.000    669.730     48.270    472.451    635.959    472.451    504.108    474.546
 61.470    730.000    671.684     58.316    472.512    639.455    472.512    502.552    474.672
 61.570    668.957    695.980    -27.022    472.574    665.184    472.574    501.108    474.794
 61.670    744.141    743.564      0.577    472.636    714.101    472.636    499.768    474.908
 61.770    860.955    815.434     45.521    472.700    787.213    472.700    498.525    475.015
 61.870    881.000    910.597    -29.597    472.764    883.541    472.764    497.371    475.112
 61.970    979.000   1023.985    -44.985    472.829    998.026    472.829    496.299    475.198
 62.070   1064.000   1144.863    -80.863    472.895   1119.946    472.895    495.303    475.272
 62.170   1234.000   1256.192    -22.192    472.961   1232.274    472.961    494.376    475.334
 62.270   1337.668   1336.031      1.637    473.028   1313.075    473.028    493.514    475.385
 62.370   1307.229   1363.630    -56.401    473.096   1341.600    473.096    492.710    475.423
 62.470   1322.000   1330.215     -8.215    473.164   1309.073    473.164    491.962    475.452
 62.570   1117.000   1245.045   -128.045    473.233   1224.747    473.233    491.264    475.470
 62.670   1170.000   1129.023     40.977    473.303   1109.524    473.303    490.613    475.481
 62.770    982.000   1003.895    -21.895    473.373    985.150    473.373    490.007    475.486
 62.870    866.787    886.276    -19.489    473.444    868.244    473.444    489.442    475.485
 62.970    757.000    786.349    -29.349    473.516    768.991    473.516    488.917    475.482
 63.070    659.000    708.305    -49.305    473.588    691.584    473.588    488.428    475.477
 63.170    609.000    651.771    -42.771    473.661    635.653    473.661    487.973    475.471
 63.270    605.000    613.585     -8.585    473.734    598.038    473.734    487.552    475.466
 63.370    591.000    589.542      1.458    473.808    574.534    473.808    487.161    475.462
 63.470    608.000    575.715     32.285    473.882    561.218    473.882    486.799    475.461
 63.570    569.000    569.209     -0.209    473.957    555.193    473.957    486.464    475.462
 63.670    540.000    568.411    -28.411    474.032    554.848    474.032    486.154    475.467
 63.770    555.000    572.942    -17.942    474.108    559.803    474.108    485.869    475.475
 63.870    586.000    583.436      2.564    474.184    570.695    474.184    485.607    475.487
 63.970    597.000    601.234     -4.234    474.261    588.864    474.261    485.366    475.503
 64.070    612.686    627.953    -15.267    474.338    615.929    474.338    485.146    475.523
 64.170    720.000    664.942     55.058    474.416    653.239    474.416    484.944    475.546
 64.270    701.233    712.623    -11.391    474.494    701.218    474.494    484.760    475.573
 64.370    759.000    769.797    -10.797    474.572    758.668    474.572    484.593    475.603
 64.470    786.656    832.997    -46.341    474.651    822.127    474.651    484.442    475.637
 64.570    918.000    896.028     21.972    474.730    885.402    474.730    484.307    475.674
 64.670    900.000    950.147    -50.147    474.810    939.756    474.810    484.185    475.714
 64.770    941.000    985.880    -44.880    474.889    975.716    474.889    484.078    475.758
 64.870    996.000    996.634     -0.634    474.970    986.693    474.970    483.983    475.804
 64.970    933.810    981.633    -47.823    475.050    971.907    475.050    483.901    475.852
 65.070    964.000    945.630     18.370    475.131    936.109    475.131    483.830    475.904
 65.170    922.000    896.444     25.556    475.212    887.115    475.212    483.770    475.957
 65.270    900.000    842.286     57.714    475.293    833.133    475.293    483.722    476.013
 65.370    757.000    789.698    -32.698    475.375    780.705    475.375    483.683    476.071
 65.470    703.000    742.535    -39.535    475.456    733.685    475.456    483.654    476.131
 65.570    679.000    702.121    -23.121    475.538    693.400    475.538    483.635    476.192
 65.670    627.487    668.234    -40.747    475.620    659.625    475.620    483.626    476.256
 65.770    674.000    640.206     33.794    475.703    631.696    475.703    483.625    476.321
 65.870    588.529    617.461    -28.932    475.785    609.038    475.785    483.632    476.387
 65.970    579.000    599.491    -20.491    475.868    591.144    475.868    483.649    476.455
 66.070    577.616    585.753     -8.137    475.951    577.473    475.951    483.673    476.525
 66.170    592.000    575.686     16.314    476.034    567.464    476.034    483.706    476.595
 66.270    554.992    568.779    -13.787    476.117    560.608    476.117    483.746    476.667
 66.370    548.000    564.609    -16.609    476.200    556.481    476.200    483.794    476.740
 66.470    565.000    562.848      2.152    476.283    554.756    476.283    483.850    476.814
 66.570    519.836    563.290    -43.454    476.366    555.226    476.366    483.914    476.888
 66.670    608.000    565.901     42.099    476.450    557.857    476.450    483.985    476.964
 66.770    577.000    570.935      6.065    476.533    562.903    476.533    484.064    477.041
 66.870    602.000    579.088     22.912    476.617    571.060    476.617    484.150    477.118
 66.970    600.848    591.732      9.116    476.700    583.698    476.700    484.244    477.196
 67.070    629.000    611.181     17.819    476.784    603.133    476.784    484.346    477.275
 67.170    609.000    640.959    -31.959    476.867    632.889    476.867    484.456    477.355
 67.270    659.000    685.944    -26.944    476.950    677.842    476.950    484.574    477.435
 67.370    776.677    752.201     24.477    477.034    744.059    477.034    484.700    477.516
 67.470    825.000    846.323    -21.323    477.117    838.133    477.117    484.834    477.597
 67.570    943.261    974.162    -30.901    477.200    965.918    477.200    484.977    477.679
 67.670   1137.000   1138.997     -1.997    477.283   1130.694    477.283    485.129    477.762
 67.770   1329.000   1339.410    -10.410    477.366   1331.047    477.366    485.290    477.845
 67.870   1574.000   1567.274      6.726    477.449   1558.851    477.449    485.461    477.929
 67.970   1798.000   1806.201     -8.201    477.532   1797.718    477.532    485.642    478.013
 68.070   1966.000   2030.880    -64.880    477.614   2022.339    477.614    485.833    478.098
 68.170   2266.071   2208.639     57.432    477.697   2200.036    477.697    486.035    478.183
 68.270   2417.000   2306.052    110.948    477.779   2297.377    477.779    486.248    478.269
 68.370   2313.000   2301.450     11.550    477.861   2292.678    477.861    486.474    478.355
 68.470   2222.000   2196.037     25.963    477.943   2187.132    477.943    486.713    478.442
 68.570   2157.000   2013.174    143.826    478.025   2004.090    478.025    486.966    478.529
 68.670   1857.000   1786.615     70.385    478.106   1777.314    478.106    487.234    478.617
 68.770   1597.000   1548.490     48.510    478.187   1538.938    478.187    487.517    478.705
 68.870   1336.906   1323.292     13.613    478.268   1313.463    478.268    487.817    478.795
 68.970   1098.000   1126.607    -28.607    478.349   1116.479    478.349    488.136    478.884
 69.070   1015.860    965.873     49.987    478.429    955.431    478.429    488.475    478.975
 69.170    788.000    841.989    -53.989    478.509    831.217    478.509    488.835    479.066
 69.270    760.000    751.355      8.645    478.588    740.235    478.588    489.218    479.158
 69.370    667.326    687.980    -20.654    478.668    676.494    478.668    489.627    479.251
 69.470    668.000    645.268     22.732    478.747    633.394    478.747    490.063    479.345
 69.570    653.822    617.227     36.595    478.825    604.937    478.825    490.530    479.441
 69.670    587.163    599.068    -11.905    478.903    586.331    478.903    491.030    479.537
 69.770    609.000    587.328     21.672    478.981    574.108    478.981    491.566    479.634
 69.870    596.141    579.697     16.443    479.059    565.955    479.059    492.141    479.733
 69.970    614.362    574.743     39.619    479.136    560.432    479.136    492.760    479.834
 70.070    566.000    571.625     -5.625    479.212    556.697    479.212    493.427    479.936
 70.170    599.074    569.885     29.188    479.288    554.285    479.288    494.146    480.040
 70.270    566.421    569.297     -2.876    479.364    552.964    479.364    494.922    480.146
 70.370    577.222    569.785      7.437    479.439    552.654    479.439    495.761    480.254
 70.470    528.000    571.401    -43.401    479.514    553.401    479.514    496.668    480.365
 70.570    522.000    574.337    -52.337    479.588    555.389    479.588    497.650    480.478
 70.670    552.000    578.981    -26.981    479.661    558.998    479.661    498.713    480.594
 70.770    588.000    586.015      1.985    479.734    564.906    479.734    499.865    480.713
 70.870    603.000    596.548      6.452    479.807    574.211    479.807    501.112    480.835
 70.970    574.000    612.265    -38.265    479.879    588.591    479.879    502.462    480.961
 71.070    676.395    635.554     40.841    479.950    610.426    479.950    503.923    481.090
 71.170    715.395    669.539     45.856    480.021    642.831    480.021    505.502    481.223
 71.270    677.000    717.935    -40.935    480.091    689.513    480.091    507.206    481.361
 71.370    785.000    784.634      0.366    480.161    754.358    480.161    509.042    481.502
 71.470    862.000    872.996    -10.996    480.229    840.720    480.229    511.016    481.648
 71.570    918.000    984.873    -66.873    480.298    950.448    480.298    513.131    481.798
 71.670   1058.000   1119.510    -61.510    480.365   1082.785    480.365    515.391    481.953
 71.770   1279.000   1272.509      6.491    480.432   1233.339    480.432    517.794    482.112
 71.870   1394.000   1435.022    -41.022    480.498   1393.268    480.498    520.336    482.274
 71.970   1584.000   1593.285     -9.285    480.564   1548.823    480.564    523.006    482.440
 72.070   1757.220   1728.932     28.288    480.629   1681.658    480.629    525.789    482.608
 72.170   1833.000   1821.289     11.711    480.693   1771.126    480.693    528.658    482.778
 72.270   1761.000   1853.070    -92.070    480.756   1799.973    480.756    531.579    482.948
 72.370   1781.306   1817.909    -36.603    480.819   1761.877    480.819    534.505    483.115
 72.470   1717.000   1723.798     -6.798    480.881   1664.882    480.881    537.376    483.279
 72.570   1639.531   1588.833     50.698    480.942   1527.158    480.942    540.123    483.437
 72.670   1450.000   1433.581     16.419    481.002   1369.354    481.002    542.662    483.585
 72.770   1305.027   1275.770     29.257    481.061   1209.292    481.061    544.906    483.721
 72.870   1152.000   1128.374     23.626    481.120   1060.038    481.120    546.763    483.843
 72.970    923.000    999.488    -76.488    481.178    929.774    481.178    548.152    483.947
 73.070    897.117    892.870      4.247    481.234    822.328    481.234    549.007    484.033
 73.170    828.339    808.807     19.532    481.290    738.032    481.290    549.284    484.098
 73.270    738.000    745.178     -7.178    481.346    674.777    481.346    548.972    484.143
 73.370    704.000    698.544      5.456    481.400    629.107    481.400    548.089    484.168
 73.470    682.000    665.084     16.916    481.453    597.152    481.453    546.683    484.174
 73.570    634.000    641.265     -7.265    481.506    575.305    481.506    544.826    484.163
 73.670    608.000    624.195    -16.195    481.557    560.587    481.557    542.601    484.138
 73.770    580.276    611.738    -31.461    481.608    550.769    481.608    540.099    484.102
 73.870    635.000    602.443     32.557    481.658    544.311    481.658    537.408    484.057
 73.970    559.000    595.399    -36.399    481.706    540.217    481.706    534.608    484.006
 74.070    555.000    590.060    -35.060    481.754    537.872    481.754    531.766    483.952
 74.170    559.116    586.099    -26.983    481.801    536.890    481.801    528.941    483.896
 74.270    564.877    583.285    -18.407    481.846    536.993    481.846    526.175    483.840
 74.370    597.000    581.399     15.601    481.891    537.928    481.891    523.502    483.785
 74.470    600.000    580.182     19.818    481.935    539.414    481.935    520.945    483.733
 74.570    534.522    579.304    -44.781    481.978    541.101    481.978    518.518    483.684
 74.670    645.000    578.355     66.645    482.019    542.573    482.019    516.231    483.638
 74.770    601.000    576.891     24.109    482.060    543.378    482.060    514.087    483.597
 74.870    660.000    574.539     85.461    482.099    543.144    482.099    512.086    483.559
 74.970    595.000    571.153     23.847    482.138    541.728    482.138    510.225    483.526
 75.070    561.814    566.897     -5.084    482.175    539.297    482.175    508.501    483.497
 75.170    605.761    562.181     43.581    482.211    536.268    482.211    506.906    483.471
 75.270    598.523    557.520     41.003    482.246    533.165    482.246    505.434    483.450
 75.370    566.361    553.440     12.920    482.280    530.521    482.280    504.077    483.432
 75.470    578.000    550.447     27.553    482.313    528.850    482.313    502.829    483.417
 75.570    511.128    549.023    -37.895    482.344    528.643    482.344    501.681    483.405
 75.670    571.611    549.637     21.974    482.375    530.375    482.375    500.626    483.396
 75.770    545.000    552.733     -7.733    482.404    534.498    482.404    499.656    483.390
 75.870    559.860    558.699      1.161    482.432    541.408    482.432    498.765    483.386
 75.970    615.000    567.814     47.186    482.459    551.390    482.459    497.947    483.384
 76.070    547.000    580.170    -33.170    482.485    564.543    482.485    497.194    483.384
 76.170    573.000    595.584    -22.584    482.509    580.688    482.509    496.501    483.386
 76.270    561.000    613.504    -52.504    482.533    599.282    482.533    495.863    483.389
 76.370    641.000    632.945      8.055    482.555    619.342    482.555    495.275    483.394
 76.470    689.000    652.440     36.560    482.575    639.409    482.575    494.732    483.401
 76.570    681.000    670.041     10.959    482.595    657.539    482.595    494.230    483.408
 76.670    695.992    683.480     12.512    482.613    671.468    482.613    493.766    483.417
 76.770    718.000    690.595     27.405    482.630    679.038    482.630    493.335    483.426
 76.870    678.000    690.000    -12.000    482.645    678.868    482.645    492.935    483.437
 76.970    693.000    681.662     11.338    482.660    670.925    482.660    492.563    483.448
 77.070    617.164    666.905    -49.741    482.673    656.536    482.673    492.216    483.460
 77.170    673.000    647.857     25.143    482.684    637.830    482.684    491.892    483.473
 77.270    643.000    626.762     16.238    482.695    617.051    482.695    491.589    483.486
 77.370    597.000    605.541     -8.541    482.704    596.124    482.704    491.305    483.500
 77.470    605.000    585.631     19.369    482.711    576.487    482.711    491.039    483.515
 77.570    564.000    567.970     -3.970    482.717    559.077    482.717    490.788    483.530
 77.670    521.000    553.040    -32.040    482.722    544.380    482.722    490.552    483.546
 77.770    503.000    540.947    -37.947    482.726    532.503    482.726    490.329    483.562
 77.870    478.000    531.520    -53.520    482.728    523.276    482.728    490.118    483.580
 77.970    491.000    524.411    -33.411    482.728    516.351    482.728    489.918    483.598
 78.070    490.000    519.195    -29.195    482.728    511.305    482.728    489.729    483.616
 78.170    480.753    515.444    -34.690    482.725    507.710    482.725    489.549    483.636
 78.270    539.000    512.776     26.224    482.722    505.186    482.722    489.377    483.656
 78.370    510.410    510.882     -0.472    482.717    503.425    482.717    489.214    483.678
 78.470    501.226    509.530     -8.303    482.710    502.193    482.710    489.058    483.700
 78.570    474.999    508.554    -33.555    482.702    501.328    482.702    488.908    483.723
 78.670    523.253    507.847     15.407    482.693    500.720    482.693    488.765    483.747
 78.770    493.265    507.342    -14.077    482.682    500.305    482.682    488.628    483.773
 78.870    481.000    507.002    -26.002    482.669    500.046    482.669    488.496    483.799
 78.970    543.624    506.814     36.810    482.655    499.929    482.655    488.370    483.827
 79.070    514.000    506.778      7.222    482.640    499.956    482.640    488.247    483.855
 79.170    508.000    506.906      1.094    482.623    500.138    482.623    488.129    483.885
 79.270    528.998    507.218     21.779    482.604    500.497    482.604    488.015    483.915
 79.370    516.000    507.744      8.256    482.584    501.062    482.584    487.905    483.947
 79.470    542.000    508.520     33.480    482.563    501.870    482.563    487.797    483.979
 79.570    480.000    509.592    -29.592    482.540    502.966    482.540    487.693    484.011
 79.670    437.000    511.017    -74.017    482.515    504.411    482.515    487.592    484.043
 79.770    532.807    512.873     19.934    482.489    506.281    482.489    487.493    484.075
 79.870    512.000    515.262     -3.262    482.461    508.681    482.461    487.396    484.105
 79.970    478.730    518.323    -39.593    482.431    511.748    482.431    487.301    484.134
 80.070    511.000    522.230    -11.230    482.400    515.659    482.400    487.208    484.161
 80.170    495.000    527.203    -32.203    482.368    520.636    482.368    487.116    484.184
 80.270    514.354    533.507    -19.153    482.333    526.943    482.333    487.026    484.203
 80.370    575.328    541.448     33.880    482.298    534.889    482.298    486.936    484.217
 80.470    581.608    551.357     30.250    482.260    544.807    482.260    486.847    484.224
 80.570    549.221    563.527    -14.307    482.221    556.989    482.221    486.759    484.224
 80.670    558.000    578.135    -20.135    482.180    571.615    482.180    486.671    484.216
 80.770    559.000    595.227    -36.227    482.138    588.732    482.138    486.583    484.198
 80.870    638.000    614.470     23.530    482.094    608.007    482.094    486.495    484.170
 80.970    675.344    635.229     40.115    482.048    628.808    482.048    486.407    484.132
 81.070    617.707    656.561    -38.854    482.001    650.190    482.001    486.318    484.083
 81.170    617.000    677.299    -60.299    481.952    670.986    481.952    486.229    484.023
 81.270    646.000    696.213    -50.213    481.901    689.966    481.901    486.140    483.952
 81.370    732.115    712.174     19.941    481.849    706.001    481.849    486.050    483.871
 81.470    736.000    724.270     11.730    481.795    718.177    481.795    485.959    483.781
 81.570    726.000    731.872     -5.872    481.739    725.864    481.739    485.868    483.682
 81.670    715.000    734.693    -19.693    481.682    728.773    481.682    485.776    483.575
 81.770    724.268    732.784     -8.516    481.623    726.955    481.623    485.683    483.462
 81.870    699.000    726.440    -27.440    481.562    720.703    481.562    485.591    483.343
 81.970    737.962    716.132     21.829    481.499    710.488    481.499    485.497    483.220
 82.070    710.000    702.545      7.455    481.435    696.993    481.435    485.404    483.093
 82.170    702.817    686.597     16.220    481.369    681.135    481.369    485.310    482.963
 82.270    665.000    669.318     -4.318    481.301    663.945    481.301    485.215    482.832
 82.370    647.000    651.630     -4.630    481.232    646.342    481.232    485.121    482.699
 82.470    615.807    634.195    -18.388    481.161    628.988    481.161    485.026    482.565
 82.570    638.000    617.420     20.580    481.088    612.293    481.088    484.931    482.431
 82.670    598.000    601.577     -3.577    481.013    596.524    481.013    484.835    482.296
 82.770    547.000    586.914    -39.914    480.937    581.933    480.937    484.739    482.162
 82.870    565.000    573.703     -8.703    480.858    568.788    480.858    484.643    482.028
 82.970    546.217    562.208    -15.990    480.778    557.356    480.778    484.546    481.895
 83.070    556.000    552.648      3.352    480.697    547.855    480.697    484.449    481.762
 83.170    533.000    545.170    -12.170    480.613    540.431    480.613    484.352    481.630
 83.270    510.000    539.841    -29.841    480.528    535.153    480.528    484.254    481.499
 83.370    493.414    536.644    -43.230    480.441    532.004    480.441    484.156    481.368
 83.470    522.000    535.473    -13.473    480.352    530.876    480.352    484.058    481.237
 83.570    504.666    536.126    -31.459    480.261    531.568    480.261    483.959    481.107
 83.670    542.000    538.300      3.700    480.169    533.779    480.169    483.859    480.977
 83.770    570.000    541.598     28.402    480.074    537.111    480.074    483.759    480.848
 83.870    532.000    545.532    -13.532    479.978    541.077    479.978    483.658    480.719
 83.970    584.106    549.540     34.565    479.880    545.114    479.880    483.557    480.589
 84.070    580.331    553.019     27.312    479.781    548.620    479.781    483.455    480.460
 84.170    519.904    555.377    -35.473    479.679    551.005    479.679    483.353    480.331
 84.270    546.000    556.141    -10.141    479.576    551.795    479.576    483.250    480.201
 84.370    547.352    555.062     -7.710    479.471    550.741    479.471    483.146    480.072
 84.470    533.744    552.177    -18.433    479.364    547.880    479.364    483.042    479.942
 84.570    541.778    547.779     -6.001    479.255    543.504    479.255    482.937    479.811
 84.670    567.000    542.315     24.685    479.145    538.060    479.145    482.831    479.680
 84.770    530.985    536.268     -5.283    479.032    532.032    479.032    482.725    479.548
 84.870    526.000    530.086     -4.086    478.918    525.866    478.918    482.618    479.416
 84.970    533.000    524.136      8.864    478.802    519.928    478.802    482.510    479.283
 85.070    501.000    518.690    -17.690    478.684    514.494    478.684    482.402    479.149
 85.170    530.000    513.928     16.072    478.565    509.739    478.565    482.293    479.014
 85.270    512.000    509.938      2.062    478.443    505.754    478.443    482.183    478.878
 85.370    544.000    506.737     37.263    478.320    502.555    478.320    482.073    478.741
 85.470    502.000    504.284     -2.284    478.194    500.102    478.194    481.962    478.603
 85.570    514.841    502.509     12.331    478.067    498.324    478.067    481.850    478.464
 85.670    504.000    501.329      2.671    477.939    497.139    477.939    481.738    478.324
 85.770    509.000    500.667      8.333    477.808    496.470    477.808    481.625    478.182
 85.870    488.000    500.462    -12.462    477.675    496.255    477.675    481.512    478.040
 85.970    486.000    500.684    -14.684    477.541    496.466    477.541    481.398    477.896
 86.070    540.236    501.335     38.901    477.405    497.103    477.405    481.283    477.751
 86.170    494.000    502.450     -8.450    477.267    498.201    477.267    481.168    477.604
 86.270    544.000    504.099     39.901    477.127    499.832    477.127    481.052    477.456
 86.370    520.000    506.381     13.619    476.985    502.093    476.985    480.936    477.307
 86.470    514.816    509.415      5.401    476.842    505.104    476.842    480.820    477.156
 86.570    522.000    513.331      8.669    476.696    508.994    476.696    480.703    477.004
 86.670    514.000    518.251     -4.251    476.549    513.884    476.549    480.585    476.850
 86.770    523.000    524.270     -1.270    476.400    519.871    476.400    480.468    476.695
 86.870    527.000    531.434     -4.434    476.249    526.999    476.249    480.350    476.538
 86.970    581.000    539.712     41.288    476.096    535.238    476.096    480.232    476.380
 87.070    557.000    548.969      8.031    475.942    544.454    475.942    480.113    476.220
 87.170    595.153    558.950     36.203    475.785    554.392    475.785    479.995    476.059
 87.270    609.978    569.262     40.717    475.627    564.658    475.627    479.876    475.896
 87.370    566.759    579.367    -12.607    475.467    574.717    475.467    479.758    475.732
 87.470    568.000    588.599    -20.599    475.305    583.903    475.305    479.640    475.566
 87.570    593.000    596.214     -3.214    475.142    591.471    475.142    479.522    475.398
 87.670    620.000    601.492     18.508    474.976    596.703    474.976    479.404    475.229
 87.770    656.000    603.907     52.093    474.809    599.074    474.809    479.286    475.059
 87.870    589.250    603.278    -14.028    474.640    598.401    474.640    479.169    474.886
 87.970    658.000    599.829     58.171    474.469    594.910    474.469    479.053    474.713
 88.070    564.000    594.118    -30.118    474.296    589.155    474.296    478.937    474.537
 88.170    577.830    586.887     -9.057    474.121    581.879    474.121    478.823    474.360
 88.270    609.049    578.933     30.116    473.945    573.876    473.945    478.709    474.182
 88.370    583.885    571.018     12.867    473.767    565.910    473.767    478.596    474.001
 88.470    612.000    563.818     48.182    473.587    558.655    473.587    478.485    473.819
 88.570    600.000    557.883     42.117    473.405    552.662    473.405    478.375    473.636
 88.670    591.460    553.609     37.851    473.221    548.324    473.221    478.266    473.451
 88.770    590.464    551.227     39.237    473.036    545.874    473.036    478.159    473.265
 88.870    533.202    550.792    -17.590    472.849    545.367    472.849    478.055    473.076
 88.970    562.729    552.196     10.533    472.660    546.693    472.660    477.952    472.887
 89.070    522.000    555.175    -33.175    472.469    549.590    472.469    477.852    472.696
 89.170    544.000    559.333    -15.333    472.277    553.662    472.277    477.755    472.503
 89.270    519.303    564.159    -44.857    472.083    558.396    472.083    477.660    472.308
 89.370    567.000    569.057     -2.057    471.887    563.196    471.887    477.569    472.112
 89.470    586.000    573.380     12.620    471.689    567.416    471.689    477.480    471.915
 89.570    576.000    576.499     -0.499    471.489    570.423    471.489    477.396    471.716
 89.670    610.000    577.886     32.114    471.288    571.693    471.288    477.316    471.516
 89.770    580.836    577.227      3.609    471.085    570.908    471.085    477.239    471.314
 89.870    607.000    574.482     32.518    470.880    568.029    470.880    477.168    471.110
 89.970    558.000    569.877    -11.877    470.674    563.281    470.674    477.101    470.906
 90.070    502.000    563.829    -61.829    470.466    557.081    470.466    477.039    470.699
 90.170    549.000    556.835     -7.835    470.256    549.926    470.256    476.983    470.492
 90.270    578.000    549.388     28.612    470.044    542.309    470.044    476.933    470.282
 90.370    512.000    541.925    -29.925    469.831    534.668    469.831    476.889    470.072
 90.470    529.000    534.802     -5.802    469.616    527.357    469.616    476.852    469.860
 90.570    566.688    528.285     38.403    469.400    520.646    469.400    476.822    469.647
 90.670    507.940    522.554    -14.615    469.181    514.710    469.181    476.799    469.432
 90.770    485.000    517.706    -32.706    468.961    509.647    468.961    476.784    469.216
 90.870    510.000    513.767     -3.767    468.740    505.485    468.740    476.777    468.999
 90.970    526.000    510.712     15.288    468.516    502.197    468.516    476.779    468.780
 91.070    472.047    508.480    -36.433    468.291    499.723    468.291    476.789    468.560
 91.170    538.000    506.995     31.005    468.065    497.985    468.065    476.808    468.339
 91.270    492.000    506.180    -14.180    467.837    496.905    467.837    476.836    468.116
 91.370    507.000    505.970      1.030    467.607    496.420    467.607    476.874    467.892
 91.470    536.393    506.326     30.067    467.375    496.490    467.375    476.921    467.668
 91.570    520.214    507.241     12.972    467.142    497.106    467.142    476.978    467.441
 91.670    495.366    508.742    -13.376    466.908    498.298    466.908    477.044    467.214
 91.770    492.000    510.892    -18.892    466.671    500.127    466.671    477.120    466.985
 91.870    539.587    513.791     25.796    466.433    502.693    466.433    477.204    466.755
 91.970    500.394    517.565    -17.171    466.194    506.125    466.194    477.297    466.524
 92.070    513.000    522.368     -9.368    465.953    510.574    465.953    477.398    466.292
 92.170    561.219    528.362     32.856    465.711    516.206    465.711    477.506    466.058
 92.270    492.000    535.709    -43.709    465.467    523.183    465.467    477.619    465.823
 92.370    562.000    544.554     17.446    465.221    531.651    465.221    477.737    465.587
 92.470    586.000    555.005     30.995    464.974    541.721    464.974    477.857    465.349
 92.570    561.000    567.120     -6.120    464.725    553.453    464.725    477.977    465.109
 92.670    561.000    580.886    -19.886    464.475    566.836    464.475    478.094    464.869
 92.770    576.000    596.206    -20.206    464.224    581.777    464.224    478.207    464.626
 92.870    586.340    612.884    -26.543    463.971    598.083    463.971    478.311    464.382
 92.970    612.000    630.603    -18.603    463.716    615.441    463.716    478.403    464.136
 93.070    629.639    648.987    -19.348    463.460    633.478    463.460    478.481    463.888
 93.170    718.000    667.532     50.468    463.203    651.697    463.203    478.539    463.637
 93.270    641.047    685.691    -44.645    462.944    669.552    462.944    478.574    463.385
 93.370    654.101    702.962    -48.860    462.684    686.546    462.684    478.583    463.130
 93.470    699.000    718.985    -19.985    462.422    702.323    462.422    478.562    462.873
 93.570    756.268    733.624     22.643    462.159    716.750    462.159    478.508    462.613
 93.670    728.941    746.968    -18.026    461.895    729.916    461.895    478.419    462.351
 93.770    741.000    759.248    -18.248    461.629    742.057    461.629    478.293    462.086
 93.870    781.000    770.726     10.274    461.362    753.434    461.362    478.129    461.819
 93.970    781.000    781.599     -0.599    461.093    764.244    461.093    477.928    461.549
 94.070    821.000    791.979     29.021    460.823    774.597    460.823    477.690    461.276
 94.170    806.427    801.934      4.493    460.552    784.563    460.552    477.416    461.000
 94.270    812.000    811.563      0.437    460.280    794.233    460.280    477.110    460.723
 94.370    841.000    821.021     19.979    460.006    803.765    460.006    476.774    460.442
 94.470    835.000    830.444      4.556    459.731    813.286    459.731    476.411    460.160
 94.570    789.549    839.826    -50.277    459.455    822.790    459.455    476.025    459.875
 94.670    894.000    848.910     45.090    459.178    832.014    459.178    475.621    459.589
 94.770    877.125    857.125     20.000    458.899    840.383    458.899    475.203    459.301
 94.870    958.000    863.606     94.394    458.620    847.029    458.620    474.774    459.011
 94.970    826.461    867.297    -40.835    458.339    850.891    458.339    474.339    458.719
 95.070    932.000    867.123     64.877    458.056    850.891    458.056    473.901    458.426
 95.170    950.000    862.233     87.767    457.773    846.172    457.773    473.464    458.132
 95.270    884.000    852.228     31.772    457.489    836.335    457.489    473.031    457.837
 95.370    891.000    837.315     53.685    457.203    821.581    457.203    472.604    457.540
 95.470    853.000    818.296     34.704    456.916    802.709    456.916    472.186    457.243
 95.570    821.000    796.420     24.580    456.628    780.967    456.628    471.779    456.945
 95.670    767.000    773.195     -6.195    456.340    757.860    456.340    471.385    456.646
 95.770    785.000    750.218     34.782    456.050    734.983    456.050    471.006    456.346
 95.870    714.000    729.063    -15.063    455.759    713.908    455.759    470.643    456.045
 95.970    708.000    711.209     -3.209    455.467    696.115    455.467    470.297    455.744
 96.070    702.000    698.005      3.995    455.174    682.951    455.174    469.969    455.441
 96.170    735.000    690.639     44.361    454.880    675.603    454.880    469.661    455.139
 96.270    735.000    690.110     44.890    454.585    675.070    454.585    469.372    454.835
 96.370    716.000    697.217     18.783    454.289    682.149    454.289    469.105    454.532
 96.470    699.000    712.658    -13.658    453.992    697.540    453.992    468.859    454.227
 96.570    752.000    736.804     15.196    453.695    721.611    453.695    468.635    453.922
 96.670    725.000    769.788    -44.788    453.396    754.496    453.396    468.434    453.616
 96.770    807.577    811.466     -3.890    453.096    796.051    453.096    468.257    453.310
 96.870    831.429    861.365    -29.936    452.796    845.802    452.796    468.104    453.004
 96.970    894.000    918.623    -24.623    452.495    902.887    452.495    467.976    452.697
 97.070    961.400    981.941    -20.541    452.193    966.007    452.193    467.874    452.389
 97.170    990.610   1049.544    -58.934    451.890   1033.387    451.890    467.798    452.081
 97.270   1135.000   1119.159     15.841    451.587   1102.752    451.587    467.750    451.772
 97.370   1196.000   1188.014      7.986    451.282   1171.332    451.282    467.730    451.463
 97.470   1264.000   1252.890     11.110    450.978   1235.906    450.978    467.738    451.153
 97.570   1295.321   1310.254    -14.933    450.672   1292.941    450.672    467.777    450.843
 97.670   1333.074   1356.530    -23.456    450.365   1338.859    450.365    467.846    450.533
 97.770   1509.000   1388.531    120.469    450.058   1370.472    450.058    467.947    450.222
 97.870   1394.000   1403.996     -9.996    449.751   1385.518    449.751    468.082    449.911
 97.970   1365.000   1402.047    -37.047    449.442   1383.113    449.442    468.250    449.599
 98.070   1353.495   1383.350    -29.855    449.134   1363.924    449.134    468.453    449.287
 98.170   1380.000   1349.935     30.065    448.824   1329.977    448.824    468.692    448.975
 98.270   1341.000   1304.755     36.245    448.514   1284.223    448.514    468.969    448.662
 98.370   1199.198   1251.208    -52.011    448.203   1230.060    448.203    469.283    448.349
 98.470   1142.000   1192.768    -50.768    447.892   1170.959    447.892    469.638    448.035
 98.570   1140.000   1132.738      7.262    447.581   1110.224    447.581    470.032    447.721
 98.670   1098.000   1074.122     23.878    447.269   1050.859    447.269    470.468    447.407
 98.770   1039.789   1019.562     20.227    446.957    995.505    446.957    470.946    447.093
 98.870    942.000    971.321    -29.321    446.644    946.424    446.644    471.468    446.778
 98.970    961.953    931.295     30.657    446.331    905.514    446.331    472.032    446.463
 99.070    906.000    901.032      4.968    446.017    874.321    446.017    472.641    446.148
 99.170    849.388    881.743    -32.355    445.703    854.058    445.703    473.294    445.833
 99.270    925.572    874.323     51.250    445.389    845.621    445.389    473.990    445.518
 99.370    858.000    879.364    -21.364    445.074    849.602    445.074    474.730    445.202
 99.470    947.950    897.170     50.780    444.760    866.307    444.760    475.512    444.886
 99.570    871.734    927.758    -56.024    444.445    895.755    444.445    476.335    444.570
 99.670    926.075    970.865    -44.790    444.130    937.686    444.130    477.196    444.254
 99.770    997.000   1025.965    -28.965    443.814    991.577    443.814    478.092    443.938
 99.870   1069.993   1092.155    -22.162    443.499   1056.530    443.499    479.019    443.622
 99.970   1195.470   1168.183     27.287    443.183   1131.298    443.183    479.972    443.306
100.070   1210.000   1252.390    -42.390    442.867   1214.228    442.867    480.945    442.989
100.170   1331.000   1342.677    -11.677    442.552   1303.228    442.552    481.931    442.673
100.270   1433.000   1436.489     -3.489    442.236   1395.753    442.236    482.920    442.357
100.370   1521.267   1530.860     -9.593    441.920   1488.847    441.920    483.904    442.041
100.470   1619.175   1622.538     -3.363    441.604   1579.268    441.604    484.870    441.725
100.570   1653.000   1708.209    -55.209    441.288   1663.714    441.288    485.806    441.409
100.670   1823.000   1784.785     38.215    440.973   1739.110    440.973    486.697    441.093
100.770   1846.000   1849.658     -3.658    440.657   1802.862    440.657    487.530    440.777
100.870   1889.000   1900.816    -11.816    440.342   1852.971    440.342    488.287    440.461
100.970   1925.000   1936.776    -11.776    440.026   1887.971    440.026    488.954    440.145
101.070   2008.000   1956.452     51.548    439.711   1906.790    439.711    489.514    439.830
101.170   2040.361   1959.092     81.269    439.396   1908.691    439.396    489.954    439.515
101.270   1945.000   1944.413      0.587    439.082   1893.403    439.082    490.259    439.200
101.370   1880.420   1912.893    -32.473    438.768   1861.415    438.768    490.418    438.885
101.470   1854.922   1866.058    -11.136    438.453   1814.262    438.453    490.423    438.570
101.570   1777.372   1806.551    -29.178    438.140   1754.593    438.140    490.267    438.256
101.670   1764.000   1737.890     26.110    437.827   1685.928    437.827    489.949    437.942
101.770   1655.462   1664.008     -8.545    437.514   1612.200    437.514    489.469    437.628
101.870   1497.000   1588.746    -91.746    437.201   1537.249    437.201    488.832    437.314
101.970   1563.249   1515.469     47.779    436.889   1464.431    436.889    488.045    437.001
102.070   1471.000   1446.830     24.170    436.578   1396.389    436.578    487.118    436.689
102.170   1385.000   1384.680      0.320    436.267   1334.966    436.267    486.065    436.377
102.270   1347.000   1330.066     16.934    435.956   1281.192    435.956    484.899    436.065
102.370   1294.000   1283.264     10.736    435.647   1235.331    435.647    483.637    435.754
102.470   1239.851   1243.855     -4.004    435.338   1196.945    435.338    482.292    435.444
102.570   1224.000   1210.803     13.197    435.029   1164.986    435.029    480.883    435.134
102.670   1150.000   1182.585    -32.585    434.721   1137.913    434.721    479.423    434.825
102.770   1065.000   1157.361    -92.361    434.414   1113.873    434.414    477.928    434.517
102.870   1183.404   1133.169     50.234    434.108   1090.891    434.108    476.410    434.209
102.970   1089.090   1108.203    -19.112    433.803   1067.146    433.803    474.882    433.903
103.070   1094.000   1081.047     12.953    433.498   1041.212    433.498    473.355    433.597
103.170   1061.000   1050.858     10.142    433.194   1012.236    433.194    471.838    433.292
103.270   1008.000   1017.407     -9.407    432.892    979.981    432.892    470.338    432.988
103.370    995.000    980.998     14.002    432.590    944.742    432.590    468.863    432.685
103.470    957.000    942.308     14.692    432.289    907.192    432.289    467.418    432.383
103.570    960.000    902.214     57.786    431.989    868.204    431.989    466.008    432.082
103.670    884.618    861.654     22.964    431.690    828.713    431.690    464.636    431.782
103.770    748.000    821.530    -73.530    431.393    789.617    431.393    463.304    431.483
103.870    836.242    782.638     53.604    431.096    751.710    431.096    462.015    431.185
103.970    764.000    745.714     18.286    430.801    715.729    430.801    460.770    430.889
104.070    732.034    711.289     20.745    430.507    682.203    430.507    459.570    430.594
104.170    643.751    679.765    -36.014    430.214    651.534    430.214    458.415    430.300
104.270    641.000    651.394    -10.394    429.922    623.975    429.922    457.304    430.008
104.370    612.000    626.288    -14.288    429.632    599.638    429.632    456.239    429.717
104.470    650.000    604.433     45.567    429.343    578.510    429.343    455.218    429.427
104.570    606.000    585.712     20.288    429.055    560.474    429.055    454.241    429.139
104.670    612.925    569.927     42.998    428.769    545.333    428.769    453.307    428.852
104.770    581.000    556.829     24.171    428.485    532.839    428.485    452.414    428.567
104.870    581.000    546.141     34.859    428.202    522.717    428.202    451.562    428.283
104.970    565.000    537.581     27.419    427.920    514.685    427.920    450.750    428.001
105.070    551.000    530.880     20.120    427.640    508.474    427.640    449.977    427.720
105.170    565.000    525.793     39.207    427.362    503.844    427.362    449.241    427.442
105.270    549.416    522.114     27.302    427.085    500.586    427.085    448.541    427.165
105.370    561.000    519.675     41.325    426.811    498.535    426.811    447.876    426.889
105.470    517.352    518.349     -0.997    426.538    497.566    426.538    447.245    426.616
105.570    512.000    518.049     -6.049    426.266    497.591    426.266    446.647    426.344
105.670    477.531    518.725    -41.194    425.997    498.562    425.997    446.081    426.074
105.770    503.519    520.356    -16.837    425.729    500.459    425.729    445.545    425.807
105.870    544.552    522.947     21.605    425.464    503.289    425.464    445.039    425.541
105.970    501.710    526.523    -24.812    425.200    507.075    425.200    444.562    425.277
106.070    573.000    531.116     41.884    424.939    511.854    424.939    444.113    425.015
106.170    502.000    536.763    -34.763    424.679    517.662    424.679    443.691    424.755
106.270    560.000    543.491     16.509    424.422    524.525    424.422    443.295    424.498
106.370    567.000    551.305     15.695    424.167    532.452    424.167    442.925    424.242
106.470    575.805    560.182     15.624    423.914    541.418    423.914    442.579    423.989
106.570    539.000    570.057    -31.057    423.663    551.361    423.663    442.258    423.738
106.670    592.000    580.822     11.178    423.414    562.172    423.414    441.960    423.490
106.770    588.000    592.319     -4.319    423.168    573.694    423.168    441.686    423.244
106.870    592.000    604.339    -12.339    422.924    585.719    422.924    441.435    423.000
106.970    590.710    616.626    -25.915    422.683    597.991    422.683    441.206    422.759
107.070    587.000    628.876    -41.876    422.444    610.207    422.444    441.000    422.520
107.170    662.811    640.751     22.060    422.208    622.029    422.208    440.815    422.284
107.270    623.983    651.888    -27.905    421.974    633.095    421.974    440.653    422.050
107.370    641.656    661.924    -20.268    421.743    643.041    421.743    440.512    421.819
107.470    625.804    670.529    -44.725    421.515    651.538    421.515    440.393    421.590
107.570    672.000    677.449     -5.449    421.289    658.331    421.289    440.296    421.365
107.670    672.000    682.548    -10.548    421.066    663.285    421.066    440.220    421.142
107.770    677.000    685.838     -8.838    420.846    666.411    420.846    440.167    420.922
107.870    652.540    687.484    -34.943    420.628    667.874    420.628    440.136    420.705
107.970    688.000    687.779      0.221    420.414    667.967    420.414    440.128    420.491
108.070    641.358    687.099    -45.741    420.203    667.065    420.203    440.143    420.280
108.170    689.000    685.849      3.151    419.994    665.572    419.994    440.181    420.072
108.270    670.000    684.412    -14.412    419.789    663.872    419.789    440.242    419.867
108.370    697.968    683.115     14.853    419.587    662.290    419.587    440.328    419.665
108.470    636.000    682.204    -46.204    419.387    661.073    419.387    440.439    419.466
108.570    675.000    681.830     -6.830    419.192    660.370    419.192    440.576    419.270
108.670    696.859    682.040     14.819    418.999    660.227    418.999    440.739    419.078
108.770    723.336    682.776     40.560    418.810    660.587    418.810    440.929    418.889
108.870    646.000    683.877    -37.877    418.624    661.288    418.624    441.147    418.704
108.970    669.000    685.091    -16.091    418.441    662.076    418.441    441.394    418.522
109.070    627.000    686.088    -59.088    418.262    662.620    418.262    441.670    418.343
109.170    624.000    686.490    -62.490    418.087    662.541    418.087    441.977    418.168
109.270    636.367    685.916    -49.549    417.915    661.458    417.915    442.316    417.997
109.370    646.678    684.028    -37.350    417.746    659.032    417.746    442.689    417.829
109.470    665.000    680.579    -15.579    417.582    655.014    417.582    443.095    417.665
109.570    689.000    675.454     13.546    417.421    649.287    417.421    443.536    417.505
109.670    697.000    668.686     28.314    417.264    641.883    417.264    444.015    417.349
109.770    653.000    660.436     -7.436    417.111    632.963    417.111    444.531    417.197
109.870    673.301    650.969     22.332    416.961    622.789    416.961    445.087    417.048
109.970    651.000    640.602     10.398    416.816    611.678    416.816    445.684    416.903
110.070    663.475    629.676     33.799    416.674    599.969    416.674    446.324    416.763
110.170    639.000    618.521     20.479    416.537    587.991    416.537    447.007    416.627
110.270    620.000    607.436     12.564    416.404    576.040    416.404    447.736    416.495
110.370    581.856    596.707    -14.851    416.275    564.403    416.275    448.512    416.367
110.470    582.000    586.558     -4.558    416.150    553.301    416.150    449.337    416.243
110.570    555.000    577.175    -22.175    416.030    542.918    416.030    450.213    416.124
110.670    620.000    568.700     51.300    415.914    533.396    415.914    451.140    416.009
110.770    594.000    561.234     32.766    415.802    524.833    415.802    452.122    415.898
110.870    535.000    554.837    -19.837    415.695    517.288    415.695    453.159    415.793
110.970    589.000    549.532     39.468    415.592    510.782    415.592    454.254    415.691
111.070    585.938    545.309     40.629    415.494    505.304    415.494    455.407    415.595
111.170    580.000    542.132     37.868    415.401    500.817    415.401    456.621    415.503
111.270    577.000    539.944     37.056    415.312    497.261    415.312    457.898    415.416
111.370    538.950    538.673      0.277    415.228    494.563    415.228    459.237    415.333
111.470    539.635    538.237      1.398    415.149    492.639    415.149    460.642    415.256
111.570    554.528    538.551     15.977    415.075    491.405    415.075    462.114    415.183
111.670    549.000    539.531      9.469    415.006    490.774    415.006    463.653    415.116
111.770    488.000    541.093    -53.093    414.941    490.662    414.941    465.261    415.054
111.870    571.000    543.163     27.837    414.882    490.993    414.882    466.938    414.996
111.970    571.040    545.672     25.368    414.828    491.698    414.828    468.684    414.944
112.070    532.000    548.560    -16.560    414.779    492.718    414.779    470.502    414.898
112.170    525.495    551.781    -26.285    414.736    494.005    414.736    472.389    414.856
112.270    531.000    555.296    -24.296    414.698    495.522    414.698    474.346    414.820
112.370    519.846    559.081    -39.236    414.665    497.246    414.665    476.372    414.790
112.470    528.000    563.124    -35.124    414.637    499.165    414.637    478.465    414.765
112.570    546.255    567.423    -21.168    414.615    501.281    414.615    480.624    414.746
112.670    577.000    571.991      5.009    414.599    503.609    414.599    482.846    414.732
112.770    540.569    576.852    -36.283    414.589    506.176    414.589    485.126    414.724
112.870    597.354    582.043     15.312    414.584    509.023    414.584    487.462    414.722
112.970    570.000    587.614    -17.614    414.584    512.206    414.584    489.848    414.725
113.070    601.728    593.632      8.096    414.591    515.799    414.591    492.278    414.735
113.170    550.000    600.187    -50.187    414.604    519.898    414.604    494.743    414.750
113.270    582.000    607.393    -25.393    414.622    524.626    414.622    497.236    414.772
113.370    637.372    615.400     21.972    414.647    530.143    414.647    499.747    414.799
113.470    598.000    624.401    -26.401    414.678    536.654    414.678    502.264    414.833
113.570    648.000    634.647     13.353    414.715    544.422    414.715    504.774    414.873
113.670    668.494    646.456     22.038    414.758    553.780    414.758    507.264    414.919
113.770    658.000    660.234     -2.234    414.807    565.148    414.807    509.718    414.972
113.870    639.000    676.491    -37.491    414.863    579.053    414.863    512.119    415.031
113.970    677.290    695.858    -18.568    414.925    596.145    414.925    514.449    415.096
114.070    693.000    719.108    -26.108    414.994    617.216    414.994    516.689    415.168
114.170    704.000    747.177    -43.177    415.069    643.221    415.069    518.820    415.246
114.270    797.132    781.176     15.956    415.152    675.290    415.152    520.821    415.331
114.370    814.000    822.405     -8.405    415.240    714.743    415.240    522.673    415.423
114.470    872.000    872.355     -0.355    415.336    763.092    415.336    524.355    415.521
114.570    929.000    932.710     -3.710    415.438    822.038    415.438    525.849    415.626
114.670    937.000   1005.322    -68.322    415.548    893.451    415.548    527.138    415.738
114.770   1081.000   1092.186    -11.186    415.664    979.342    415.664    528.207    415.856
114.870   1242.342   1195.393     46.949    415.788   1081.812    415.788    529.043    415.982
114.970   1380.025   1317.059     62.966    415.918   1202.989    415.918    529.636    416.114
115.070   1463.807   1459.245      4.562    416.056   1344.939    416.056    529.980    416.254
115.170   1587.288   1623.852    -36.565    416.201   1509.569    416.201    530.072    416.401
115.270   1763.642   1812.508    -48.866    416.354   1698.504    416.354    529.912    416.555
115.370   1984.828   2026.432    -41.603    416.514   1912.961    416.514    529.505    416.716
115.470   2275.613   2266.301      9.312    416.682   2153.612    416.682    528.858    416.885
115.570   2638.000   2532.096    105.904    416.857   2420.425    416.857    527.982    417.061
115.670   2902.000   2823.057     78.943    417.040   2712.629    417.040    526.892    417.245
115.770   3250.000   3137.504    112.496    417.230   3028.530    417.230    525.601    417.436
115.870   3496.966   3472.720     24.245    417.429   3365.395    417.429    524.130    417.635
115.970   3826.000   3824.964      1.036    417.635   3719.463    417.635    522.496    417.842
116.070   4049.000   4189.431   -140.431    417.849   4085.914    417.849    520.720    418.057
116.170   4468.000   4560.276    -92.276    418.072   4458.881    418.072    518.821    418.280
116.270   4996.777   4930.665     66.112    418.302   4831.514    418.302    516.821    418.511
116.370   5230.000   5292.885    -62.885    418.541   5196.080    418.541    514.738    418.751
116.470   5646.000   5638.493      7.507    418.788   5544.118    418.788    512.592    418.998
116.570   5907.611   5958.537    -50.926    419.043   5866.658    419.043    510.400    419.254
116.670   6493.000   6243.855    249.145    419.307   6154.522    419.307    508.178    419.519
116.770   6515.000   6485.488     29.512    419.579   6398.737    419.579    505.943    419.792
116.870   6807.000   6675.198    131.802    419.860   6591.047    419.860    503.708    420.074
116.970   6750.000   6806.072    -56.072    420.150   6724.524    420.150    501.485    420.365
117.070   6927.000   6873.134     53.866    420.448   6794.180    420.448    499.286    420.665
117.170   6771.000   6873.851   -102.851    420.755   6797.467    420.755    497.119    420.973
117.270   6673.612   6808.413   -134.801    421.072   6734.562    421.072    494.994    421.291
117.370   6573.510   6679.699   -106.189    421.397   6608.333    421.397    492.918    421.618
117.470   6491.000   6492.956     -1.956    421.731   6424.019    421.731    490.896    421.954
117.570   6105.781   6255.268   -149.487    422.074   6188.695    422.074    488.934    422.300
117.670   5865.000   5974.929   -109.929    422.427   5910.651    422.427    487.036    422.655
117.770   5746.636   5660.854     85.782    422.789   5598.798    422.789    485.205    423.019
117.870   5346.388   5322.072     24.316    423.160   5262.163    423.160    483.444    423.394
117.970   5097.332   4967.338    129.994    423.541   4909.500    423.541    481.755    423.778
118.070   4532.000   4604.845    -72.845    423.932   4549.002    423.932    480.138    424.171
118.170   4150.000   4242.019    -92.019    424.332   4188.095    424.332    478.596    424.575
118.270   3883.124   3885.376     -2.252    424.742   3833.298    424.742    477.128    424.989
118.370   3575.114   3540.440     34.674    425.162   3490.135    425.162    475.735    425.413
118.470   3298.000   3211.695     86.305    425.591   3163.094    425.591    474.416    425.847
118.570   2941.000   2902.591     38.409    426.031   2855.626    426.031    473.171    426.291
118.670   2522.083   2615.583    -93.500    426.481   2570.189    426.481    471.999    426.746
118.770   2259.260   2352.205    -92.945    426.941   2308.319    426.941    470.898    427.211
118.870   2159.000   2113.165     45.835    427.411   2070.728    427.411    469.869    427.687
118.970   1863.000   1898.461    -35.461    427.892   1857.416    427.892    468.910    428.173
119.070   1633.416   1707.496    -74.080    428.383   1667.786    428.383    468.019    428.670
119.170   1605.523   1539.196     66.328    428.884   1500.769    428.884    467.195    429.178
119.270   1443.049   1392.130     50.919    429.397   1354.936    429.397    466.437    429.697
119.370   1230.911   1264.622    -33.711    429.920   1228.609    429.920    465.742    430.227
119.470   1129.000   1154.847    -25.847    430.453   1119.968    430.453    465.111    430.768
119.570   1039.478   1060.923    -21.444    430.998   1027.132    430.998    464.539    431.320
119.670    955.000    980.989    -25.989    431.553    948.240    431.553    464.028    431.884
119.770    898.000    913.259    -15.259    432.120    881.510    432.120    463.573    432.459
119.870    886.785    856.069     30.716    432.698    825.277    432.698    463.175    433.045
119.970    813.372    807.905      5.467    433.287    778.028    433.287    462.831    433.643
120.070    753.675    767.414    -13.739    433.887    738.413    433.887    462.541    434.253
120.170    740.000    733.412      6.588    434.499    705.249    434.499    462.301    434.875
120.270    668.850    704.880    -36.030    435.123    677.518    435.123    462.111    435.508
120.370    664.390    680.951    -16.561    435.758    654.352    435.758    461.970    436.153
120.470    669.000    660.896      8.104    436.404    635.027    436.404    461.876    436.811
120.570    621.000    644.110    -23.110    437.063    618.936    437.063    461.827    437.481
120.670    588.000    630.094    -42.094    437.733    605.585    437.733    461.822    438.162
120.770    591.000    618.442    -27.442    438.416    594.566    438.416    461.860    438.857
120.870    639.000    608.821     30.179    439.110    585.547    439.110    461.939    439.563
120.970    566.000    600.959    -34.959    439.817    578.261    439.817    462.059    440.282
121.070    600.964    594.639      6.325    440.536    572.489    440.536    462.218    441.014
121.170    586.000    589.680     -3.680    441.267    568.052    441.267    462.415    441.758
121.270    565.000    585.933    -20.933    442.011    564.804    442.011    462.648    442.515
121.370    613.251    583.277     29.974    442.768    562.623    442.768    462.917    443.285
121.470    631.000    581.605     49.395    443.537    561.403    443.537    463.221    444.068
121.570    579.000    580.826     -1.826    444.319    561.057    444.319    463.559    444.864
121.670    575.676    580.858     -5.183    445.113    561.501    445.113    463.929    445.672
121.770    564.000    581.625    -17.625    445.921    562.661    445.921    464.330    446.494
121.870    553.459    583.051    -29.592    446.742    564.463    446.742    464.763    447.329
121.970    584.000    585.065     -1.065    447.576    566.837    447.576    465.225    448.177
122.070    585.000    587.590     -2.590    448.423    569.706    448.423    465.716    449.038
122.170    573.823    590.549    -16.726    449.283    572.994    449.283    466.236    449.913
122.270    593.000    593.859     -0.859    450.157    576.620    450.157    466.783    450.801
122.370    628.964    597.433     31.531    451.045    580.497    451.045    467.356    451.702
122.470    631.106    601.178     29.927    451.946    584.533    451.946    467.955    452.617
122.570    592.000    604.997    -12.997    452.861    588.632    452.861    468.580    453.545
122.670    600.748    608.786     -8.038    453.790    592.692    453.790    469.228    454.486
122.770    602.000    612.439    -10.439    454.733    596.607    454.733    469.901    455.441
122.870    623.000    615.849      7.151    455.689    600.269    455.689    470.596    456.409
122.970    637.000    618.902     18.098    456.660    603.568    456.660    471.314    457.391
123.070    622.000    621.472      0.528    457.646    606.376    457.646    472.053    458.387
123.170    606.381    623.532    -17.151    458.646    608.668    458.646    472.814    459.395
123.270    641.276    624.973     16.302    459.660    610.336    459.660    473.595    460.418
123.370    669.794    625.734     44.060    460.689    611.319    460.689    474.396    461.454
123.470    649.000    625.779     23.221    461.732    611.581    461.732    475.217    462.504
123.570    654.000    625.097     28.903    462.790    611.113    462.790    476.057    463.567
123.670    580.745    623.702    -42.957    463.863    609.928    463.863    476.917    464.644
123.770    657.000    621.628     35.372    464.952    608.062    464.952    477.794    465.735
123.870    597.000    618.929    -21.929    466.055    605.569    466.055    478.690    466.839
123.970    609.874    615.672     -5.798    467.174    602.515    467.174    479.604    467.958
124.070    591.386    611.932    -20.546    468.308    598.976    468.308    480.536    469.091
124.170    636.754    607.791     28.964    469.457    595.035    469.457    481.486    470.238
124.270    576.166    603.332    -27.166    470.622    590.775    470.622    482.453    471.399
124.370    601.236    598.639      2.597    471.802    586.280    471.802    483.438    472.575
124.470    599.000    593.793      5.207    472.999    581.632    472.999    484.440    473.765
124.570    603.284    588.875     14.408    474.211    576.910    474.211    485.461    474.970
124.670    602.000    583.958     18.042    475.439    572.188    475.439    486.499    476.190
124.770    604.042    579.110     24.933    476.684    567.535    476.684    487.555    477.426
124.870    637.000    574.391     62.609    477.944    563.010    477.944    488.629    478.676
124.970    584.000    569.857     14.143    479.221    558.668    479.221    489.722    479.942
