neutron_powder_diffraction_0222
R_wp: 3.885
Temperature (K): 1074.000
Counts: 83623.00
Wavelength (Ã…): 2.52098
COMMENTS
Test file for demonstrating the .xyy file format in Reel1.0
END OF HEADER
   tth       Y_obs     Y_calc      Y_res    Background    Phase_1_Nuc    Phase_1_Mag    Phase_2_Nuc    Phase_2_Mag
  9.970    638.000    581.425     56.575    580.798    581.397    580.798    580.826    580.798
 10.070    578.000    581.477     -3.477    580.794    581.448    580.794    580.823    580.794
 10.170    589.300    581.545      7.754    580.785    581.516    580.785    580.814    580.785
 10.270    608.000    581.605     26.395    580.771    581.576    580.771    580.799    580.771
 10.370    624.000    581.667     42.333    580.751    581.638    580.751    580.780    580.751
 10.470    539.583    581.739    -42.156    580.726    581.709    580.726    580.755    580.726
 10.570    607.572    581.822     25.749    580.695    581.792    580.695    580.724    580.695
 10.670    623.975    581.923     42.052    580.659    581.892    580.659    580.689    580.659
 10.770    626.804    582.047     44.757    580.619    582.016    580.619    580.649    580.619
 10.870    554.365    582.203    -27.838    580.573    582.170    580.573    580.604    580.573
 10.970    571.000    582.401    -11.401    580.522    582.368    580.522    580.554    580.522
 11.070    571.000    582.658    -11.658    580.466    582.625    580.466    580.498    580.466
 11.170    527.000    583.000    -56.000    580.405    582.966    580.405    580.437    580.405
 11.270    630.000    583.463     46.537    580.339    583.429    580.339    580.372    580.339
 11.370    570.000    584.113    -14.113    580.269    584.078    580.269    580.301    580.269
 11.470    559.000    585.089    -26.089    580.193    585.052    580.193    580.228    580.193
 11.570    614.000    586.792     27.208    580.113    586.742    580.113    580.159    580.113
 11.670    624.000    590.326     33.674    580.028    590.273    580.028    580.076    580.028
 11.770    652.000    598.340     53.660    579.939    598.282    579.939    579.987    579.939
 11.870    597.381    615.146    -17.765    579.845    615.078    579.845    579.893    579.845
 11.970    674.000    644.148     29.852    579.746    644.064    579.746    579.795    579.746
 12.070    714.000    681.646     32.354    579.643    681.541    579.643    579.692    579.643
 12.170    694.000    711.184    -17.184    579.536    711.062    579.536    579.585    579.536
 12.270    683.000    712.041    -29.041    579.424    711.918    579.424    579.473    579.424
 12.370    662.000    683.340    -21.340    579.308    683.233    579.308    579.357    579.308
 12.470    662.000    645.444     16.556    579.187    645.357    579.187    579.237    579.187
 12.570    626.529    615.556     10.973    579.062    615.480    579.062    579.118    579.062
 12.670    591.000    597.943     -6.943    578.934    597.876    578.934    578.990    578.934
 12.770    537.000    589.380    -52.380    578.800    589.317    578.800    578.858    578.800
 12.870    570.000    585.487    -15.487    578.663    585.426    578.663    578.721    578.663
 12.970    548.481    583.523    -35.042    578.522    583.463    578.522    578.580    578.522
 13.070    566.446    582.308    -15.862    578.377    582.247    578.377    578.435    578.377
 13.170    584.000    581.429      2.571    578.228    581.369    578.228    578.286    578.228
 13.270    574.000    580.742     -6.742    578.075    580.682    578.075    578.134    578.075
 13.370    597.675    580.179     17.496    577.918    580.119    577.918    577.977    577.918
 13.470    581.000    579.704      1.296    577.757    579.643    577.757    577.817    577.757
 13.570    614.612    579.290     35.323    577.593    579.229    577.593    577.653    577.593
 13.670    567.000    578.921    -11.921    577.425    578.860    577.425    577.485    577.425
 13.770    550.000    578.586    -28.586    577.253    578.525    577.253    577.313    577.253
 13.870    579.000    578.275      0.725    577.078    578.214    577.078    577.138    577.078
 13.970    611.668    577.984     33.685    576.898    577.922    576.898    576.959    576.898
 14.070    562.000    577.706    -15.706    576.716    577.645    576.716    576.777    576.716
 14.170    595.000    577.440     17.560    576.530    577.378    576.530    576.592    576.530
 14.270    565.000    577.181    -12.181    576.340    577.119    576.340    576.402    576.340
 14.370    638.000    576.929     61.071    576.148    576.867    576.148    576.210    576.148
 14.470    567.000    576.682     -9.682    575.951    576.619    575.951    576.014    575.951
 14.570    565.000    576.438    -11.438    575.752    576.374    575.752    575.816    575.752
 14.670    551.000    576.199    -25.199    575.549    576.132    575.549    575.616    575.549
 14.770    537.203    575.959    -38.756    575.343    575.891    575.343    575.411    575.343
 14.870    582.000    575.720      6.280    575.134    575.651    575.134    575.203    575.134
 14.970    565.110    575.484    -10.374    574.921    575.414    574.921    574.991    574.921
 15.070    585.000    575.246      9.754    574.706    575.176    574.706    574.776    574.706
 15.170    554.903    575.007    -20.104    574.488    574.936    574.488    574.558    574.488
 15.270    576.321    574.766      1.554    574.266    574.695    574.266    574.337    574.266
 15.370    586.000    574.525     11.475    574.042    574.453    574.042    574.113    574.042
 15.470    537.110    574.282    -37.173    573.814    574.210    573.814    573.886    573.814
 15.570    603.776    574.039     29.738    573.584    573.966    573.584    573.657    573.584
 15.670    563.000    573.793    -10.793    573.351    573.720    573.351    573.424    573.351
 15.770    575.000    573.546      1.454    573.115    573.473    573.115    573.188    573.115
 15.870    555.217    573.298    -18.081    572.876    573.224    572.876    572.950    572.876
 15.970    568.712    573.048     -4.336    572.635    572.973    572.635    572.709    572.635
 16.070    564.776    572.796     -8.020    572.391    572.721    572.391    572.466    572.391
 16.170    573.138    572.542      0.596    572.144    572.467    572.144    572.220    572.144
 16.270    600.000    572.286     27.714    571.895    572.211    571.895    571.971    571.895
 16.370    606.650    572.029     34.621    571.643    571.953    571.643    571.719    571.643
 16.470    535.281    571.770    -36.489    571.389    571.693    571.389    571.466    571.389
 16.570    606.000    571.509     34.491    571.132    571.432    571.132    571.209    571.132
 16.670    592.645    571.246     21.399    570.873    571.168    570.873    570.951    570.873
 16.770    493.000    570.982    -77.982    570.612    570.904    570.612    570.690    570.612
 16.870    543.000    570.716    -27.716    570.348    570.638    570.348    570.426    570.348
 16.970    567.000    570.448     -3.448    570.081    570.369    570.081    570.161    570.081
 17.070    604.458    570.179     34.279    569.813    570.098    569.813    569.894    569.813
 17.170    542.742    569.907    -27.165    569.542    569.825    569.542    569.624    569.542
 17.270    595.000    569.633     25.367    569.269    569.550    569.269    569.351    569.269
 17.370    536.000    569.357    -33.357    568.994    569.274    568.994    569.077    568.994
 17.470    549.000    569.079    -20.079    568.716    568.995    568.716    568.800    568.716
 17.570    598.452    568.799     29.652    568.437    568.715    568.437    568.521    568.437
 17.670    574.000    568.520      5.480    568.156    568.436    568.156    568.240    568.156
 17.770    598.337    568.238     30.099    567.872    568.153    567.872    567.958    567.872
 17.870    554.000    567.954    -13.954    567.587    567.868    567.587    567.673    567.587
 17.970    581.000    567.667     13.333    567.299    567.581    567.299    567.386    567.299
 18.070    547.000    567.379    -20.379    567.010    567.292    567.010    567.097    567.010
 18.170    562.000    567.090     -5.090    566.719    567.002    566.719    566.807    566.719
 18.270    551.000    566.799    -15.799    566.426    566.710    566.426    566.514    566.426
 18.370    507.000    566.506    -59.506    566.131    566.417    566.131    566.220    566.131
 18.470    564.000    566.212     -2.212    565.835    566.122    565.835    565.924    565.835
 18.570    600.433    565.916     34.516    565.536    565.826    565.536    565.627    565.536
 18.670    527.692    565.619    -37.927    565.237    565.528    565.237    565.328    565.237
 18.770    557.000    565.321     -8.321    564.935    565.229    564.935    565.027    564.935
 18.870    579.423    565.021     14.402    564.632    564.929    564.632    564.724    564.632
 18.970    559.207    564.720     -5.514    564.327    564.627    564.327    564.421    564.327
 19.070    603.391    564.423     38.968    564.021    564.324    564.021    564.120    564.021
 19.170    574.000    564.121      9.879    563.713    564.019    563.713    563.814    563.713
 19.270    557.544    563.817     -6.272    563.403    563.714    563.403    563.506    563.403
 19.370    552.000    563.511    -11.511    563.092    563.407    563.092    563.196    563.092
 19.470    571.000    563.205      7.795    562.780    563.100    562.780    562.885    562.780
 19.570    593.115    562.898     30.217    562.467    562.793    562.467    562.572    562.467
 19.670    530.311    562.590    -32.279    562.152    562.484    562.152    562.258    562.152
 19.770    534.713    562.280    -27.567    561.835    562.173    561.835    561.942    561.835
 19.870    577.617    561.969     15.647    561.518    561.861    561.518    561.626    561.518
 19.970    576.000    561.657     14.343    561.199    561.548    561.199    561.308    561.199
 20.070    579.000    561.345     17.655    560.879    561.235    560.879    560.989    560.879
 20.170    603.000    561.032     41.968    560.558    560.921    560.558    560.669    560.558
 20.270    549.000    560.719    -11.719    560.235    560.607    560.235    560.347    560.235
 20.370    545.000    560.417    -15.417    559.912    560.305    559.912    560.025    559.912
 20.470    556.361    560.112     -3.752    559.587    559.998    559.587    559.701    559.587
 20.570    578.739    559.797     18.941    559.262    559.682    559.262    559.377    559.262
 20.670    551.000    559.482     -8.482    558.935    559.365    558.935    559.051    558.935
 20.770    531.301    559.165    -27.865    558.607    559.048    558.607    558.725    558.607
 20.870    563.882    558.849      5.033    558.279    558.730    558.279    558.397    558.279
 20.970    556.000    558.532     -2.532    557.949    558.412    557.949    558.069    557.949
 21.070    530.000    558.215    -28.215    557.618    558.094    557.618    557.739    557.618
 21.170    542.000    557.898    -15.898    557.287    557.776    557.287    557.409    557.287
 21.270    549.000    557.581     -8.581    556.955    557.458    556.955    557.078    556.955
 21.370    535.427    557.265    -21.838    556.622    557.140    556.622    556.747    556.622
 21.470    558.415    556.949      1.466    556.288    556.823    556.288    556.414    556.288
 21.570    554.000    556.633     -2.633    555.953    556.505    555.953    556.081    555.953
 21.670    572.000    556.318     15.682    555.618    556.189    555.618    555.747    555.618
 21.770    577.286    556.004     21.281    555.282    555.874    555.282    555.413    555.282
 21.870    515.438    555.691    -40.253    554.945    555.559    554.945    555.077    554.945
 21.970    530.369    555.380    -25.011    554.608    555.246    554.608    554.742    554.608
 22.070    565.000    555.070      9.930    554.270    554.934    554.270    554.405    554.270
 22.170    558.000    554.762      3.238    553.931    554.625    553.931    554.069    553.931
 22.270    577.000    554.464     22.536    553.592    554.325    553.592    553.731    553.592
 22.370    509.000    554.244    -45.244    553.253    554.103    553.253    553.393    553.253
 22.470    513.525    553.986    -40.461    552.912    553.843    552.912    553.055    552.912
 22.570    581.121    553.719     27.402    552.572    553.575    552.572    552.716    552.572
 22.670    529.601    553.432    -23.830    552.231    553.285    552.231    552.377    552.231
 22.770    568.000    553.152     14.848    551.889    553.003    551.889    552.038    551.889
 22.870    550.000    552.921     -2.921    551.547    552.770    551.547    551.698    551.547
 22.970    548.000    552.675     -4.675    551.205    552.522    551.205    551.358    551.205
 23.070    538.000    552.421    -14.421    550.862    552.264    550.862    551.020    550.862
 23.170    550.000    552.178     -2.178    550.519    552.017    550.519    550.681    550.519
 23.270    567.000    551.951     15.049    550.176    551.788    550.176    550.340    550.176
 23.370    541.351    551.745    -10.395    549.833    551.579    549.833    549.999    549.833
 23.470    551.000    551.567     -0.567    549.489    551.398    549.489    549.658    549.489
 23.570    551.283    551.425     -0.142    549.145    551.253    549.145    549.317    549.145
 23.670    537.000    551.332    -14.332    548.801    551.157    548.801    548.976    548.801
 23.770    559.000    551.305      7.695    548.456    551.128    548.456    548.635    548.456
 23.870    556.000    551.375      4.625    548.112    551.195    548.112    548.294    548.112
 23.970    557.000    551.592      5.408    547.767    551.409    547.767    547.953    547.767
 24.070    535.000    552.082    -17.082    547.423    551.895    547.423    547.612    547.423
 24.170    560.000    553.195      6.805    547.078    553.006    547.078    547.271    547.078
 24.270    616.000    555.876     60.124    546.733    555.685    546.733    546.930    546.733
 24.370    593.491    562.134     31.357    546.388    561.944    546.388    546.589    546.388
 24.470    620.807    574.783     46.024    546.044    574.598    546.044    546.249    546.044
 24.570    626.549    595.258     31.291    545.699    595.082    545.699    545.909    545.699
 24.670    612.000    619.562     -7.562    545.354    619.399    545.354    545.569    545.354
 24.770    620.000    635.671    -15.671    545.009    635.516    545.009    545.230    545.009
 24.870    660.533    631.658     28.875    544.665    631.494    544.665    544.890    544.665
 24.970    625.000    610.767     14.233    544.320    610.583    544.320    544.552    544.320
 25.070    549.499    586.378    -36.879    543.976    586.170    543.976    544.214    543.976
 25.170    570.000    567.829      2.171    543.632    567.601    543.632    543.876    543.632
 25.270    571.923    556.924     14.999    543.288    556.682    543.288    543.539    543.288
 25.370    586.000    551.464     34.536    542.944    551.211    542.944    543.203    542.944
 25.470    527.000    548.842    -21.842    542.601    548.579    542.601    542.867    542.601
 25.570    537.000    547.422    -10.422    542.258    547.150    542.258    542.533    542.258
 25.670    551.384    546.477      4.907    541.915    546.195    541.915    542.199    541.915
 25.770    563.176    545.752     17.424    541.572    545.460    541.572    541.866    541.572
 25.870    559.000    545.161     13.839    541.230    544.858    541.230    541.534    541.230
 25.970    503.020    544.666    -41.646    540.888    544.352    540.888    541.203    540.888
 26.070    585.000    544.247     40.753    540.546    543.920    540.546    540.874    540.546
 26.170    509.389    543.888    -34.499    540.205    543.548    540.205    540.545    540.205
 26.270    606.000    543.581     62.419    539.864    543.227    539.864    540.219    539.864
 26.370    544.000    543.323      0.677    539.524    542.953    539.524    539.894    539.524
 26.470    572.000    543.110     28.890    539.184    542.723    539.184    539.571    539.184
 26.570    551.000    542.944      8.056    538.844    542.539    538.844    539.250    538.844
 26.670    525.000    542.835    -17.835    538.505    542.409    538.505    538.931    538.505
 26.770    599.000    542.811     56.189    538.167    542.363    538.167    538.615    538.167
 26.870    536.000    542.856     -6.856    537.829    542.383    537.829    538.301    537.829
 26.970    546.000    542.969      3.031    537.491    542.468    537.491    537.991    537.491
 27.070    517.000    543.193    -26.193    537.154    542.662    537.154    537.685    537.154
 27.170    538.071    543.565     -5.494    536.818    543.000    536.818    537.382    536.818
 27.270    559.436    544.138     15.298    536.482    543.535    536.482    537.085    536.482
 27.370    512.674    544.994    -32.319    536.147    544.347    536.147    536.792    536.147
 27.470    571.000    546.266     24.734    535.813    545.571    535.813    536.506    535.813
 27.570    542.000    548.345     -6.345    535.479    547.594    535.479    536.228    535.479
 27.670    587.894    552.549     35.345    535.146    551.733    535.146    535.958    535.146
 27.770    540.044    563.362    -23.318    534.813    562.470    534.813    535.699    534.813
 27.870    605.000    592.522     12.478    534.482    591.535    534.482    535.452    534.482
 27.970    680.000    658.576     21.424    534.151    657.469    534.151    535.220    534.151
 28.070    762.000    770.142     -8.142    533.820    768.885    533.820    535.008    533.820
 28.170    894.094    895.622     -1.528    533.491    894.199    533.491    534.818    533.491
 28.270    925.000    957.565    -32.565    533.162    955.976    533.162    534.658    533.162
 28.370    897.000    904.705     -7.705    532.834    902.946    532.834    534.535    532.834
 28.470    811.000    791.305     19.695    532.507    789.327    532.507    534.463    532.507
 28.570    715.728    703.866     11.862    532.181    701.578    532.181    534.459    532.181
 28.670    715.494    686.476     29.018    531.855    683.761    531.855    534.557    531.855
 28.770    713.671    733.753    -20.082    531.531    730.449    531.531    534.816    531.531
 28.870    778.000    804.662    -26.662    531.207    800.514    531.207    535.344    531.207
 28.970    811.000    838.346    -27.346    530.884    832.915    530.884    536.320    530.884
 29.070    765.167    798.958    -33.791    530.562    791.518    530.562    538.016    530.562
 29.170    701.637    718.361    -16.724    530.241    707.855    530.241    540.761    530.241
 29.270    616.000    645.414    -29.414    529.921    630.490    529.921    544.854    529.921
 29.370    587.000    601.816    -14.816    529.602    581.058    529.602    550.364    529.602
 29.470    584.163    584.160      0.003    529.284    556.654    529.284    556.791    529.284
 29.570    626.000    579.868     46.132    528.967    546.272    528.967    562.562    528.967
 29.670    649.000    578.143     70.857    528.651    541.710    528.651    565.083    528.651
 29.770    530.533    573.624    -43.091    528.336    539.243    528.336    562.715    528.336
 29.870    631.000    566.308     64.692    528.022    537.620    528.022    556.708    528.022
 29.970    565.000    558.404      6.596    527.709    536.464    527.709    549.647    527.709
 30.070    531.000    551.559    -20.559    527.397    535.656    527.397    543.298    527.397
 30.170    562.000    546.409     15.591    527.086    535.173    527.086    538.320    527.086
 30.270    612.000    543.065     68.935    526.776    535.119    526.776    534.720    526.776
 30.370    507.000    541.679    -34.679    526.467    535.914    526.467    532.229    526.467
 30.470    546.000    543.064      2.936    526.160    538.706    526.160    530.512    526.160
 30.570    522.000    549.135    -27.135    525.853    545.688    525.853    529.288    525.853
 30.670    603.000    562.172     40.828    525.548    559.338    525.548    528.360    525.548
 30.770    625.000    582.098     42.902    525.244    579.696    525.244    527.609    525.244
 30.870    652.000    602.927     49.073    524.941    600.848    524.941    526.969    524.941
 30.970    603.000    612.447     -9.447    524.639    610.628    524.639    526.403    524.639
 31.070    581.452    602.561    -21.108    524.338    600.964    524.338    525.891    524.338
 31.170    572.000    580.777     -8.777    524.039    579.369    524.039    525.419    524.039
 31.270    575.715    559.309     16.406    523.741    558.057    523.741    524.977    523.741
 31.370    518.631    544.393    -25.762    523.444    543.268    523.444    524.561    523.444
 31.470    574.325    536.205     38.119    523.148    535.185    523.148    524.164    523.148
 31.570    503.753    532.315    -28.562    522.854    531.382    522.854    523.784    522.854
 31.670    519.945    530.474    -10.530    522.561    529.616    522.561    523.418    522.561
 31.770    565.869    529.463     36.406    522.269    528.668    522.269    523.062    522.269
 31.870    529.000    528.799      0.201    521.978    528.059    521.978    522.717    521.978
 31.970    502.917    528.319    -25.402    521.689    527.627    521.689    522.379    521.689
 32.070    506.994    527.970    -20.976    521.401    527.321    521.401    522.049    521.401
 32.170    505.000    527.732    -22.732    521.114    527.120    521.114    521.725    521.114
 32.270    485.578    527.597    -42.019    520.829    527.018    520.829    521.407    520.829
 32.370    544.000    527.565     16.435    520.545    527.016    520.545    521.094    520.545
 32.470    578.000    527.645     50.355    520.262    527.121    520.262    520.785    520.262
 32.570    516.753    527.853    -11.100    519.981    527.353    519.981    520.480    519.981
 32.670    531.000    528.210      2.790    519.701    527.731    519.701    520.179    519.701
 32.770    524.919    528.751     -3.832    519.423    528.291    519.423    519.882    519.423
 32.870    560.000    529.530     30.470    519.146    529.087    519.146    519.588    519.146
 32.970    511.000    530.625    -19.625    518.870    530.197    518.870    519.297    518.870
 33.070    554.000    532.155     21.845    518.596    531.740    518.596    519.009    518.596
 33.170    512.325    534.334    -22.008    518.323    533.932    518.323    518.723    518.323
 33.270    593.000    537.656     55.344    518.052    537.265    518.052    518.440    518.052
 33.370    548.000    543.481      4.519    517.782    543.100    517.782    518.160    517.782
 33.470    531.114    555.477    -24.363    517.513    555.103    517.513    517.882    517.513
 33.570    611.000    581.797     29.203    517.246    581.427    517.246    517.606    517.246
 33.670    647.000    635.675     11.325    516.981    635.303    516.981    517.332    516.981
 33.770    764.000    729.495     34.505    516.717    729.116    516.717    517.061    516.717
 33.870    877.000    860.020     16.980    516.454    859.631    516.454    516.792    516.454
 33.970   1024.000    991.592     32.408    516.193    991.200    516.193    516.524    516.193
 34.070   1063.030   1056.202      6.828    515.933   1055.825    515.933    516.259    515.933
 34.170    957.195   1007.619    -50.424    515.675   1007.273    515.675    515.996    515.675
 34.270    930.000    882.071     47.929    515.419    881.754    515.419    515.735    515.419
 34.370    727.845    748.029    -20.183    515.164    747.726    515.164    515.476    515.164
 34.470    622.393    646.914    -24.521    514.911    646.615    514.911    515.218    514.911
 34.570    549.832    586.399    -36.567    514.659    586.101    514.659    514.963    514.659
 34.670    565.000    555.701      9.299    514.409    555.402    514.409    514.709    514.409
 34.770    558.000    541.264     16.736    514.160    540.967    514.160    514.458    514.160
 34.870    527.000    534.078     -7.078    513.913    533.783    513.913    514.208    513.913
 34.970    496.000    529.857    -33.857    513.667    529.564    513.667    513.960    513.667
 35.070    557.000    526.944     30.056    513.423    526.654    513.423    513.714    513.423
 35.170    523.000    524.741     -1.741    513.181    524.452    513.181    513.469    513.181
 35.270    500.517    522.995    -22.478    512.940    522.708    512.940    513.227    512.940
 35.370    499.000    521.575    -22.575    512.701    521.290    512.701    512.986    512.701
 35.470    499.739    520.395    -20.656    512.463    520.110    512.463    512.747    512.463
 35.570    525.000    519.396      5.604    512.227    519.113    512.227    512.510    512.227
 35.670    535.719    518.537     17.182    511.993    518.255    511.993    512.275    511.993
 35.770    516.000    517.789     -1.789    511.760    517.508    511.760    512.041    511.760
 35.870    549.000    517.129     31.871    511.529    516.848    511.529    511.809    511.529
 35.970    517.000    516.541      0.459    511.300    516.261    511.300    511.579    511.300
 36.070    513.000    516.013     -3.013    511.072    515.733    511.072    511.351    511.072
 36.170    482.000    515.535    -33.535    510.846    515.256    510.846    511.125    510.846
 36.270    525.000    515.101      9.899    510.622    514.823    510.622    510.900    510.622
 36.370    522.237    514.706      7.531    510.399    514.428    510.399    510.677    510.399
 36.470    476.516    514.348    -37.832    510.178    514.069    510.178    510.456    510.178
 36.570    483.000    514.024    -31.024    509.958    513.745    509.958    510.237    509.958
 36.670    531.000    513.736     17.264    509.741    513.457    509.741    510.020    509.741
 36.770    525.000    513.490     11.510    509.525    513.210    509.525    509.804    509.525
 36.870    514.147    513.303      0.844    509.310    513.023    509.310    509.590    509.310
 36.970    542.014    513.224     28.791    509.098    512.943    509.098    509.378    509.098
 37.070    528.331    513.372     14.958    508.887    513.091    508.887    509.168    508.887
 37.170    539.000    513.983     25.017    508.678    513.702    508.678    508.960    508.678
 37.270    524.000    515.400      8.600    508.470    515.118    508.470    508.753    508.470
 37.370    553.829    517.917     35.912    508.264    517.634    508.264    508.548    508.264
 37.470    505.000    521.454    -16.454    508.060    521.171    508.060    508.345    508.060
 37.570    492.674    525.192    -32.518    507.858    524.909    507.858    508.144    507.858
 37.670    511.000    527.536    -16.536    507.657    527.252    507.657    507.945    507.657
 37.770    543.000    527.147     15.853    507.459    526.865    507.459    507.747    507.459
 37.870    466.000    524.374    -58.374    507.261    524.092    507.261    507.552    507.261
 37.970    537.935    520.684     17.251    507.066    520.403    507.066    507.358    507.066
 38.070    494.000    517.220    -23.220    506.872    516.937    506.872    507.166    506.872
 38.170    551.949    514.427     37.522    506.681    514.141    506.681    506.976    506.681
 38.270    534.132    512.383     21.749    506.490    512.093    506.490    506.787    506.490
 38.370    502.000    510.988     -8.988    506.302    510.693    506.302    506.601    506.302
 38.470    496.000    510.067    -14.067    506.115    509.769    506.115    506.416    506.115
 38.570    469.673    509.457    -39.784    505.930    509.156    505.930    506.233    505.930
 38.670    490.000    509.034    -19.034    505.747    508.730    505.747    506.052    505.747
 38.770    480.338    508.714    -28.376    505.566    508.407    505.566    505.873    505.566
 38.870    477.000    508.449    -31.449    505.386    508.140    505.386    505.696    505.386
 38.970    494.000    508.215    -14.215    505.209    507.903    505.209    505.520    505.209
 39.070    467.348    508.000    -40.653    505.033    507.687    505.033    505.347    505.033
 39.170    510.000    507.801      2.199    504.858    507.484    504.858    505.175    504.858
 39.270    530.369    507.613     22.756    504.686    507.294    504.686    505.005    504.686
 39.370    538.370    507.436     30.934    504.515    507.114    504.515    504.837    504.515
 39.470    525.987    507.268     18.719    504.346    506.943    504.346    504.671    504.346
 39.570    513.000    507.108      5.892    504.179    506.781    504.179    504.507    504.179
 39.670    492.000    506.957    -14.957    504.014    506.626    504.014    504.345    504.014
 39.770    540.408    506.813     33.595    503.850    506.479    503.850    504.184    503.850
 39.870    473.235    506.677    -33.442    503.688    506.339    503.688    504.026    503.688
 39.970    464.006    506.548    -42.542    503.528    506.208    503.528    503.869    503.528
 40.070    431.000    506.428    -75.428    503.370    506.084    503.370    503.714    503.370
 40.170    537.000    506.316     30.684    503.213    505.968    503.213    503.561    503.213
 40.270    516.337    506.213     10.124    503.059    505.861    503.059    503.410    503.059
 40.370    465.000    506.119    -41.119    502.906    505.764    502.906    503.261    502.906
 40.470    520.992    506.036     14.956    502.755    505.677    502.755    503.114    502.755
 40.570    514.000    505.965      8.035    502.605    505.602    502.605    502.969    502.605
 40.670    513.000    505.908      7.092    502.458    505.540    502.458    502.826    502.458
 40.770    532.972    505.865     27.107    502.312    505.494    502.312    502.685    502.312
 40.870    534.740    505.841     28.899    502.168    505.465    502.168    502.545    502.168
 40.970    485.000    505.838    -20.838    502.026    505.457    502.026    502.408    502.026
 41.070    505.000    505.861     -0.861    501.886    505.475    501.886    502.272    501.886
 41.170    521.000    505.915     15.085    501.747    505.524    501.747    502.138    501.747
 41.270    516.000    506.007      9.993    501.611    505.612    501.611    502.007    501.611
 41.370    527.132    506.150     20.982    501.476    505.749    501.476    501.877    501.476
 41.470    537.117    506.356     30.761    501.342    505.950    501.342    501.750    501.342
 41.570    529.000    506.650     22.350    501.211    506.239    501.211    501.624    501.211
 41.670    492.000    507.072    -15.072    501.082    506.655    501.082    501.500    501.082
 41.770    538.000    507.716     30.284    500.954    507.293    500.954    501.378    500.954
 41.870    521.000    508.806     12.194    500.828    508.377    500.828    501.259    500.828
 41.970    515.000    510.872      4.128    500.703    510.438    500.703    501.141    500.703
 42.070    491.000    514.994    -23.994    500.581    514.555    500.581    501.025    500.581
 42.170    509.000    522.928    -13.928    500.460    522.486    500.460    500.911    500.460
 42.270    512.000    536.730    -24.730    500.342    536.288    500.342    500.800    500.342
 42.370    573.000    557.523     15.477    500.225    557.083    500.225    500.690    500.225
 42.470    501.000    583.621    -82.621    500.109    583.187    500.109    500.582    500.109
 42.570    603.000    608.910     -5.910    499.996    608.482    499.996    500.477    499.996
 42.670    582.000    623.400    -41.400    499.884    622.974    499.884    500.373    499.884
 42.770    576.000    619.461    -43.461    499.774    619.028    499.774    500.272    499.774
 42.870    606.189    599.418      6.772    499.666    598.967    499.666    500.173    499.666
 42.970    551.000    572.786    -21.786    499.559    572.313    499.559    500.076    499.559
 43.070    546.351    548.251     -1.900    499.455    547.754    499.455    499.981    499.455
 43.170    501.000    530.069    -29.069    499.352    529.550    499.352    499.888    499.352
 43.270    535.319    518.616     16.703    499.251    518.080    499.251    499.797    499.251
 43.370    503.244    512.235     -8.990    499.152    511.683    499.152    499.709    499.152
 43.470    430.000    508.914    -78.914    499.054    508.349    499.054    499.623    499.054
 43.570    496.000    507.165    -11.165    498.958    506.587    498.958    499.539    498.958
 43.670    528.000    506.149     21.851    498.864    505.558    498.864    499.457    498.864
 43.770    502.955    505.475     -2.520    498.772    504.871    498.772    499.378    498.772
 43.870    470.261    504.982    -34.721    498.681    504.363    498.681    499.301    498.681
 43.970    519.000    504.600     14.400    498.593    503.967    498.593    499.226    498.593
 44.070    525.112    504.298     20.815    498.506    503.650    498.506    499.154    498.506
 44.170    475.363    504.056    -28.693    498.420    503.393    498.420    499.085    498.420
 44.270    517.000    503.862     13.138    498.337    503.182    498.337    499.017    498.337
 44.370    550.000    503.707     46.293    498.255    503.009    498.255    498.953    498.255
 44.470    532.446    503.583     28.863    498.175    502.868    498.175    498.891    498.175
 44.570    462.145    503.487    -41.342    498.097    502.753    498.097    498.832    498.097
 44.670    494.000    503.415     -9.415    498.020    502.660    498.020    498.775    498.020
 44.770    507.038    503.364      3.674    497.945    502.588    497.945    498.721    497.945
 44.870    488.543    503.332    -14.790    497.872    502.534    497.872    498.671    497.872
 44.970    533.428    503.318     30.110    497.801    502.496    497.801    498.623    497.801
 45.070    510.000    503.322      6.678    497.731    502.474    497.731    498.578    497.731
 45.170    501.594    503.341     -1.748    497.663    502.468    497.663    498.537    497.663
 45.270    495.904    503.377     -7.473    497.597    502.475    497.597    498.499    497.597
 45.370    513.050    503.430      9.620    497.532    502.498    497.532    498.464    497.532
 45.470    526.000    503.499     22.501    497.469    502.535    497.469    498.434    497.469
 45.570    470.000    503.586    -33.586    497.408    502.587    497.408    498.407    497.408
 45.670    480.242    503.692    -23.450    497.348    502.656    497.348    498.384    497.348
 45.770    462.000    503.817    -41.817    497.291    502.742    497.291    498.365    497.291
 45.870    535.751    503.964     31.787    497.234    502.846    497.234    498.351    497.234
 45.970    501.000    504.134     -3.134    497.180    502.971    497.180    498.342    497.180
 46.070    511.000    504.331      6.669    497.127    503.119    497.127    498.339    497.127
 46.170    480.000    504.558    -24.558    497.076    503.293    497.076    498.341    497.076
 46.270    513.000    504.819      8.181    497.027    503.496    497.027    498.349    497.027
 46.370    473.679    505.120    -31.441    496.979    503.734    496.979    498.363    496.979
 46.470    475.000    505.467    -30.467    496.933    504.014    496.933    498.385    496.933
 46.570    498.000    505.872     -7.872    496.888    504.345    496.888    498.415    496.888
 46.670    516.000    506.349      9.651    496.845    504.740    496.845    498.454    496.845
 46.770    520.000    506.922     13.078    496.804    505.223    496.804    498.502    496.804
 46.870    468.000    507.644    -39.644    496.765    505.845    496.765    498.562    496.765
 46.970    529.000    508.630     20.370    496.727    506.721    496.727    498.633    496.727
 47.070    503.000    510.135     -7.135    496.690    508.103    496.690    498.719    496.690
 47.170    554.763    512.661     42.102    496.656    510.491    496.656    498.820    496.656
 47.270    503.000    517.040    -14.040    496.623    514.714    496.623    498.940    496.623
 47.370    524.000    524.338     -0.338    496.591    521.836    496.591    499.081    496.591
 47.470    519.000    535.436    -16.436    496.561    532.730    496.561    499.246    496.561
 47.570    551.000    550.277      0.723    496.533    547.337    496.533    499.441    496.533
 47.670    564.000    567.090     -3.090    496.506    563.884    496.506    499.669    496.506
 47.770    578.000    581.890     -3.890    496.481    578.380    496.481    499.939    496.481
 47.870    603.000    589.356     13.644    496.458    585.499    496.458    500.258    496.458
 47.970    555.268    586.332    -31.065    496.436    582.078    496.436    500.638    496.436
 48.070    583.000    574.971      8.029    496.416    570.249    496.416    501.096    496.416
 48.170    515.000    560.469    -45.469    496.397    555.182    496.397    501.654    496.397
 48.270    546.000    547.316     -1.316    496.380    541.325    496.380    502.350    496.380
 48.370    543.000    537.918      5.082    496.364    531.022    496.364    503.247    496.364
 48.470    538.715    532.842      5.873    496.350    524.729    496.350    504.455    496.350
 48.570    522.259    531.606     -9.347    496.337    521.777    496.337    506.161    496.337
 48.670    504.298    533.514    -29.216    496.326    521.169    496.326    508.667    496.326
 48.770    558.000    538.196     19.804    496.316    522.088    496.316    512.421    496.316
 48.870    509.087    545.770    -36.683    496.308    524.067    496.308    518.008    496.308
 48.970    541.000    556.737    -15.737    496.302    526.963    496.302    526.073    496.302
 49.070    539.000    571.780    -32.780    496.297    530.927    496.297    537.146    496.297
 49.170    616.000    591.637     24.363    496.293    536.553    496.293    551.371    496.293
 49.270    593.000    617.361    -24.361    496.291    545.499    496.291    568.146    496.291
 49.370    665.000    651.401     13.599    496.291    562.015    496.291    585.665    496.291
 49.470    719.318    700.044     19.274    496.292    595.752    496.292    600.562    496.292
 49.570    803.000    777.382     25.618    496.294    665.156    496.294    608.479    496.294
 49.670    886.000    908.542    -22.542    496.298    798.294    496.298    606.473    496.298
 49.770   1172.000   1124.845     47.155    496.303   1025.647    496.303    595.386    496.303
 49.870   1444.000   1444.163     -0.163    496.310   1361.257    496.310    579.062    496.310
 49.970   1810.000   1842.802    -32.802    496.318   1777.356    496.318    561.595    496.318
 50.070   2240.052   2237.404      2.648    496.328   2187.881    496.328    545.720    496.328
 50.170   2499.000   2498.365      0.635    496.339   2461.944    496.339    532.725    496.339
 50.270   2508.030   2512.889     -4.859    496.351   2486.445    496.351    522.885    496.351
 50.370   2357.000   2269.645     87.355    496.365   2250.318    496.365    515.873    496.365
 50.470   1912.000   1869.992     42.008    496.380   1855.493    496.380    511.089    496.380
 50.570   1386.217   1448.562    -62.345    496.397   1437.247    496.397    507.900    496.397
 50.670   1039.000   1101.280    -62.280    496.415   1092.067    496.415    505.770    496.415
 50.770    830.000    864.681    -34.681    496.434    856.901    496.434    504.310    496.434
 50.870    692.000    728.597    -36.597    496.455    721.849    496.455    503.267    496.455
 50.970    631.066    661.145    -30.079    496.477    655.183    496.477    502.487    496.477
 51.070    631.000    629.718      1.282    496.501    624.378    496.501    501.881    496.501
 51.170    569.178    611.528    -42.350    496.526    606.693    496.526    501.396    496.526
 51.270    603.000    595.639      7.361    496.552    591.218    496.552    501.002    496.552
 51.370    609.876    579.692     30.184    496.580    575.615    496.580    500.679    496.580
 51.470    613.000    564.890     48.110    496.608    561.102    496.608    500.413    496.608
 51.570    585.000    552.701     32.299    496.639    549.158    496.639    500.194    496.639
 51.670    566.428    543.769     22.659    496.670    540.434    496.670    500.013    496.670
 51.770    566.000    537.905     28.095    496.703    534.748    496.703    499.865    496.703
 51.870    529.003    534.462     -5.458    496.737    531.458    496.737    499.745    496.737
 51.970    509.000    532.723    -23.723    496.772    529.850    496.772    499.648    496.772
 52.070    583.000    532.151     50.849    496.809    529.391    496.809    499.572    496.809
 52.170    542.000    532.463      9.537    496.847    529.798    496.847    499.514    496.847
 52.270    608.000    533.613     74.387    496.886    531.030    496.886    499.471    496.886
 52.370    564.000    535.813     28.187    496.926    533.298    496.926    499.443    496.926
 52.470    604.000    539.675     64.325    496.968    537.217    496.968    499.428    496.968
 52.570    521.000    546.570    -25.570    497.011    544.158    497.011    499.423    497.011
 52.670    601.000    559.186     41.814    497.055    556.812    497.055    499.430    497.055
 52.770    635.000    582.089     52.911    497.100    579.744    497.100    499.445    497.100
 52.870    592.154    621.745    -29.591    497.147    619.419    497.147    499.470    497.147
 52.970    724.000    685.226     38.774    497.195    682.913    497.195    499.503    497.195
 53.070    804.000    777.111     26.889    497.244    774.806    497.244    499.544    497.244
 53.170    886.039    895.052     -9.013    497.294    892.750    497.294    499.593    497.294
 53.270    995.000   1025.523    -30.523    497.345   1023.220    497.345    499.649    497.345
 53.370   1102.000   1141.903    -39.903    497.397   1139.600    497.397    499.711    497.397
 53.470   1198.000   1209.333    -11.333    497.451   1207.026    497.451    499.781    497.451
 53.570   1168.000   1202.218    -34.218    497.506   1199.902    497.506    499.857    497.506
 53.670   1175.905   1123.786     52.120    497.561   1121.449    497.561    499.940    497.561
 53.770   1018.000   1003.063     14.937    497.618   1000.694    497.618    500.030    497.618
 53.870    837.000    874.065    -37.065    497.676    871.650    497.676    500.127    497.676
 53.970    752.000    760.997     -8.997    497.736    758.530    497.736    500.230    497.736
 54.070    650.000    675.079    -25.079    497.796    672.554    497.796    500.340    497.796
 54.170    630.000    617.053     12.947    497.857    614.464    497.857    500.458    497.857
 54.270    556.000    581.599    -25.599    497.920    578.943    497.920    500.583    497.920
 54.370    525.472    561.608    -36.136    497.983    558.881    497.983    500.715    497.983
 54.470    586.983    550.934     36.049    498.048    548.129    498.048    500.856    498.048
 54.570    566.000    545.385     20.615    498.113    542.496    498.113    501.005    498.113
 54.670    528.102    542.554    -14.452    498.180    539.573    498.180    501.163    498.180
 54.770    534.000    541.232     -7.232    498.248    538.151    498.248    501.331    498.248
 54.870    525.000    540.873    -15.873    498.316    537.682    498.316    501.508    498.316
 54.970    583.449    541.248     42.201    498.386    537.938    498.386    501.697    498.386
 55.070    613.000    542.277     70.723    498.457    538.837    498.457    501.898    498.457
 55.170    581.000    543.949     37.051    498.528    540.367    498.528    502.111    498.528
 55.270    553.000    546.303      6.697    498.601    542.566    498.601    502.338    498.601
 55.370    589.399    549.425     39.974    498.675    545.520    498.675    502.581    498.675
 55.470    556.000    553.474      2.526    498.749    549.384    498.749    502.840    498.749
 55.570    562.000    558.750      3.250    498.825    554.458    498.825    503.117    498.825
 55.670    603.696    565.878     37.818    498.901    561.364    498.901    503.415    498.901
 55.770    544.036    576.224    -32.189    498.979    571.468    498.979    503.736    498.979
 55.870    597.000    592.723      4.277    499.057    587.698    499.057    504.081    499.057
 55.970    600.588    621.211    -20.622    499.136    615.887    499.136    504.455    499.136
 56.070    664.000    672.034     -8.034    499.216    666.379    499.216    504.861    499.216
 56.170    792.356    760.986     31.370    499.297    754.960    499.297    505.303    499.297
 56.270    957.074    907.810     49.264    499.379    901.370    499.379    505.786    499.379
 56.370   1101.247   1130.496    -29.248    499.462   1123.594    499.462    506.316    499.462
 56.470   1439.803   1435.188      4.615    499.546   1427.777    499.546    506.899    499.546
 56.570   1727.893   1804.446    -76.553    499.630   1796.478    499.630    507.546    499.630
 56.670   2196.000   2188.706      7.294    499.715   2180.134    499.715    508.264    499.715
 56.770   2405.000   2506.583   -101.583    499.802   2497.353    499.802    509.068    499.802
 56.870   2696.454   2664.861     31.593    499.889   2654.898    499.889    509.971    499.889
 56.970   2598.000   2607.560     -9.560    499.976   2596.749    499.976    510.993    499.976
 57.070   2409.000   2357.537     51.463    500.065   2345.704    500.065    512.157    500.065
 57.170   2046.000   1997.285     48.715    500.154   1984.210    500.154    513.495    500.154
 57.270   1674.000   1617.121     56.879    500.244   1602.551    500.244    515.050    500.244
 57.370   1282.000   1282.327     -0.327    500.335   1265.962    500.335    516.887    500.335
 57.470   1018.955   1024.992     -6.036    500.427   1006.444    500.427    519.107    500.427
 57.570    869.000    849.097     19.903    500.519    827.825    500.519    521.877    500.519
 57.670    790.000    741.507     48.493    500.612    716.692    500.612    525.479    500.612
 57.770    730.000    683.505     46.495    500.706    653.869    500.706    530.370    500.706
 57.870    688.016    658.947     29.069    500.801    622.495    500.801    537.265    500.801
 57.970    662.000    657.876      4.124    500.896    611.570    500.896    547.203    500.896
 58.070    694.000    676.652     17.348    500.992    616.077    500.992    561.561    500.992
 58.170    749.427    716.278     33.150    501.088    635.398    501.088    581.951    501.088
 58.270    764.000    779.832    -15.832    501.186    671.015    501.186    609.975    501.186
 58.370    865.000    869.847     -4.847    501.284    724.303    501.284    646.789    501.284
 58.470    965.000    985.787    -20.787    501.382    794.578    501.382    692.545    501.382
 58.570   1093.709   1122.013    -28.304    501.481    877.709    501.481    745.738    501.481
 58.670   1328.135   1266.767     61.369    501.581    965.847    501.581    802.458    501.581
 58.770   1437.000   1403.232     33.768    501.682   1049.245    501.682    855.639    501.682
 58.870   1552.000   1512.705     39.295    501.783   1119.376    501.783    895.100    501.783
 58.970   1637.561   1578.019     59.542    501.884   1169.530    501.884    910.383    501.884
 59.070   1517.447   1587.673    -70.226    501.987   1193.017    501.987    896.674    501.987
 59.170   1585.000   1541.601     43.399    502.089   1185.334    502.089    858.404    502.089
 59.270   1522.000   1453.690     68.310    502.193   1150.046    502.193    805.887    502.193
 59.370   1373.000   1346.617     26.383    502.297   1099.561    502.297    749.390    502.297
 59.470   1211.063   1243.149    -32.085    502.401   1049.422    502.401    696.138    502.401
 59.570   1168.000   1161.981      6.019    502.506   1014.277    502.506    650.184    502.506
 59.670   1143.000   1118.494     24.506    502.612   1007.897    502.612    613.136    502.612
 59.770   1141.000   1124.124     16.876    502.718   1041.805    502.718    584.912    502.718
 59.870   1186.456   1181.768      4.688    502.824   1120.019    502.824    564.391    502.824
 59.970   1290.000   1281.159      8.841    502.931   1233.866    502.931    549.989    502.931
 60.070   1417.000   1397.532     19.468    503.038   1360.213    503.038    540.083    503.038
 60.170   1522.000   1494.453     27.547    503.146   1464.028    503.146    533.285    503.146
 60.270   1577.980   1533.449     44.531    503.255   1507.899    503.255    528.540    503.255
 60.370   1542.000   1492.120     49.880    503.363   1470.152    503.363    525.121    503.363
 60.470   1453.000   1377.700     75.300    503.473   1358.466    503.473    522.561    503.473
 60.570   1218.000   1219.881     -1.881    503.582   1202.800    503.582    520.576    503.582
 60.670   1062.000   1052.840      9.160    503.692   1037.487    503.692    519.002    503.692
 60.770    874.359    903.016    -28.657    503.803    889.058    503.803    517.744    503.803
 60.870    755.855    784.983    -29.128    503.914    772.142    503.914    516.750    503.914
 60.970    686.000    702.404    -16.404    504.025    690.435    504.025    515.992    504.025
 61.070    647.629    651.821     -4.193    504.136    640.497    504.136    515.456    504.136
 61.170    624.000    627.328     -3.328    504.248    616.432    504.248    515.134    504.248
 61.270    637.990    624.388     13.602    504.360    613.714    504.360    515.016    504.360
 61.370    673.000    641.894     31.106    504.473    631.253    504.473    515.084    504.473
 61.470    708.000    682.296     25.704    504.586    671.531    504.586    515.304    504.586
 61.570    798.016    750.002     48.014    504.699    739.013    504.699    515.618    504.699
 61.670    864.576    848.348     16.228    504.812    837.124    504.812    515.937    504.812
 61.770   1003.000    975.838     27.162    504.926    964.488    504.926    516.144    504.926
 61.870   1061.000   1122.764    -61.764    505.040   1111.528    505.040    516.116    505.040
 61.970   1215.000   1269.518    -54.518    505.154   1258.706    505.154    515.789    505.154
 62.070   1388.000   1387.878      0.122    505.269   1377.780    505.269    515.191    505.269
 62.170   1391.000   1447.785    -56.785    505.384   1438.598    505.384    514.420    505.384
 62.270   1490.933   1430.994     59.938    505.499   1422.795    505.499    513.590    505.499
 62.370   1351.108   1342.521      8.588    505.614   1335.283    505.614    512.790    505.614
 62.470   1226.164   1207.051     19.113    505.729   1200.682    505.729    512.075    505.729
 62.570    963.000   1055.028    -92.028    505.845   1049.401    505.845    511.473    505.845
 62.670    918.858    911.611      7.247    505.961    906.595    505.961    510.991    505.961
 62.770    765.000    792.298    -27.298    506.077    787.769    506.077    510.622    506.077
 62.870    687.000    702.873    -15.873    506.193    698.729    506.193    510.351    506.193
 62.970    644.217    641.742      2.475    506.309    637.903    506.309    510.158    506.309
 63.070    616.000    603.261     12.739    506.425    599.666    506.425    510.025    506.425
 63.170    541.000    580.783    -39.783    506.542    577.387    506.542    509.938    506.542
 63.270    582.728    568.630     14.098    506.658    565.403    506.658    509.883    506.658
 63.370    525.802    562.917    -37.115    506.775    559.836    506.775    509.852    506.775
 63.470    583.000    561.586     21.414    506.892    558.633    506.892    509.839    506.892
 63.570    567.000    564.146      2.854    507.009    561.305    507.009    509.840    507.009
 63.670    634.000    571.374     62.626    507.126    568.635    507.126    509.853    507.126
 63.770    591.703    585.062      6.641    507.243    582.412    507.243    509.874    507.243
 63.870    602.616    607.659     -5.043    507.360    605.086    507.360    509.904    507.360
 63.970    631.000    641.674    -10.674    507.477    639.168    507.477    509.941    507.477
 64.070    724.000    688.762     35.238    507.594    686.312    507.594    509.985    507.594
 64.170    752.000    748.589      3.411    507.711    746.187    507.711    510.034    507.711
 64.270    800.000    817.771    -17.771    507.828    815.411    507.828    510.088    507.828
 64.370    917.127    889.192     27.936    507.945    886.872    507.945    510.148    507.945
 64.470    989.000    952.249     36.751    508.063    949.974    508.063    510.211    508.063
 64.570    977.000    995.106    -18.106    508.180    992.882    508.180    510.279    508.180
 64.670   1047.014   1009.328     37.686    508.297   1007.163    508.297    510.350    508.297
 64.770   1053.000    993.679     59.321    508.414    991.580    508.414    510.425    508.414
 64.870   1012.006    953.644     58.361    508.530    951.612    508.530    510.503    508.530
 64.970    863.350    898.458    -35.108    508.647    896.489    508.647    510.585    508.647
 65.070    889.000    838.054     50.946    508.764    836.142    508.764    510.669    508.764
 65.170    774.000    780.373     -6.373    508.881    778.508    508.881    510.755    508.881
 65.270    758.584    729.866     28.718    508.997    728.040    508.997    510.844    508.997
 65.370    677.000    687.790    -10.790    509.113    685.996    509.113    510.934    509.113
 65.470    694.400    653.637     40.763    509.230    651.866    509.230    511.027    509.230
 65.570    618.000    626.439     -8.439    509.346    624.685    509.346    511.123    509.346
 65.670    606.296    605.250      1.046    509.462    603.509    509.462    511.221    509.462
 65.770    544.648    589.174    -44.525    509.578    587.443    509.578    511.321    509.578
 65.870    545.284    577.378    -32.094    509.693    575.656    509.693    511.423    509.693
 65.970    526.241    569.128    -42.886    509.809    567.413    509.809    511.527    509.809
 66.070    558.000    563.778     -5.778    509.924    562.071    509.924    511.632    509.924
 66.170    541.000    560.769    -19.769    510.039    559.068    510.039    511.740    510.039
 66.270    558.000    559.631     -1.631    510.154    557.936    510.154    511.849    510.154
 66.370    528.000    560.013    -32.013    510.268    558.321    510.268    511.959    510.268
 66.470    575.310    561.720     13.590    510.382    560.031    510.382    512.072    510.382
 66.570    522.439    564.774    -42.334    510.497    563.085    510.497    512.186    510.497
 66.670    525.481    569.514    -44.033    510.610    567.824    510.610    512.302    510.610
 66.770    577.337    576.799      0.538    510.724    575.105    510.724    512.419    510.724
 66.870    613.000    588.335     24.665    510.837    586.634    510.837    512.538    510.837
 66.970    606.000    607.158     -1.158    510.950    605.448    510.950    512.659    510.950
 67.070    618.000    638.166    -20.166    511.063    636.444    511.063    512.782    511.063
 67.170    660.000    688.470    -28.470    511.175    686.731    511.175    512.907    511.175
 67.270    726.616    767.169    -40.552    511.287    765.411    511.287    513.033    511.287
 67.370    927.080    884.110     42.970    511.398    882.331    511.398    513.161    511.398
 67.470   1010.674   1047.342    -36.668    511.510   1045.543    511.510    513.292    511.510
 67.570   1190.000   1259.494    -69.494    511.621   1257.679    511.621    513.424    511.621
 67.670   1509.000   1513.869     -4.869    511.731   1512.048    511.731    513.559    511.731
 67.770   1724.109   1791.458    -67.349    511.841   1789.642    511.841    513.696    511.841
 67.870   1999.000   2060.003    -61.003    511.951   2058.207    511.951    513.836    511.951
 67.970   2297.000   2276.599     20.401    512.060   2274.836    512.060    513.978    512.060
 68.070   2448.000   2396.790     51.210    512.169   2395.063    512.169    514.123    512.169
 68.170   2397.435   2391.428      6.006    512.278   2389.726    512.278    514.271    512.278
 68.270   2261.000   2262.002     -1.002    512.386   2260.294    512.386    514.423    512.386
 68.370   2058.970   2039.700     19.270    512.493   2037.950    512.493    514.578    512.493
 68.470   1802.824   1769.345     33.479    512.600   1767.518    512.600    514.737    512.600
 68.570   1551.000   1493.131     57.869    512.707   1491.204    512.707    514.900    512.707
 68.670   1224.861   1242.225    -17.365    512.813   1240.184    512.813    515.068    512.813
 68.770   1003.000   1034.525    -31.525    512.919   1032.365    512.919    515.240    512.919
 68.870    901.000    875.808     25.192    513.024    873.528    513.024    515.418    513.024
 68.970    749.208    762.841    -13.633    513.129    760.445    513.129    515.602    513.129
 69.070    666.166    687.304    -21.138    513.233    684.794    513.233    515.793    513.233
 69.170    643.000    639.341      3.659    513.337    636.719    513.337    515.991    513.337
 69.270    651.000    609.989     41.011    513.440    607.253    513.440    516.197    513.440
 69.370    549.042    592.321    -43.279    513.542    589.465    513.542    516.412    513.542
 69.470    584.000    581.595      2.405    513.644    578.612    513.644    516.637    513.644
 69.570    546.406    574.876    -28.470    513.746    571.756    513.746    516.873    513.746
 69.670    587.129    570.491     16.638    513.847    567.220    513.847    517.122    513.847
 69.770    588.033    567.545     20.488    513.947    564.110    513.947    517.385    513.947
 69.870    657.000    565.584     91.416    514.046    561.969    514.046    517.664    514.046
 69.970    578.000    564.384     13.616    514.145    560.570    514.145    517.961    514.145
 70.070    576.000    563.843     12.157    514.244    559.808    514.244    518.279    514.244
 70.170    588.496    563.928     24.568    514.342    559.649    514.342    518.621    514.342
 70.270    598.000    564.668     33.332    514.439    560.117    514.439    518.989    514.439
 70.370    593.018    566.168     26.851    514.535    561.313    514.535    519.389    514.535
 70.470    576.000    568.662      7.338    514.631    563.466    514.631    519.824    514.631
 70.570    581.000    572.621      8.379    514.726    567.041    514.726    520.302    514.726
 70.670    598.752    578.906     19.846    514.820    572.889    514.820    520.830    514.820
 70.770    597.000    588.996      8.004    514.914    582.482    514.914    521.418    514.914
 70.870    574.000    605.269    -31.269    515.007    598.181    515.007    522.079    515.007
 70.970    612.205    631.233    -19.028    515.099    623.473    515.099    522.834    515.099
 71.070    615.000    671.580    -56.580    515.191    663.019    515.191    523.713    515.191
 71.170    692.000    731.865    -39.865    515.282    722.323    515.282    524.766    515.282
 71.270    823.275    817.635      5.640    515.372    806.852    515.372    526.073    515.372
 71.370    923.878    932.958     -9.080    515.461    920.545    515.461    527.765    515.461
 71.470   1033.000   1078.550    -45.550    515.550   1063.916    515.550    530.044    515.550
 71.570   1222.943   1249.900    -26.957    515.638   1232.155    515.638    533.212    515.638
 71.670   1454.243   1435.940     18.303    515.725   1413.773    515.725    537.699    515.725
 71.770   1636.000   1618.722     17.278    515.811   1590.259    515.811    544.070    515.811
 71.870   1762.000   1774.675    -12.675    515.896   1737.365    515.896    553.007    515.896
 71.970   1872.000   1878.710     -6.710    515.981   1829.264    515.981    565.249    515.981
 72.070   1938.621   1912.131     26.490    516.065   1846.578    516.065    581.476    516.065
 72.170   1983.000   1871.314    111.686    516.148   1785.221    516.148    602.139    516.148
 72.270   1745.000   1769.798    -24.798    516.230   1658.701    516.230    627.263    516.230
 72.370   1695.035   1631.302     63.733    516.311   1491.336    516.311    656.243    516.311
 72.470   1463.369   1480.189    -16.821    516.392   1308.904    516.392    687.663    516.392
 72.570   1334.911   1335.387     -0.476    516.472   1132.701    516.472    719.156    516.472
 72.670   1181.758   1208.070    -26.312    516.550    977.255    516.550    747.368    516.550
 72.770   1118.000   1101.735     16.265    516.628    850.114    516.628    768.255    516.628
 72.870    965.064   1014.144    -49.080    516.705    752.824    516.705    778.029    516.705
 72.970    901.000    940.555    -39.555    516.781    682.674    516.781    774.667    516.781
 73.070    880.000    876.716      3.284    516.856    634.648    516.856    758.928    516.856
 73.170    789.000    820.137    -31.137    516.930    603.133    516.930    733.937    516.930
 73.270    739.000    769.812    -30.812    517.004    583.065    517.004    703.753    517.004
 73.370    717.195    725.520     -8.325    517.076    570.480    517.076    672.119    517.076
 73.470    655.000    687.344    -32.344    517.148    562.610    517.148    641.885    517.148
 73.570    621.000    655.397    -34.397    517.218    557.701    517.218    614.919    517.218
 73.670    598.000    629.650    -31.650    517.288    554.742    517.288    592.201    517.288
 73.770    549.000    609.830    -60.830    517.356    553.202    517.356    573.992    517.356
 73.870    578.000    595.401    -17.401    517.424    552.814    517.424    560.022    517.424
 73.970    578.238    585.618     -7.380    517.490    553.421    517.490    549.702    517.490
 74.070    622.846    579.607     43.240    517.556    554.875    517.556    542.306    517.556
 74.170    551.249    576.434    -25.185    517.620    556.964    517.620    537.115    517.620
 74.270    601.000    575.167     25.833    517.684    559.379    517.684    533.503    517.684
 74.370    663.000    574.901     88.099    517.747    561.709    517.747    530.974    517.747
 74.470    623.000    574.794     48.206    517.808    563.475    517.808    529.167    517.808
 74.570    592.000    574.137     17.863    517.869    564.215    517.869    527.834    517.869
 74.670    659.000    572.479     86.521    517.928    563.640    517.928    526.812    517.928
 74.770    549.792    569.730    -19.938    517.986    561.760    517.986    525.998    517.986
 74.870    627.000    566.138     60.862    518.044    558.889    518.044    525.331    518.044
 74.970    627.000    562.157     64.843    518.100    555.520    518.100    524.770    518.100
 75.070    567.580    558.298      9.282    518.155    552.188    518.155    524.291    518.155
 75.170    517.467    555.056    -37.589    518.209    549.407    518.209    523.877    518.209
 75.270    508.359    552.900    -44.541    518.262    547.658    518.262    523.518    518.262
 75.370    528.018    552.289    -24.272    518.314    547.407    518.314    523.204    518.314
 75.470    551.034    553.703     -2.669    518.365    549.142    518.365    522.928    518.365
 75.570    545.000    557.651    -12.651    518.415    553.377    518.415    522.685    518.415
 75.670    552.000    564.652    -12.652    518.463    560.635    518.463    522.471    518.463
 75.770    561.000    575.152    -14.152    518.511    571.366    518.511    522.281    518.511
 75.870    609.000    589.389     19.611    518.557    585.810    518.557    522.112    518.557
 75.970    634.075    607.222     26.853    518.602    603.830    518.602    521.962    518.602
 76.070    588.668    627.968    -39.300    518.646    624.745    518.646    521.829    518.646
 76.170    638.296    650.287    -11.990    518.689    647.217    518.689    521.710    518.689
 76.270    666.000    672.159     -6.159    518.731    669.230    518.731    521.603    518.731
 76.370    684.000    690.985     -6.985    518.771    688.188    518.771    521.508    518.771
 76.470    694.000    703.923     -9.923    518.811    701.248    518.811    521.422    518.811
 76.570    700.000    708.587     -8.587    518.849    706.030    518.849    521.345    518.849
 76.670    727.000    703.983     23.017    518.886    701.538    518.886    521.276    518.886
 76.770    676.000    690.988    -14.988    518.922    688.649    518.922    521.214    518.922
 76.870    639.180    671.911    -32.731    518.956    669.673    518.956    521.157    518.956
 76.970    631.000    649.577    -18.577    518.990    647.431    518.990    521.106    518.990
 77.070    638.000    626.590     11.410    519.022    624.531    519.022    521.060    519.022
 77.170    611.000    604.986      6.014    519.053    603.007    519.053    521.018    519.053
 77.270    583.000    586.106     -3.106    519.083    584.199    519.083    520.980    519.083
 77.370    562.000    570.612     -8.612    519.111    568.771    519.111    520.945    519.111
 77.470    546.000    558.593    -12.593    519.138    556.814    519.138    520.913    519.138
 77.570    528.211    549.731    -21.520    519.164    548.009    519.164    520.884    519.164
 77.670    574.000    543.483     30.517    519.189    541.813    519.189    520.857    519.189
 77.770    513.384    539.238    -25.853    519.212    537.617    519.212    520.832    519.212
 77.870    520.000    536.427    -16.427    519.235    534.852    519.235    520.809    519.235
 77.970    520.000    534.574    -14.574    519.255    533.041    519.255    520.788    519.255
 78.070    517.692    533.349    -15.656    519.275    531.855    519.275    520.768    519.275
 78.170    569.574    532.546     37.027    519.293    531.090    519.293    520.749    519.293
 78.270    550.000    532.002     17.998    519.310    530.580    519.310    520.731    519.310
 78.370    516.000    531.624    -15.624    519.326    530.235    519.326    520.715    519.326
 78.470    551.238    531.367     19.871    519.341    530.008    519.341    520.699    519.341
 78.570    510.000    531.210    -21.210    519.354    529.879    519.354    520.684    519.354
 78.670    516.505    531.150    -14.645    519.366    529.845    519.366    520.670    519.366
 78.770    563.000    531.196     31.804    519.376    529.915    519.376    520.657    519.376
 78.870    509.221    531.367    -22.146    519.385    530.107    519.385    520.645    519.385
 78.970    514.000    531.691    -17.691    519.393    530.449    519.393    520.634    519.393
 79.070    548.618    532.197     16.421    519.400    530.970    519.400    520.625    519.400
 79.170    526.000    532.919     -6.919    519.405    531.703    519.405    520.619    519.405
 79.270    530.000    533.888     -3.888    519.409    532.679    519.409    520.615    519.409
 79.370    548.397    535.131     13.266    519.411    533.923    519.411    520.616    519.411
 79.470    528.137    536.672     -8.534    519.412    535.458    519.412    520.623    519.412
 79.570    538.000    538.537     -0.537    519.412    537.309    519.412    520.636    519.412
 79.670    543.000    540.769      2.231    519.411    539.518    519.411    520.657    519.411
 79.770    549.449    543.440      6.009    519.408    542.155    519.408    520.687    519.408
 79.870    536.643    546.677    -10.034    519.403    545.349    519.403    520.726    519.403
 79.970    578.313    550.692     27.621    519.398    549.309    519.398    520.775    519.398
 80.070    566.000    555.805     10.195    519.391    554.360    519.391    520.831    519.391
 80.170    571.061    562.448      8.612    519.382    560.934    519.382    520.894    519.382
 80.270    606.166    571.117     35.050    519.372    569.531    519.372    520.957    519.372
 80.370    612.000    582.268     29.732    519.361    580.613    519.361    521.017    519.361
 80.470    589.000    596.200     -7.200    519.348    594.487    519.348    521.067    519.348
 80.570    635.592    612.941     22.651    519.334    611.187    519.334    521.097    519.334
 80.670    640.000    632.160      7.840    519.319    630.391    519.319    521.102    519.319
 80.770    634.000    653.128    -19.128    519.302    651.375    519.302    521.076    519.302
 80.870    661.000    674.741    -13.741    519.284    673.033    519.284    521.019    519.284
 80.970    705.000    695.639      9.361    519.264    694.001    519.264    520.935    519.264
 81.070    692.000    714.408    -22.408    519.243    712.858    519.243    520.833    519.243
 81.170    725.000    729.772     -4.772    519.220    728.319    519.220    520.719    519.220
 81.270    775.000    740.709     34.291    519.196    739.356    519.196    520.602    519.196
 81.370    760.000    746.529     13.471    519.171    745.273    519.171    520.485    519.171
 81.470    740.013    746.951     -6.938    519.144    745.784    519.144    520.374    519.144
 81.570    781.000    742.114     38.886    519.116    741.026    519.116    520.271    519.116
 81.670    757.000    732.527     24.473    519.086    731.505    519.086    520.176    519.086
 81.770    737.364    719.035     18.328    519.055    718.068    519.055    520.090    519.055
 81.870    661.170    702.794    -41.623    519.023    701.871    519.023    520.012    519.023
 81.970    710.331    685.103     25.228    518.989    684.215    518.989    519.941    518.989
 82.070    711.000    667.142     43.858    518.953    666.280    518.953    519.877    518.953
 82.170    658.000    649.752      8.248    518.916    648.908    518.916    519.817    518.916
 82.270    613.000    633.390    -20.390    518.878    632.561    518.878    519.761    518.878
 82.370    623.000    618.241      4.759    518.838    617.421    518.838    519.707    518.838
 82.470    646.372    604.382     41.990    518.797    603.568    518.797    519.654    518.797
 82.570    604.000    591.909     12.091    518.754    591.099    518.754    519.602    518.754
 82.670    562.000    580.968    -18.968    518.710    580.159    518.710    519.551    518.710
 82.770    568.000    571.719     -3.719    518.664    570.909    518.664    519.499    518.664
 82.870    602.000    564.303     37.697    518.617    563.491    518.617    519.446    518.617
 82.970    586.000    558.825     27.175    518.568    558.011    518.568    519.393    518.568
 83.070    575.964    555.345     20.619    518.518    554.528    518.518    519.339    518.518
 83.170    591.481    553.856     37.626    518.466    553.035    518.466    519.284    518.466
 83.270    511.000    554.263    -43.263    518.413    553.438    518.413    519.228    518.413
 83.370    514.000    556.367    -42.367    518.359    555.537    518.359    519.171    518.359
 83.470    576.340    559.848     16.492    518.303    559.013    518.303    519.113    518.303
 83.570    569.000    564.270      4.730    518.245    563.430    518.245    519.054    518.245
 83.670    529.000    569.085    -40.085    518.186    568.240    518.186    518.994    518.186
 83.770    543.227    573.667    -30.441    518.126    572.819    518.126    518.933    518.126
 83.870    619.000    577.360     41.640    518.064    576.509    518.064    518.871    518.064
 83.970    535.364    579.560    -44.196    518.001    578.708    518.001    518.807    518.001
 84.070    566.000    579.846    -13.846    517.936    578.995    517.936    518.742    517.936
 84.170    611.830    578.091     33.739    517.869    577.242    517.869    518.676    517.869
 84.270    569.782    574.496     -4.714    517.801    573.651    517.801    518.609    517.801
 84.370    556.000    569.510    -13.510    517.732    568.668    517.732    518.541    517.732
 84.470    508.000    563.684    -55.684    517.661    562.846    517.661    518.472    517.661
 84.570    541.000    557.564    -16.564    517.589    556.729    517.589    518.401    517.589
 84.670    536.000    551.612    -15.612    517.515    550.779    517.515    518.329    517.515
 84.770    543.000    546.176     -3.176    517.440    545.345    517.440    518.256    517.440
 84.870    541.827    541.476      0.351    517.363    540.646    517.363    518.182    517.363
 84.970    486.000    537.615    -51.615    517.285    536.785    517.285    518.107    517.285
 85.070    533.000    534.592     -1.592    517.205    533.761    517.205    518.030    517.205
 85.170    539.205    532.341      6.863    517.124    531.508    517.124    517.952    517.124
 85.270    513.000    530.754    -17.754    517.041    529.918    517.041    517.874    517.041
 85.370    539.000    529.715      9.285    516.957    528.874    516.957    517.793    516.957
 85.470    544.000    529.117     14.883    516.871    528.273    516.871    517.712    516.871
 85.570    528.000    528.885     -0.885    516.784    528.035    516.784    517.630    516.784
 85.670    500.000    528.974    -28.974    516.696    528.118    516.696    517.546    516.696
 85.770    565.595    529.383     36.212    516.606    528.522    516.606    517.461    516.606
 85.870    515.000    530.155    -15.155    516.514    529.287    516.514    517.375    516.514
 85.970    549.000    531.375     17.625    516.421    530.499    516.421    517.288    516.421
 86.070    532.000    533.173     -1.173    516.326    532.288    516.326    517.200    516.326
 86.170    518.000    535.714    -17.714    516.230    534.818    516.230    517.111    516.230
 86.270    556.931    539.190     17.741    516.133    538.282    516.133    517.021    516.133
 86.370    563.918    543.798     20.120    516.034    542.878    516.034    516.929    516.034
 86.470    552.797    549.713      3.083    515.933    548.777    515.933    516.837    515.933
 86.570    526.000    557.047    -31.047    515.832    556.093    515.832    516.743    515.832
 86.670    586.000    565.796     20.204    515.728    564.824    515.728    516.649    515.728
 86.770    545.000    575.841    -30.841    515.623    574.848    515.623    516.553    515.623
 86.870    584.830    586.872     -2.042    515.517    585.857    515.517    516.456    515.517
 86.970    581.554    598.372    -16.818    515.409    597.335    515.409    516.359    515.409
 87.070    571.407    609.639    -38.231    515.300    608.580    515.300    516.260    515.300
 87.170    626.000    619.815      6.185    515.190    618.736    515.190    516.161    515.190
 87.270    600.000    627.962    -27.962    515.077    626.866    515.077    516.060    515.077
 87.370    629.940    633.209     -3.269    514.964    632.099    514.964    515.959    514.964
 87.470    618.000    634.953    -16.953    514.849    633.833    514.849    515.857    514.849
 87.570    657.000    633.038     23.962    514.732    631.911    514.732    515.754    514.732
 87.670    702.000    627.799     74.201    514.615    626.668    514.615    515.651    514.615
 87.770    611.738    619.960     -8.222    514.495    618.827    514.495    515.546    514.495
 87.870    638.000    610.451     27.549    514.375    609.316    514.375    515.441    514.375
 87.970    612.000    600.254     11.746    514.252    599.115    514.252    515.336    514.252
 88.070    642.000    590.294     51.706    514.129    589.151    514.129    515.230    514.129
 88.170    539.871    581.373    -41.502    514.004    580.223    514.004    515.123    514.004
 88.270    622.000    574.117     47.883    513.877    572.959    513.877    515.016    513.877
 88.370    570.000    568.958      1.042    513.750    567.789    513.750    514.908    513.750
 88.470    573.000    566.121      6.879    513.620    564.941    513.620    514.799    513.620
 88.570    590.306    565.639     24.667    513.490    564.444    513.490    514.690    513.490
 88.670    580.813    567.356     13.457    513.358    566.145    513.358    514.582    513.358
 88.770    565.000    570.950     -5.950    513.224    569.722    513.224    514.474    513.224
 88.870    583.336    575.959      7.376    513.089    574.712    513.089    514.365    513.089
 88.970    571.000    581.800    -10.800    512.953    580.532    512.953    514.257    512.953
 89.070    615.000    587.800     27.200    512.816    586.509    512.816    514.149    512.816
 89.170    583.000    593.237    -10.237    512.677    591.921    512.677    514.042    512.677
 89.270    606.000    597.399      8.601    512.536    596.055    512.536    513.935    512.536
 89.370    586.356    599.677    -13.321    512.395    598.302    512.395    513.829    512.395
 89.470    624.536    599.681     24.855    512.251    598.271    512.251    513.724    512.251
 89.570    555.000    597.331    -42.331    512.107    595.880    512.107    513.621    512.107
 89.670    600.000    592.860      7.140    511.961    591.364    511.961    513.518    511.961
 89.770    554.000    586.738    -32.738    511.814    585.192    511.814    513.418    511.814
 89.870    564.000    579.545    -15.545    511.666    577.943    511.666    513.319    511.666
 89.970    571.000    571.862     -0.862    511.516    570.200    511.516    513.223    511.516
 90.070    591.000    564.207     26.793    511.365    562.480    511.365    513.129    511.365
 90.170    540.000    556.995    -16.995    511.212    555.200    511.212    513.039    511.212
 90.270    575.033    550.523     24.509    511.059    548.655    511.059    512.952    511.059
 90.370    471.000    544.970    -73.970    510.904    543.023    510.904    512.870    510.904
 90.470    513.000    540.406    -27.406    510.747    538.373    510.747    512.794    510.747
 90.570    482.000    536.813    -54.813    510.590    534.689    510.590    512.724    510.590
 90.670    518.000    534.116    -16.116    510.431    531.892    510.431    512.663    510.431
 90.770    478.000    532.204    -54.204    510.270    529.868    510.270    512.611    510.270
 90.870    523.000    530.951     -7.951    510.109    528.489    510.109    512.574    510.109
 90.970    519.000    530.213    -11.213    509.946    527.608    509.946    512.553    509.946
 91.070    512.000    529.972    -17.972    509.782    527.199    509.782    512.556    509.782
 91.170    541.000    530.167     10.833    509.617    527.194    509.617    512.589    509.617
 91.270    532.000    530.775      1.225    509.450    527.560    509.450    512.664    509.450
 91.370    551.607    531.836     19.771    509.283    528.322    509.283    512.794    509.283
 91.470    521.094    533.430    -12.336    509.114    529.544    509.114    512.997    509.114
 91.570    543.999    535.690      8.308    508.944    531.334    508.944    513.295    508.944
 91.670    524.000    538.793    -14.793    508.772    533.842    508.772    513.716    508.772
 91.770    510.443    542.956    -32.513    508.600    537.255    508.600    514.292    508.600
 91.870    539.000    548.431     -9.431    508.426    541.786    508.426    515.059    508.426
 91.970    528.662    555.481    -26.818    508.251    547.661    508.251    516.055    508.251
 92.070    529.000    564.362    -35.362    508.075    555.097    508.075    517.320    508.075
 92.170    548.000    575.296    -27.296    507.898    564.280    507.898    518.889    507.898
 92.270    593.000    588.437      4.563    507.719    575.334    507.719    520.791    507.719
 92.370    608.000    603.836      4.164    507.540    588.295    507.540    523.043    507.540
 92.470    590.057    621.419    -31.362    507.359    603.086    507.359    525.647    507.359
 92.570    626.000    640.953    -14.953    507.177    619.497    507.177    528.582    507.177
 92.670    691.000    662.037     28.963    506.994    637.169    506.994    531.803    506.994
 92.770    678.873    684.099     -5.226    506.810    655.610    506.810    535.234    506.810
 92.870    708.000    706.416      1.584    506.625    674.203    506.625    538.768    506.625
 92.970    773.000    728.147     44.853    506.438    692.254    506.438    542.258    506.438
 93.070    727.000    748.457    -21.457    506.251    709.105    506.251    545.527    506.251
 93.170    803.000    766.637     36.363    506.063    724.259    506.063    548.364    506.063
 93.270    760.501    782.231    -21.729    505.873    737.486    505.873    550.541    505.873
 93.370    763.000    795.080    -32.080    505.683    748.839    505.683    551.848    505.683
 93.470    794.739    805.301    -10.562    505.491    758.580    505.491    552.138    505.491
 93.570    817.539    813.209      4.330    505.298    767.075    505.298    551.361    505.298
 93.670    820.000    819.268      0.732    505.105    774.722    505.105    549.582    505.105
 93.770    835.000    824.057     10.943    504.910    781.941    504.910    546.960    504.910
 93.870    882.000    828.276     53.724    504.715    789.217    504.715    543.710    504.715
 93.970    880.861    832.706     48.156    504.518    797.103    504.518    540.059    504.518
 94.070    861.000    838.098     22.902    504.320    806.144    504.320    536.214    504.320
 94.170    824.544    845.000    -20.455    504.122    816.712    504.122    532.352    504.122
 94.270    864.930    853.573     11.357    503.922    828.829    503.922    528.610    503.922
 94.370    871.108    863.480      7.628    503.722    842.056    503.722    525.093    503.722
 94.470    864.000    873.864     -9.864    503.521    855.464    503.521    521.870    503.521
 94.570    878.000    883.414     -5.414    503.318    867.702    503.318    518.985    503.318
 94.670    935.754    890.515     45.240    503.115    877.137    503.115    516.453    503.115
 94.770    904.411    893.482     10.929    502.911    882.090    502.911    514.272    502.911
 94.870    918.000    890.877     27.123    502.706    881.139    502.706    512.421    502.706
 94.970    907.000    881.843     25.157    502.501    873.457    502.501    510.872    502.501
 95.070    903.000    866.330     36.670    502.294    859.031    502.294    509.588    502.294
 95.170    829.885    845.109    -15.224    502.087    838.668    502.087    508.529    502.087
 95.270    863.203    819.645     43.558    501.878    813.873    501.878    507.658    501.878
 95.370    847.000    791.760     55.240    501.669    786.501    501.669    506.940    501.669
 95.470    755.000    763.429     -8.429    501.460    758.560    501.460    506.342    501.460
 95.570    732.000    736.610     -4.610    501.249    732.033    501.249    505.839    501.249
 95.670    719.000    713.136      5.864    501.038    708.775    501.038    505.410    501.038
 95.770    713.000    694.651     18.349    500.825    690.448    500.825    505.036    500.825
 95.870    721.764    682.588     39.176    500.613    678.497    500.613    504.705    500.613
 95.970    694.000    678.161     15.839    500.399    674.147    500.399    504.407    500.399
 96.070    740.000    682.378     57.622    500.185    678.413    500.185    504.136    500.185
 96.170    741.000    696.048     44.952    499.970    692.109    499.970    503.885    499.970
 96.270    753.000    719.769     33.231    499.754    715.837    499.754    503.652    499.754
 96.370    708.241    753.892    -45.651    499.538    749.951    499.538    503.434    499.538
 96.470    818.000    798.438     19.562    499.321    794.472    499.321    503.230    499.321
 96.570    817.000    852.999    -35.999    499.103    848.997    499.103    503.037    499.103
 96.670    913.000    916.636     -3.636    498.885    912.586    498.885    502.856    498.885
 96.770    983.000    987.780     -4.780    498.666    983.671    498.666    502.687    498.666
 96.870   1047.000   1064.163    -17.163    498.447   1059.986    498.447    502.528    498.447
 96.970   1172.096   1142.806     29.290    498.227   1138.552    498.227    502.381    498.227
 97.070   1269.000   1220.055     48.945    498.007   1215.717    498.007    502.245    498.007
 97.170   1287.343   1291.713     -4.370    497.786   1287.282    497.786    502.121    497.786
 97.270   1321.538   1353.284    -31.746    497.564   1348.752    497.564    502.010    497.564
 97.370   1436.858   1400.407     36.451    497.342   1395.765    497.342    501.912    497.342
 97.470   1469.052   1429.466     39.586    497.119   1424.704    497.119    501.828    497.119
 97.570   1401.217   1438.244    -37.027    496.896   1433.349    496.896    501.759    496.896
 97.670   1372.316   1426.376    -54.060    496.673   1421.331    496.673    501.708    496.673
 97.770   1429.000   1395.367     33.633    496.449   1390.152    496.449    501.675    496.449
 97.870   1389.000   1348.196     40.804    496.225   1342.785    496.225    501.664    496.225
 97.970   1369.000   1288.726     80.274    496.000   1283.091    496.000    501.678    496.000
 98.070   1249.000   1221.170     27.830    495.775   1215.276    495.775    501.722    495.775
 98.170   1238.000   1149.702     88.298    495.550   1143.508    495.550    501.802    495.550
 98.270   1066.273   1078.208    -11.935    495.324   1071.665    495.324    501.927    495.324
 98.370    995.255   1010.134    -14.879    495.098   1003.181    495.098    502.108    495.098
 98.470    974.000    948.410     25.590    494.872    940.972    494.872    502.363    494.872
 98.570    857.014    895.432    -38.418    494.645    887.412    494.645    502.711    494.645
 98.670    853.936    853.085      0.852    494.418    844.359    494.418    503.181    494.418
 98.770    793.000    822.798    -29.798    494.191    813.206    494.191    503.810    494.191
 98.870    792.000    805.614    -13.614    493.963    794.951    493.963    504.643    493.963
 98.970    764.000    802.313    -38.313    493.736    790.317    493.736    505.739    493.736
 99.070    818.000    813.427      4.573    493.508    799.765    493.508    507.168    493.508
 99.170    883.028    839.283     43.745    493.280    823.542    493.280    509.012    493.280
 99.270    892.000    880.017     11.983    493.052    861.687    493.052    511.365    493.052
 99.370    930.000    935.519     -5.519    492.824    913.987    492.824    514.334    492.824
 99.470    959.003   1005.353    -46.350    492.595    979.895    492.595    518.028    492.595
 99.570   1082.615   1088.660     -6.045    492.367   1058.443    492.367    522.560    492.367
 99.670   1174.000   1184.053    -10.053    492.138   1148.136    492.138    528.035    492.138
 99.770   1241.000   1289.519    -48.519    491.910   1246.874    491.910    534.541    491.910
 99.870   1358.663   1402.351    -43.688    491.681   1351.888    491.681    542.142    491.681
 99.970   1553.000   1519.137     33.863    491.453   1459.739    491.453    550.864    491.453
100.070   1721.000   1635.822     85.178    491.224   1566.397    491.224    560.683    491.224
100.170   1737.000   1747.916    -10.916    490.996   1667.451    490.996    571.518    490.996
100.270   1831.000   1850.823    -19.823    490.767   1758.457    490.767    583.217    490.767
100.370   1912.000   1940.259    -28.259    490.539   1835.355    490.539    595.554    490.539
100.470   2017.000   2012.604      4.396    490.310   1894.833    490.310    608.220    490.310
100.570   2030.000   2065.072    -35.072    490.082   1934.496    490.082    620.822    490.082
100.670   2196.000   2095.693    100.307    489.854   1952.854    489.854    632.880    489.854
100.770   2079.000   2103.267    -24.267    489.626   1949.262    489.626    643.837    489.626
100.870   2052.503   2087.460    -34.957    489.399   1923.989    489.399    653.089    489.399
100.970   2099.382   2049.059     50.323    489.171   1878.424    489.171    660.034    489.171
101.070   1907.537   1990.237    -82.700    488.944   1815.259    488.944    664.153    488.944
101.170   1957.237   1914.573     42.664    488.717   1738.418    488.717    665.100    488.717
101.270   1822.000   1826.749     -4.749    488.490   1652.683    488.490    662.777    488.490
101.370   1739.000   1731.992      7.008    488.264   1563.106    488.264    657.358    488.264
101.470   1652.017   1635.469     16.548    488.038   1474.452    488.038    649.248    488.038
101.570   1522.000   1541.789    -19.789    487.812   1390.779    487.812    638.999    487.812
101.670   1435.000   1454.675    -19.675    487.587   1315.198    487.587    627.223    487.587
101.770   1340.374   1376.788    -36.414    487.362   1249.776    487.362    614.516    487.362
101.870   1362.441   1309.673     52.768    487.138   1195.525    487.138    601.412    487.138
101.970   1207.000   1253.794    -46.794    486.914   1152.453    486.914    588.368    486.914
102.070   1167.000   1208.624    -41.624    486.690   1119.663    486.690    575.752    486.690
102.170   1124.000   1172.789    -48.789    486.467   1095.499    486.467    563.850    486.467
102.270   1172.000   1144.251     27.749    486.245   1077.719    486.245    552.865    486.245
102.370   1101.461   1120.538    -19.077    486.023   1063.720    486.023    542.926    486.023
102.470   1045.127   1099.025    -53.898    485.802   1050.813    485.802    534.098    485.802
102.570   1085.000   1077.253      7.747    485.581   1036.530    485.581    526.388    485.581
102.670   1069.000   1053.243     15.757    485.361   1018.930    485.361    519.759    485.361
102.770   1065.383   1025.734     39.648    485.142    996.823    485.142    514.140    485.142
102.870    942.531    994.266    -51.735    484.923    969.841    484.923    509.434    484.923
102.970    931.092    959.086    -27.994    484.705    938.341    484.705    505.534    484.705
103.070    927.628    920.961      6.667    484.488    903.202    484.488    502.329    484.488
103.170    879.000    880.955     -1.955    484.271    865.597    484.271    499.708    484.271
103.270    833.000    840.242     -7.242    484.055    826.802    484.055    497.568    484.055
103.370    812.703    799.973     12.730    483.840    788.061    483.840    495.820    483.840
103.470    726.000    761.188    -35.188    483.626    750.492    483.626    494.383    483.626
103.570    728.000    724.755      3.245    483.413    715.030    483.413    493.191    483.413
103.670    718.677    691.339     27.338    483.201    682.395    483.201    492.191    483.201
103.770    678.000    661.386     16.614    482.990    653.077    482.990    491.338    482.990
103.870    627.013    635.123     -8.110    482.779    627.335    482.779    490.599    482.779
103.970    641.000    612.572     28.428    482.570    605.220    482.570    489.949    482.570
104.070    548.096    593.615    -45.519    482.362    586.632    482.362    489.366    482.362
104.170    584.000    577.991      6.009    482.154    571.325    482.154    488.837    482.154
104.270    563.000    565.361     -2.361    481.948    558.971    481.948    488.352    481.948
104.370    605.000    555.347     49.653    481.743    549.199    481.743    487.901    481.743
104.470    511.000    547.561    -36.561    481.539    541.627    481.539    487.479    481.539
104.570    542.460    541.635      0.825    481.336    535.894    481.336    487.082    481.336
104.670    567.000    537.240     29.760    481.134    531.670    481.134    486.707    481.134
104.770    559.413    534.095     25.318    480.934    528.680    480.934    486.350    480.934
104.870    530.000    531.974     -1.974    480.735    526.697    480.735    486.011    480.735
104.970    515.200    530.707    -15.507    480.537    525.555    480.537    485.687    480.537
105.070    545.000    530.178     14.822    480.340    525.138    480.340    485.377    480.340
105.170    560.000    530.319     29.681    480.145    525.380    480.145    485.080    480.145
105.270    562.891    531.111     31.780    479.951    526.261    479.951    484.796    479.951
105.370    530.000    532.571     -2.571    479.759    527.801    479.759    484.522    479.759
105.470    531.000    534.751     -3.751    479.568    530.055    479.568    484.254    479.568
105.570    553.000    537.741     15.259    479.379    533.106    479.379    484.002    479.379
105.670    590.000    541.635     48.365    479.191    537.053    479.191    483.759    479.191
105.770    540.000    546.538     -6.538    479.004    542.000    479.004    483.526    479.004
105.870    513.000    552.546    -39.546    478.819    548.045    478.819    483.302    478.819
105.970    568.000    559.730      8.270    478.636    555.258    478.636    483.086    478.636
106.070    549.000    568.122    -19.122    478.454    563.674    478.454    482.879    478.454
106.170    595.000    577.704     17.296    478.274    573.271    478.274    482.679    478.274
106.270    609.000    588.394     20.606    478.096    583.971    478.096    482.488    478.096
106.370    645.000    600.041     44.959    477.920    595.623    477.920    482.303    477.920
106.470    584.000    612.416    -28.416    477.745    608.008    477.745    482.115    477.745
106.570    597.000    625.251    -28.251    477.572    620.838    477.572    481.945    477.572
106.670    632.095    638.188     -6.093    477.401    633.762    477.401    481.783    477.401
106.770    655.000    650.824      4.176    477.232    646.383    477.232    481.629    477.232
106.870    632.000    662.731    -30.731    477.064    658.268    477.064    481.482    477.064
106.970    655.732    673.474    -17.742    476.899    668.986    476.899    481.342    476.899
107.070    711.408    682.654     28.754    476.735    678.136    476.735    481.209    476.735
107.170    693.000    689.958      3.042    476.574    685.406    476.574    481.084    476.574
107.270    670.925    695.207    -24.282    476.414    690.617    476.414    480.966    476.414
107.370    600.000    698.401    -98.401    476.257    693.768    476.257    480.855    476.257
107.470    682.000    699.723    -17.723    476.102    695.041    476.102    480.752    476.102
107.570    630.000    699.513    -69.513    475.949    694.778    475.949    480.657    475.949
107.670    682.000    698.209    -16.209    475.798    693.415    475.798    480.569    475.798
107.770    688.000    696.286     -8.286    475.649    691.428    475.649    480.489    475.649
107.870    674.000    694.190    -20.190    475.503    689.261    475.503    480.418    475.503
107.970    674.000    692.293    -18.293    475.359    687.287    475.359    480.355    475.359
108.070    687.000    690.866     -3.866    475.217    685.778    475.217    480.300    475.217
108.170    682.000    690.058     -8.058    475.078    684.880    475.078    480.255    475.078
108.270    647.527    689.886    -42.359    474.941    684.611    474.941    480.218    474.941
108.370    668.265    690.236    -21.972    474.806    684.857    474.806    480.191    474.806
108.470    694.000    690.875      3.125    474.674    685.385    474.674    480.174    474.674
108.570    719.000    691.468     27.532    474.545    685.858    474.545    480.167    474.545
108.670    716.000    691.611     24.389    474.418    685.873    474.418    480.171    474.418
108.770    736.000    690.877     45.123    474.294    685.003    474.294    480.186    474.294
108.870    684.000    688.873     -4.873    474.172    682.853    474.172    480.213    474.172
108.970    693.000    685.298      7.702    474.053    679.122    474.053    480.251    474.053
109.070    669.540    679.991    -10.451    473.936    673.649    473.936    480.303    473.936
109.170    688.000    672.951     15.049    473.823    666.432    473.823    480.368    473.823
109.270    654.128    664.326    -10.198    473.712    657.617    473.712    480.447    473.712
109.370    632.000    654.377    -22.377    473.604    647.465    473.604    480.541    473.604
109.470    606.938    643.415    -36.477    473.499    636.288    473.499    480.651    473.499
109.570    588.000    631.834    -43.834    473.397    624.476    473.397    480.777    473.397
109.670    580.789    620.015    -39.226    473.298    612.413    473.298    480.922    473.298
109.770    586.595    608.283    -21.689    473.201    600.419    473.201    481.085    473.201
109.870    607.000    596.940     10.060    473.108    588.796    473.108    481.270    473.108
109.970    568.807    586.244    -17.437    473.018    577.801    473.018    481.476    473.018
110.070    602.491    576.400     26.091    472.931    567.637    472.931    481.707    472.931
110.170    587.000    567.557     19.443    472.847    558.451    472.847    481.965    472.847
110.270    555.621    559.811     -4.191    472.767    550.335    472.767    482.252    472.767
110.370    537.120    553.207    -16.088    472.689    543.332    472.689    482.572    472.689
110.470    523.379    547.744    -24.365    472.615    537.436    472.615    482.929    472.615
110.570    574.000    543.388     30.612    472.544    532.606    472.544    483.330    472.544
110.670    546.000    540.073      5.927    472.477    528.772    472.477    483.780    472.477
110.770    505.000    537.721    -32.721    472.413    525.845    472.413    484.289    472.413
110.870    531.840    536.241     -4.400    472.352    523.723    472.352    484.869    472.352
110.970    576.000    535.541     40.459    472.295    522.301    472.295    485.533    472.295
111.070    592.000    535.536     56.464    472.242    521.475    472.242    486.299    472.242
111.170    531.000    536.149     -5.149    472.192    521.147    472.192    487.190    472.192
111.270    525.971    537.320    -11.349    472.146    521.226    472.146    488.234    472.146
111.370    545.636    539.002      6.634    472.103    521.634    472.103    489.466    472.103
111.470    547.099    541.170      5.930    472.064    522.301    472.064    490.926    472.064
111.570    577.840    543.815     34.025    472.029    523.171    472.029    492.667    472.029
111.670    541.000    546.953     -5.953    471.998    524.197    471.998    494.747    471.998
111.770    590.000    550.617     39.383    471.970    525.343    471.970    497.237    471.970
111.870    572.000    554.863     17.137    471.947    526.585    471.947    500.218    471.947
111.970    563.000    559.770      3.230    471.927    527.909    471.927    503.781    471.927
112.070    557.000    565.435     -8.435    471.911    529.311    471.911    508.027    471.911
112.170    532.000    571.974    -39.974    471.900    530.798    471.900    513.068    471.900
112.270    548.000    579.520    -31.520    471.892    532.384    471.892    519.020    471.892
112.370    570.706    588.216    -17.511    471.889    534.092    471.889    526.004    471.889
112.470    615.000    598.214     16.786    471.890    535.953    471.890    534.142    471.890
112.570    605.000    609.665     -4.665    471.895    538.004    471.895    543.547    471.895
112.670    613.000    622.724     -9.724    471.904    540.293    471.904    554.326    471.904
112.770    677.000    637.536     39.464    471.918    542.881    471.918    566.564    471.918
112.870    646.000    654.240     -8.240    471.936    545.843    471.936    580.323    471.936
112.970    678.000    672.966      5.034    471.958    549.281    471.958    595.633    471.958
113.070    682.000    693.833    -11.833    471.985    553.323    471.985    612.485    471.985
113.170    671.274    716.959    -45.685    472.016    558.143    472.016    630.821    472.016
113.270    714.000    742.459    -28.459    472.052    563.967    472.052    650.532    472.052
113.370    747.558    770.466    -22.908    472.092    571.096    472.092    671.449    472.092
113.470    844.000    801.140     42.860    472.138    579.921    472.138    693.342    472.138
113.570    919.000    834.690     84.310    472.188    590.949    472.188    715.911    472.188
113.670    831.507    871.398    -39.891    472.242    604.830    472.242    738.789    472.242
113.770    909.000    911.646     -2.646    472.302    622.384    472.302    761.537    472.302
113.870   1000.000    955.944     44.056    472.366    644.631    472.366    783.647    472.366
113.970   1002.189   1004.969     -2.780    472.435    672.816    472.435    804.549    472.435
114.070   1032.000   1059.595    -27.595    472.509    708.435    472.509    823.619    472.509
114.170   1099.000   1120.936    -21.936    472.588    753.252    472.588    840.210    472.588
114.270   1253.593   1190.387     63.206    472.673    809.295    472.673    853.686    472.673
114.370   1282.000   1269.660     12.340    472.762    878.851    472.762    863.472    472.762
114.470   1314.000   1360.812    -46.812    472.856    964.428    472.856    869.119    472.856
114.570   1419.000   1466.240    -47.240    472.956   1068.693    472.956    870.353    472.956
114.670   1606.000   1588.627     17.373    473.061   1194.388    473.061    867.117    473.061
114.770   1834.000   1730.834    103.166    473.171   1344.208    473.171    859.577    473.171
114.870   1901.000   1895.730      5.270    473.287   1520.654    473.287    848.099    473.287
114.970   2174.000   2085.966     88.034    473.408   1725.861    473.408    833.204    473.408
115.070   2358.000   2303.723     54.277    473.534   1961.397    473.534    815.502    473.534
115.170   2642.900   2550.454     92.446    473.667   2228.066    473.667    795.642    473.667
115.270   2850.000   2826.631     23.369    473.804   2525.706    473.804    774.264    473.804
115.370   3010.000   3131.538   -121.538    473.947   2853.000    473.947    751.967    473.947
115.470   3367.000   3463.091    -96.091    474.096   3207.326    474.096    729.293    474.096
115.570   3834.000   3817.728     16.272    474.251   3584.651    474.251    706.717    474.251
115.670   4069.000   4190.354   -121.354    474.412   3979.477    474.412    684.640    474.412
115.770   4512.000   4574.354    -62.354    474.578   4384.858    474.578    663.398    474.578
115.870   5027.015   4961.679     65.336    474.750   4792.483    474.750    643.256    474.750
115.970   5249.958   5343.012    -93.054    474.929   5192.838    474.929    624.412    474.929
116.070   5547.000   5708.009   -161.009    475.113   5575.441    475.113    607.006    475.113
116.170   5932.741   6045.628   -112.887    475.303   5929.168    475.303    591.121    475.303
116.270   6253.000   6344.574    -91.574    475.500   6242.693    475.500    576.788    475.500
116.370   6678.000   6593.864     84.136    475.702   6505.042    475.702    563.999    475.702
116.470   6825.000   6783.522     41.478    475.911   6706.286    475.911    552.706    475.911
116.570   6796.166   6905.395   -109.230    476.126   6838.343    476.126    542.835    476.126
116.670   7006.000   6953.951     52.049    476.348   6895.773    476.348    534.289    476.348
116.770   6840.916   6926.799    -85.883    476.576   6876.292    476.576    526.957    476.576
116.870   6967.000   6825.021    141.979    476.810   6781.094    476.810    520.722    476.810
116.970   6709.000   6653.008     55.992    477.051   6614.689    477.051    515.461    477.051
117.070   6306.000   6417.946   -111.946    477.299   6384.375    477.299    511.055    477.299
117.170   6115.000   6129.068    -14.068    477.553   6099.498    477.553    507.391    477.553
117.270   5674.000   5796.872   -122.872    477.814   5770.659    477.814    504.361    477.814
117.370   5330.000   5432.387   -102.387    478.081   5408.983    478.081    501.870    478.081
117.470   5034.000   5046.581    -12.581    478.356   5025.525    478.356    499.832    478.356
117.570   4703.238   4649.895     53.343    478.637   4630.801    478.637    498.170    478.637
117.670   4192.835   4251.889    -59.054    478.926   4234.438    478.926    496.820    478.926
117.770   4051.000   3860.990    190.010    479.221   3844.920    479.221    495.727    479.221
117.870   3474.221   3484.316    -10.095    479.523   3469.412    479.523    494.845    479.523
117.970   3362.000   3127.585    234.415    479.833   3113.673    479.833    494.136    479.833
118.070   2923.000   2795.097    127.903    480.149   2782.037    480.149    493.568    480.149
118.170   2528.000   2489.781     38.219    480.473   2477.459    480.473    493.118    480.473
118.270   2255.000   2213.299     41.701    480.805   2201.623    480.805    492.764    480.805
118.370   1962.000   1966.190     -4.190    481.143   1955.087    481.143    492.491    481.143
118.470   1777.776   1748.046     29.730    481.489   1737.455    481.489    492.287    481.489
118.570   1563.000   1557.689      5.311    481.843   1547.562    481.843    492.141    481.843
118.670   1444.991   1393.364     51.627    482.204   1383.662    482.204    492.046    482.204
118.770   1220.000   1252.916    -32.916    482.572   1243.604    482.572    491.996    482.572
118.870   1139.154   1133.954      5.199    482.949   1125.004    482.949    491.986    482.949
118.970    986.000   1033.996    -47.996    483.333   1025.383    483.333    492.012    483.333
119.070    905.000    950.586    -45.586    483.725    942.288    483.725    492.072    483.725
119.170    869.077    881.384    -12.307    484.124    873.382    484.124    492.162    484.124
119.270    817.000    824.235     -7.235    484.532    816.509    484.532    492.283    484.532
119.370    749.000    777.197    -28.197    484.948    769.731    484.948    492.431    484.948
119.470    717.000    738.570    -21.570    485.372    731.347    485.372    492.606    485.372
119.570    678.000    706.890    -28.890    485.803    699.894    485.803    492.807    485.803
119.670    691.567    680.919     10.648    486.243    674.133    486.243    493.034    486.243
119.770    667.150    659.629      7.521    486.692    653.037    486.692    493.286    486.692
119.870    585.000    642.174    -57.174    487.148    635.761    487.148    493.564    487.148
119.970    619.000    627.869     -8.869    487.613    621.619    487.613    493.866    487.613
120.070    589.000    616.166    -27.166    488.087    610.060    488.087    494.195    488.087
120.170    567.000    606.625    -39.625    488.569    600.647    488.569    494.549    488.569
120.270    594.000    598.901     -4.901    489.059    593.034    489.059    494.930    489.059
120.370    579.000    592.723    -13.723    489.558    586.947    489.558    495.338    489.558
120.470    607.155    587.879     19.275    490.066    582.175    490.066    495.774    490.066
120.570    531.000    584.204    -53.204    490.583    578.551    490.583    496.240    490.583
120.670    579.000    581.569     -2.569    491.109    575.947    491.109    496.736    491.109
120.770    602.860    579.875     22.985    491.643    574.261    491.643    497.262    491.643
120.870    573.000    579.045     -6.045    492.187    573.416    492.187    497.822    492.187
120.970    581.000    579.016      1.984    492.739    573.348    492.739    498.414    492.739
121.070    600.000    579.735     20.265    493.301    574.004    493.301    499.040    493.301
121.170    580.644    581.159     -0.514    493.872    575.338    493.872    499.701    493.872
121.270    584.000    583.242      0.758    494.452    577.307    494.452    500.397    494.452
121.370    583.000    585.942     -2.942    495.041    579.866    495.041    501.129    495.041
121.470    590.663    589.209      1.454    495.640    582.968    495.640    501.895    495.640
121.570    584.000    592.992     -8.992    496.248    586.560    496.248    502.696    496.248
121.670    563.210    597.227    -34.017    496.866    590.582    496.866    503.529    496.866
121.770    581.000    601.845    -20.845    497.493    594.965    497.493    504.394    497.493
121.870    595.000    606.766    -11.766    498.131    599.631    498.131    505.289    498.131
121.970    593.000    611.901    -18.901    498.777    604.495    498.777    506.210    498.777
122.070    647.420    617.151     30.268    499.434    609.461    499.434    507.153    499.434
122.170    630.000    622.411      7.589    500.101    614.427    500.101    508.116    500.101
122.270    651.861    627.566     24.295    500.777    619.285    500.777    509.093    500.777
122.370    592.989    632.500    -39.511    501.464    623.923    501.464    510.078    501.464
122.470    597.105    637.095    -39.990    502.161    628.230    502.161    511.065    502.161
122.570    660.837    641.237     19.599    502.868    632.098    502.868    512.049    502.868
122.670    641.852    644.822     -2.970    503.585    635.429    503.585    513.021    503.585
122.770    609.753    647.757    -38.004    504.312    638.141    504.312    513.973    504.312
122.870    667.581    649.976     17.605    505.050    640.173    505.050    514.900    505.050
122.970    640.145    651.435    -11.290    505.799    641.487    505.799    515.795    505.799
123.070    614.631    652.118    -37.487    506.558    642.073    506.558    516.650    506.558
123.170    672.000    652.034     19.966    507.327    641.948    507.327    517.461    507.327
123.270    642.769    651.222     -8.453    508.108    641.152    508.108    518.224    508.108
123.370    682.672    649.738     32.934    508.899    639.743    508.899    518.938    508.899
123.470    668.000    647.654     20.346    509.701    637.793    509.701    519.605    509.701
123.570    670.560    645.054     25.506    510.513    635.383    510.513    520.226    510.513
123.670    648.925    642.027      6.898    511.337    632.596    511.337    520.807    511.337
123.770    609.000    638.663    -29.663    512.172    629.517    512.172    521.354    512.172
123.870    647.000    635.051     11.949    513.018    626.228    513.018    521.874    513.018
123.970    627.000    631.274     -4.274    513.876    622.805    513.876    522.375    513.876
124.070    601.000    627.408    -26.408    514.744    619.317    514.744    522.863    514.744
124.170    651.483    623.520     27.963    515.625    615.823    515.625    523.346    515.625
124.270    612.318    619.666     -7.347    516.516    612.373    516.516    523.830    516.516
124.370    638.880    615.889     22.991    517.419    609.004    517.419    524.323    517.419
124.470    577.071    612.223    -35.152    518.334    605.745    518.334    524.828    518.334
124.570    633.000    608.690     24.310    519.260    602.612    519.260    525.352    519.260
124.670    608.194    605.301      2.892    520.198    599.614    520.198    525.897    520.198
124.770    565.203    602.060    -36.857    521.149    596.749    521.149    526.469    521.149
124.870    640.999    598.971     42.028    522.111    594.021    522.111    527.069    522.111
124.970    594.000    596.029     -2.029    523.085    591.421    523.085    527.699    523.085
