neutron_powder_diffraction_0193
R_wp: 3.926
Temperature (K): 1074.000
Counts: 83682.00
Wavelength (Ã…): 2.52098
COMMENTS
Test file for demonstrating the .xyy file format in Reel1.0
END OF HEADER
   tth       Y_obs     Y_calc      Y_res    Background    Phase_1_Nuc    Phase_1_Mag    Phase_2_Nuc    Phase_2_Mag
  9.970    571.256    576.486     -5.230    575.864    576.445    575.864    575.906    575.864
 10.070    535.306    576.488    -41.182    575.815    576.445    575.815    575.858    575.815
 10.170    596.000    576.491     19.509    575.762    576.448    575.762    575.805    575.762
 10.270    591.000    576.499     14.501    575.704    576.455    575.704    575.747    575.704
 10.370    563.064    576.513    -13.449    575.642    576.469    575.642    575.686    575.642
 10.470    585.000    576.536      8.464    575.576    576.492    575.576    575.620    575.576
 10.570    568.495    576.571     -8.076    575.506    576.526    575.506    575.550    575.506
 10.670    597.000    576.622     20.378    575.432    576.577    575.432    575.476    575.432
 10.770    568.000    576.695     -8.695    575.354    576.650    575.354    575.398    575.354
 10.870    551.000    576.798    -25.798    575.271    576.753    575.271    575.316    575.271
 10.970    577.000    576.946      0.054    575.185    576.895    575.185    575.235    575.185
 11.070    615.000    577.146     37.854    575.095    577.094    575.095    575.146    575.095
 11.170    583.183    577.423      5.760    575.001    577.371    575.001    575.052    575.001
 11.270    600.000    577.814     22.186    574.903    577.761    574.903    574.954    574.903
 11.370    601.000    578.376     22.624    574.801    578.322    574.801    574.853    574.801
 11.470    615.000    579.234     35.766    574.695    579.179    574.695    574.747    574.695
 11.570    578.412    580.747     -2.335    574.586    580.691    574.586    574.638    574.586
 11.670    650.000    584.009     65.991    574.473    583.952    574.473    574.526    574.473
 11.770    617.000    591.791     25.209    574.357    591.729    574.357    574.410    574.357
 11.870    654.000    608.943     45.057    574.237    608.871    574.237    574.290    574.237
 11.970    631.000    639.691     -8.691    574.113    639.601    574.113    574.166    574.113
 12.070    713.000    680.403     32.597    573.986    680.289    573.986    574.039    573.986
 12.170    682.000    712.849    -30.849    573.855    712.717    573.855    573.909    573.855
 12.270    695.000    713.786    -18.786    573.721    713.654    573.721    573.775    573.721
 12.370    605.000    682.228    -77.228    573.584    682.112    573.584    573.638    573.584
 12.470    676.979    641.020     35.959    573.443    640.927    573.443    573.498    573.443
 12.570    595.000    609.244    -14.244    573.299    609.166    573.299    573.357    573.299
 12.670    575.000    591.189    -16.189    573.151    591.119    573.151    573.211    573.151
 12.770    596.000    582.803     13.197    573.000    582.737    573.000    573.060    573.000
 12.870    572.000    579.140     -7.140    572.847    579.076    572.847    572.907    572.847
 12.970    581.000    577.314      3.686    572.690    577.251    572.690    572.750    572.690
 13.070    565.000    576.173    -11.173    572.529    576.110    572.529    572.591    572.529
 13.170    538.151    575.338    -37.187    572.366    575.275    572.366    572.428    572.366
 13.270    598.000    574.679     23.321    572.200    574.615    572.200    572.262    572.200
 13.370    600.000    574.135     25.865    572.031    574.072    572.031    572.093    572.031
 13.470    557.000    573.673    -16.673    571.858    573.609    571.858    571.921    571.858
 13.570    550.711    573.268    -22.557    571.683    573.205    571.683    571.746    571.683
 13.670    553.000    572.906    -19.906    571.505    572.842    571.505    571.568    571.505
 13.770    556.000    572.574    -16.574    571.324    572.510    571.324    571.387    571.324
 13.870    585.000    572.267     12.733    571.140    572.202    571.140    571.204    571.140
 13.970    553.000    571.977    -18.977    570.953    571.912    570.953    571.018    570.953
 14.070    522.000    571.700    -49.700    570.764    571.635    570.764    570.829    570.764
 14.170    517.000    571.435    -54.435    570.572    571.369    570.572    570.637    570.572
 14.270    566.152    571.177     -5.025    570.377    571.111    570.377    570.443    570.377
 14.370    578.000    570.925      7.075    570.180    570.859    570.180    570.245    570.180
 14.470    538.000    570.678    -32.678    569.980    570.612    569.980    570.046    569.980
 14.570    546.000    570.434    -24.434    569.777    570.368    569.777    569.844    569.777
 14.670    603.018    570.194     32.825    569.572    570.127    569.572    569.639    569.572
 14.770    595.000    569.955     25.045    569.365    569.888    569.365    569.432    569.365
 14.870    563.000    569.720     -6.720    569.154    569.652    569.154    569.222    569.154
 14.970    592.000    569.485     22.515    568.942    569.417    568.942    569.010    568.942
 15.070    548.339    569.248    -20.909    568.727    569.180    568.727    568.796    568.727
 15.170    554.000    569.013    -15.013    568.510    568.943    568.510    568.580    568.510
 15.270    542.000    568.776    -26.776    568.290    568.706    568.290    568.361    568.290
 15.370    566.000    568.539     -2.539    568.068    568.468    568.068    568.139    568.068
 15.470    555.624    568.301    -12.678    567.844    568.230    567.844    567.915    567.844
 15.570    600.967    568.063     32.904    567.618    567.991    567.618    567.689    567.618
 15.670    567.000    567.823     -0.823    567.389    567.751    567.389    567.461    567.389
 15.770    591.000    567.583     23.417    567.158    567.510    567.158    567.231    567.158
 15.870    513.000    567.341    -54.341    566.925    567.268    566.925    566.998    566.925
 15.970    622.000    567.098     54.902    566.690    567.025    566.690    566.764    566.690
 16.070    606.365    566.855     39.509    566.453    566.781    566.453    566.527    566.453
 16.170    527.000    566.612    -39.612    566.214    566.537    566.214    566.289    566.214
 16.270    519.148    566.366    -47.217    565.973    566.291    565.973    566.048    565.973
 16.370    574.000    566.118      7.882    565.730    566.042    565.730    565.805    565.730
 16.470    565.536    565.869     -0.333    565.485    565.793    565.485    565.561    565.485
 16.570    537.000    565.618    -28.618    565.238    565.542    565.238    565.314    565.238
 16.670    509.000    565.366    -56.366    564.989    565.289    564.989    565.066    564.989
 16.770    539.000    565.113    -26.113    564.739    565.036    564.739    564.816    564.739
 16.870    504.000    564.858    -60.858    564.486    564.781    564.486    564.564    564.486
 16.970    587.442    564.602     22.840    564.232    564.524    564.232    564.310    564.232
 17.070    608.720    564.345     44.375    563.976    564.266    563.976    564.055    563.976
 17.170    573.000    564.087      8.913    563.718    564.007    563.718    563.798    563.718
 17.270    556.156    563.827     -7.670    563.459    563.747    563.459    563.539    563.459
 17.370    583.000    563.565     19.435    563.198    563.485    563.198    563.279    563.198
 17.470    578.000    563.303     14.697    562.936    563.222    562.936    563.016    562.936
 17.570    549.329    563.042    -13.713    562.671    562.960    562.671    562.753    562.671
 17.670    579.000    562.782     16.218    562.406    562.695    562.406    562.492    562.406
 17.770    558.000    562.517     -4.517    562.138    562.428    562.138    562.227    562.138
 17.870    591.000    562.250     28.750    561.869    562.160    561.869    561.959    561.869
 17.970    542.000    561.981    -19.981    561.599    561.891    561.599    561.689    561.599
 18.070    546.000    561.711    -15.711    561.327    561.620    561.327    561.418    561.327
 18.170    577.000    561.440     15.560    561.054    561.348    561.054    561.146    561.054
 18.270    515.000    561.168    -46.168    560.780    561.076    560.780    560.872    560.780
 18.370    538.970    560.895    -21.924    560.504    560.802    560.504    560.597    560.504
 18.470    549.000    560.620    -11.620    560.226    560.527    560.226    560.320    560.226
 18.570    557.000    560.345     -3.345    559.948    560.250    559.948    560.042    559.948
 18.670    586.488    560.068     26.419    559.668    559.973    559.668    559.763    559.668
 18.770    543.000    559.791    -16.791    559.387    559.695    559.387    559.483    559.387
 18.870    585.106    559.513     25.592    559.105    559.417    559.105    559.201    559.105
 18.970    588.000    559.234     28.766    558.821    559.137    558.821    558.918    558.821
 19.070    570.000    558.954     11.046    558.537    558.856    558.537    558.635    558.537
 19.170    595.694    558.673     37.020    558.251    558.575    558.251    558.350    558.251
 19.270    549.000    558.392     -9.392    557.964    558.292    557.964    558.063    557.964
 19.370    561.000    558.109      2.891    557.676    558.009    557.676    557.776    557.676
 19.470    573.419    557.826     15.592    557.387    557.725    557.387    557.488    557.387
 19.570    588.000    557.542     30.458    557.097    557.440    557.097    557.199    557.097
 19.670    554.546    557.258     -2.712    556.806    557.155    556.806    556.909    556.806
 19.770    531.063    556.972    -25.910    556.514    556.869    556.514    556.618    556.514
 19.870    528.000    556.688    -28.688    556.221    556.583    556.221    556.326    556.221
 19.970    531.000    556.402    -25.402    555.927    556.297    555.927    556.033    555.927
 20.070    528.368    556.115    -27.747    555.632    556.009    555.632    555.739    555.632
 20.170    594.437    555.829     38.607    555.337    555.722    555.337    555.444    555.337
 20.270    551.000    555.555     -4.555    555.040    555.447    555.040    555.149    555.040
 20.370    519.113    555.277    -36.164    554.743    555.168    554.743    554.852    554.743
 20.470    569.000    554.990     14.010    554.445    554.879    554.445    554.555    554.445
 20.570    587.732    554.702     33.030    554.146    554.590    554.146    554.257    554.146
 20.670    541.810    554.413    -12.603    553.846    554.301    553.846    553.959    553.846
 20.770    553.000    554.125     -1.125    553.546    554.011    553.546    553.660    553.546
 20.870    520.000    553.836    -33.836    553.245    553.721    553.245    553.360    553.245
 20.970    547.000    553.548     -6.548    552.943    553.432    552.943    553.059    552.943
 21.070    573.897    553.260     20.638    552.641    553.142    552.641    552.758    552.641
 21.170    544.589    552.972     -8.383    552.338    552.853    552.338    552.456    552.338
 21.270    580.000    552.684     27.316    552.034    552.564    552.034    552.154    552.034
 21.370    550.000    552.397     -2.397    551.730    552.276    551.730    551.851    551.730
 21.470    525.102    552.121    -27.019    551.425    551.999    551.425    551.548    551.425
 21.570    585.000    551.946     33.054    551.120    551.821    551.120    551.244    551.120
 21.670    542.000    551.713     -9.713    550.814    551.588    550.814    550.940    550.814
 21.770    574.629    551.434     23.195    550.508    551.307    550.508    550.635    550.508
 21.870    576.450    551.155     25.295    550.201    551.024    550.201    550.332    550.201
 21.970    543.000    550.875     -7.875    549.894    550.742    549.894    550.027    549.894
 22.070    592.000    550.597     41.403    549.587    550.462    549.587    549.721    549.587
 22.170    578.000    550.320     27.680    549.279    550.184    549.279    549.415    549.279
 22.270    584.283    550.046     34.237    548.971    549.908    548.971    549.109    548.971
 22.370    512.814    549.775    -36.961    548.662    549.635    548.662    548.802    548.662
 22.470    582.000    549.512     32.488    548.353    549.370    548.353    548.495    548.353
 22.570    544.050    549.294     -5.245    548.044    549.151    548.044    548.188    548.044
 22.670    509.000    549.056    -40.056    547.734    548.911    547.734    547.880    547.734
 22.770    598.000    548.809     49.191    547.425    548.661    547.425    547.572    547.425
 22.870    571.000    548.563     22.437    547.115    548.413    547.115    547.265    547.115
 22.970    521.000    548.326    -27.326    546.804    548.174    546.804    546.957    546.804
 23.070    538.000    548.099    -10.099    546.494    547.945    546.494    546.649    546.494
 23.170    573.000    547.885     25.115    546.184    547.728    546.184    546.340    546.184
 23.270    529.000    547.686    -18.686    545.873    547.527    545.873    546.032    545.873
 23.370    542.000    547.508     -5.508    545.562    547.347    545.562    545.724    545.562
 23.470    537.000    547.356    -10.356    545.251    547.192    545.251    545.416    545.251
 23.570    510.000    547.240    -37.240    544.940    547.073    544.940    545.108    544.940
 23.670    507.815    547.171    -39.356    544.629    547.001    544.629    544.799    544.629
 23.770    568.000    547.163     20.837    544.318    546.991    544.318    544.491    544.318
 23.870    541.000    547.245     -6.245    544.007    547.070    544.007    544.183    544.007
 23.970    591.486    547.466     44.020    543.695    547.287    543.695    543.876    543.695
 24.070    565.000    547.938     17.062    543.384    547.757    543.384    543.568    543.384
 24.170    558.000    548.997      9.003    543.073    548.813    543.073    543.261    543.073
 24.270    505.096    551.597    -46.501    542.762    551.411    542.762    542.954    542.762
 24.370    580.000    557.872     22.128    542.451    557.687    542.451    542.647    542.451
 24.470    534.374    570.982    -36.608    542.140    570.801    542.140    542.340    542.140
 24.570    615.000    592.717     22.283    541.829    592.548    541.829    542.034    541.829
 24.670    629.000    618.877     10.123    541.519    618.722    541.519    541.728    541.519
 24.770    680.294    636.344     43.950    541.208    636.197    541.208    541.422    541.208
 24.870    626.000    632.090     -6.090    540.898    631.935    540.898    541.117    540.898
 24.970    563.637    609.634    -45.997    540.588    609.457    540.588    540.813    540.588
 25.070    564.335    583.633    -19.298    540.278    583.431    540.278    540.509    540.278
 25.170    591.354    564.203     27.151    539.968    563.981    539.968    540.206    539.968
 25.270    569.000    553.102     15.898    539.658    552.865    539.658    539.903    539.658
 25.370    568.000    547.759     20.241    539.349    547.511    539.349    539.601    539.349
 25.470    535.312    545.279     -9.968    539.040    545.022    539.040    539.300    539.040
 25.570    543.000    543.962     -0.962    538.732    543.697    538.732    538.999    538.732
 25.670    536.000    543.103     -7.103    538.423    542.828    538.423    538.700    538.423
 25.770    511.130    542.459    -31.328    538.115    542.174    538.115    538.401    538.115
 25.870    537.000    541.944     -4.944    537.808    541.648    537.808    538.104    537.808
 25.970    537.000    541.523     -4.523    537.500    541.216    537.500    537.808    537.500
 26.070    550.000    541.174      8.826    537.193    540.855    537.193    537.512    537.193
 26.170    537.000    540.887     -3.887    536.887    540.555    536.887    537.219    536.887
 26.270    539.000    540.653     -1.653    536.581    540.307    536.581    536.927    536.581
 26.370    527.000    540.473    -13.473    536.275    540.112    536.275    536.636    536.275
 26.470    492.421    540.369    -47.948    535.970    539.991    535.970    536.347    535.970
 26.570    522.000    540.317    -18.317    535.665    539.921    535.665    536.061    535.665
 26.670    537.000    540.304     -3.304    535.360    539.888    535.360    535.776    535.360
 26.770    557.000    540.360     16.640    535.057    539.922    535.057    535.494    535.057
 26.870    529.723    540.502    -10.779    534.753    540.040    534.753    535.215    534.753
 26.970    603.000    540.750     62.250    534.451    540.262    534.451    534.939    534.451
 27.070    550.744    541.138      9.606    534.148    540.619    534.148    534.666    534.148
 27.170    504.352    541.712    -37.360    533.847    541.160    533.847    534.398    533.847
 27.270    561.000    542.530     18.470    533.546    541.941    533.546    534.134    533.546
 27.370    546.000    543.686      2.314    533.245    543.054    533.245    533.875    533.245
 27.470    546.000    545.371      0.629    532.945    544.692    532.945    533.622    532.945
 27.570    547.743    548.019     -0.276    532.646    547.285    532.646    533.377    532.646
 27.670    553.054    553.202     -0.148    532.347    552.404    532.347    533.140    532.347
 27.770    527.560    565.819    -38.260    532.049    564.946    532.049    532.914    532.049
 27.870    612.513    597.419     15.094    531.752    596.453    531.752    532.699    531.752
 27.970    672.000    664.744      7.256    531.455    663.659    531.455    532.499    531.455
 28.070    746.572    773.898    -27.326    531.159    772.668    531.159    532.317    531.159
 28.170    885.000    894.286     -9.286    530.864    892.894    530.864    532.158    530.864
 28.270    998.196    953.705     44.492    530.569    952.152    530.569    532.027    530.569
 28.370    888.191    904.239    -16.048    530.275    902.520    530.275    531.933    530.275
 28.470    840.898    797.239     43.659    529.982    795.307    529.982    531.888    529.982
 28.570    716.000    713.855      2.145    529.690    711.622    529.690    531.910    529.690
 28.670    707.000    696.259     10.741    529.398    693.609    529.398    532.033    529.398
 28.770    686.492    740.614    -54.123    529.107    737.389    529.107    532.313    529.107
 28.870    760.000    808.178    -48.178    528.817    804.132    528.817    532.851    528.817
 28.970    824.550    840.028    -15.477    528.528    834.754    528.528    533.803    528.528
 29.070    747.270    800.932    -53.662    528.240    793.791    528.240    535.393    528.240
 29.170    756.611    721.378     35.233    527.952    711.466    527.952    537.876    527.952
 29.270    603.651    648.303    -44.652    527.666    634.509    527.666    541.467    527.666
 29.370    643.854    602.914     40.941    527.380    584.110    527.380    546.185    527.380
 29.470    604.000    582.772     21.228    527.095    558.284    527.095    551.582    527.095
 29.570    554.137    576.356    -22.219    526.811    546.818    526.811    556.346    526.811
 29.670    635.000    573.494     61.506    526.528    541.628    526.528    558.390    526.528
 29.770    597.000    568.999     28.001    526.245    538.814    526.245    556.427    526.245
 29.870    569.710    562.456      7.254    525.964    536.980    525.964    551.437    525.964
 29.970    603.000    555.497     47.503    525.684    535.690    525.684    545.488    525.684
 30.070    557.000    549.442      7.558    525.404    534.799    525.404    540.045    525.404
 30.170    522.000    544.835    -22.835    525.126    534.275    525.126    535.684    525.126
 30.270    497.148    541.830    -44.683    524.848    534.226    524.848    532.450    524.848
 30.370    561.000    540.678     20.322    524.572    535.092    524.572    530.153    524.572
 30.470    542.000    542.280     -0.280    524.296    538.032    524.296    528.537    524.296
 30.570    551.000    548.546      2.454    524.022    545.182    524.022    527.373    524.022
 30.670    613.000    561.631     51.369    523.748    558.865    523.748    526.490    523.748
 30.770    589.000    581.343      7.657    523.476    579.000    523.476    525.781    523.476
 30.870    583.000    601.817    -18.817    523.204    599.789    523.204    525.181    523.204
 30.970    636.000    611.158     24.842    522.934    609.383    522.934    524.653    522.934
 31.070    590.000    601.466    -11.466    522.664    599.907    522.664    524.178    522.664
 31.170    560.770    580.067    -19.298    522.396    578.692    522.396    523.742    522.396
 31.270    609.000    558.851     50.149    522.129    557.629    522.129    523.335    522.129
 31.370    488.000    543.925    -55.925    521.863    542.827    521.863    522.953    521.863
 31.470    605.000    535.581     69.419    521.598    534.585    521.598    522.590    521.598
 31.570    532.000    531.541      0.459    521.334    530.630    521.334    522.242    521.334
 31.670    546.970    529.613     17.357    521.071    528.774    521.071    521.908    521.071
 31.770    544.000    528.568     15.432    520.809    527.792    520.809    521.584    520.809
 31.870    551.061    527.897     23.164    520.549    527.174    520.549    521.270    520.549
 31.970    510.656    527.425    -16.768    520.289    526.749    520.289    520.963    520.289
 32.070    497.555    527.094    -29.539    520.031    526.460    520.031    520.664    520.031
 32.170    549.632    526.881     22.751    519.774    526.284    519.774    520.370    519.774
 32.270    535.000    526.779      8.221    519.518    526.213    519.518    520.082    519.518
 32.370    551.000    526.786     24.214    519.263    526.249    519.263    519.799    519.263
 32.470    539.000    526.911     12.089    519.010    526.400    519.010    519.520    519.010
 32.570    574.000    527.170     46.830    518.758    526.682    518.758    519.245    518.758
 32.670    525.000    527.589     -2.589    518.506    527.121    518.506    518.973    518.506
 32.770    535.000    528.205      6.795    518.257    527.756    518.257    518.705    518.257
 32.870    574.000    529.073     44.927    518.008    528.641    518.008    518.439    518.008
 32.970    504.000    530.276    -26.276    517.760    529.858    517.760    518.177    517.760
 33.070    533.000    531.937      1.063    517.514    531.533    517.514    517.917    517.514
 33.170    494.911    534.288    -39.377    517.269    533.896    517.269    517.659    517.269
 33.270    520.000    537.859    -17.859    517.025    537.477    517.025    517.404    517.025
 33.370    600.000    544.079     55.921    516.783    543.707    516.783    517.151    516.783
 33.470    553.246    556.736     -3.490    516.542    556.371    516.542    516.901    516.542
 33.570    586.000    584.088      1.912    516.302    583.727    516.302    516.652    516.302
 33.670    599.356    639.282    -39.926    516.063    638.919    516.063    516.406    516.063
 33.770    679.797    734.345    -54.548    515.826    733.973    515.826    516.161    515.826
 33.870    848.000    865.687    -17.687    515.590    865.304    515.590    515.919    515.590
 33.970   1055.282    997.656     57.626    515.355    997.269    515.355    515.678    515.355
 34.070   1124.000   1062.403     61.597    515.122   1062.031    515.122    515.439    515.122
 34.170   1000.000   1013.767    -13.767    514.890   1013.427    514.890    515.202    514.890
 34.270    925.000    887.930     37.070    514.659    887.619    514.659    514.966    514.659
 34.370    764.000    753.196     10.804    514.430    752.901    514.430    514.733    514.430
 34.470    621.472    650.936    -29.464    514.201    650.646    514.201    514.501    514.201
 34.570    562.778    589.137    -26.359    513.975    588.847    513.975    514.271    513.975
 34.670    582.162    557.397     24.765    513.749    557.106    513.749    514.042    513.749
 34.770    548.000    542.287      5.713    513.525    541.998    513.525    513.815    513.525
 34.870    544.209    534.716      9.493    513.303    534.429    513.303    513.590    513.303
 34.970    574.588    530.271     44.316    513.081    529.986    513.081    513.366    513.081
 35.070    497.000    527.219    -30.219    512.861    526.936    512.861    513.144    512.861
 35.170    535.359    524.919     10.440    512.643    524.638    512.643    512.923    512.643
 35.270    542.256    523.106     19.151    512.426    522.826    512.426    512.705    512.426
 35.370    543.000    521.636     21.364    512.210    521.358    512.210    512.487    512.210
 35.470    523.000    520.420      2.580    511.996    520.144    511.996    512.272    511.996
 35.570    524.000    519.396      4.604    511.783    519.121    511.783    512.057    511.783
 35.670    485.000    518.521    -33.521    511.571    518.247    511.571    511.845    511.571
 35.770    546.000    517.762     28.238    511.361    517.489    511.361    511.634    511.361
 35.870    511.000    517.096     -6.096    511.153    516.824    511.153    511.425    511.153
 35.970    514.134    516.506     -2.372    510.945    516.234    510.945    511.217    510.945
 36.070    551.466    515.979     35.487    510.739    515.708    510.739    511.010    510.739
 36.170    548.739    515.505     33.234    510.535    515.234    510.535    510.806    510.535
 36.270    479.039    515.076    -36.037    510.332    514.805    510.332    510.603    510.332
 36.370    496.000    514.688    -18.688    510.131    514.417    510.131    510.401    510.131
 36.470    504.061    514.337    -10.276    509.931    514.066    509.931    510.201    509.931
 36.570    548.051    514.021     34.030    509.732    513.750    509.732    510.003    509.732
 36.670    488.000    513.741    -25.741    509.535    513.470    509.535    509.806    509.535
 36.770    483.000    513.503    -30.503    509.339    513.231    509.339    509.610    509.339
 36.870    481.000    513.322    -32.322    509.145    513.050    509.145    509.417    509.145
 36.970    489.000    513.246    -24.246    508.952    512.974    508.952    509.225    508.952
 37.070    488.559    513.397    -24.838    508.761    513.124    508.761    509.034    508.761
 37.170    536.000    514.017     21.983    508.571    513.744    508.571    508.845    508.571
 37.270    514.000    515.474     -1.474    508.383    515.200    508.383    508.658    508.383
 37.370    469.823    518.091    -48.268    508.196    517.816    508.196    508.472    508.196
 37.470    493.000    521.794    -28.794    508.011    521.519    508.011    508.287    508.011
 37.570    549.786    525.721     24.065    507.827    525.446    507.827    508.105    507.827
 37.670    501.000    528.194    -27.194    507.644    527.919    507.644    507.924    507.644
 37.770    517.000    527.812    -10.812    507.464    527.538    507.464    507.744    507.464
 37.870    502.610    524.937    -22.327    507.284    524.663    507.284    507.566    507.284
 37.970    522.000    521.111      0.889    507.106    520.838    507.106    507.390    507.106
 38.070    525.000    517.543      7.457    506.930    517.269    506.930    507.215    506.930
 38.170    551.448    514.699     36.748    506.755    514.422    506.755    507.042    506.755
 38.270    514.602    512.645      1.958    506.582    512.364    506.582    506.870    506.582
 38.370    501.000    511.258    -10.258    506.410    510.973    506.410    506.700    506.410
 38.470    526.000    510.350     15.650    506.240    510.061    506.240    506.532    506.240
 38.570    480.845    509.755    -28.910    506.071    509.463    506.071    506.365    506.071
 38.670    503.000    509.347     -6.347    505.904    509.052    505.904    506.200    505.904
 38.770    542.864    509.043     33.820    505.738    508.746    505.738    506.036    505.738
 38.870    497.000    508.795    -11.795    505.574    508.495    505.574    505.874    505.574
 38.970    483.000    508.578    -25.578    505.411    508.275    505.411    505.714    505.411
 39.070    484.000    508.380    -24.380    505.250    508.075    505.250    505.555    505.250
 39.170    499.000    508.197     -9.197    505.091    507.890    505.091    505.398    505.091
 39.270    524.000    508.025     15.975    504.932    507.715    504.932    505.242    504.932
 39.370    489.407    507.864    -18.457    504.776    507.551    504.776    505.089    504.776
 39.470    501.461    507.711     -6.250    504.621    507.396    504.621    504.936    504.621
 39.570    497.000    507.567    -10.567    504.467    507.249    504.467    504.786    504.467
 39.670    511.000    507.431      3.569    504.316    507.110    504.316    504.637    504.316
 39.770    516.000    507.302      8.698    504.165    506.978    504.165    504.490    504.165
 39.870    480.000    507.181    -27.181    504.016    506.853    504.016    504.344    504.016
 39.970    478.225    507.067    -28.842    503.869    506.737    503.869    504.200    503.869
 40.070    529.602    506.962     22.641    503.723    506.628    503.723    504.058    503.723
 40.170    507.000    506.864      0.136    503.579    506.527    503.579    503.917    503.579
 40.270    518.382    506.776     11.606    503.436    506.435    503.436    503.778    503.436
 40.370    504.526    506.697     -2.172    503.295    506.352    503.295    503.640    503.295
 40.470    500.000    506.629     -6.629    503.156    506.280    503.156    503.505    503.156
 40.570    530.000    506.573     23.427    503.018    506.220    503.018    503.371    503.018
 40.670    477.000    506.530    -29.530    502.881    506.174    502.881    503.238    502.881
 40.770    549.744    506.503     43.241    502.746    506.142    502.746    503.108    502.746
 40.870    479.735    506.494    -26.759    502.613    506.129    502.613    502.979    502.613
 40.970    542.656    506.507     36.149    502.481    506.137    502.481    502.851    502.481
 41.070    460.000    506.546    -46.546    502.351    506.172    502.351    502.726    502.351
 41.170    509.504    506.617      2.887    502.222    506.238    502.222    502.602    502.222
 41.270    479.632    506.728    -27.096    502.095    506.344    502.095    502.480    502.095
 41.370    524.622    506.889     17.733    501.969    506.500    501.969    502.359    501.969
 41.470    535.062    507.116     27.945    501.845    506.722    501.845    502.241    501.845
 41.570    542.403    507.433     34.969    501.723    507.034    501.723    502.123    501.723
 41.670    510.000    507.883      2.117    501.602    507.478    501.602    502.008    501.602
 41.770    522.829    508.561     14.268    501.483    508.151    501.483    501.895    501.483
 41.870    463.675    509.701    -46.026    501.365    509.285    501.365    501.783    501.365
 41.970    498.000    511.847    -13.847    501.248    511.426    501.248    501.673    501.248
 42.070    514.000    516.101     -2.101    501.134    515.676    501.134    501.565    501.134
 42.170    482.698    524.243    -41.544    501.020    523.814    501.020    501.458    501.020
 42.270    516.000    538.340    -22.340    500.909    537.911    500.909    501.353    500.909
 42.370    546.324    559.499    -13.174    500.799    559.072    500.799    501.250    500.799
 42.470    576.255    585.989     -9.734    500.690    585.569    500.690    501.149    500.690
 42.570    597.899    611.616    -13.718    500.583    611.203    500.583    501.050    500.583
 42.670    644.836    626.293     18.543    500.477    625.881    500.477    500.953    500.477
 42.770    575.000    622.318    -47.318    500.373    621.900    500.373    500.857    500.373
 42.870    595.000    602.038     -7.038    500.271    601.602    500.271    500.763    500.271
 42.970    564.000    575.056    -11.056    500.170    574.598    500.170    500.672    500.170
 43.070    571.701    550.152     21.549    500.071    549.670    500.071    500.582    500.071
 43.170    535.000    531.648      3.352    499.973    531.145    499.973    500.494    499.973
 43.270    513.000    519.954     -6.954    499.877    519.434    499.877    500.407    499.877
 43.370    467.759    513.417    -45.658    499.782    512.881    499.782    500.323    499.782
 43.470    540.777    510.007     30.770    499.689    509.458    499.689    500.241    499.689
 43.570    494.000    508.212    -14.212    499.597    507.650    499.597    500.161    499.597
 43.670    505.000    507.173     -2.173    499.507    506.599    499.507    500.083    499.507
 43.770    478.661    506.488    -27.827    499.418    505.901    499.418    500.007    499.418
 43.870    473.243    505.989    -32.746    499.331    505.389    499.331    499.933    499.331
 43.970    534.128    505.606     28.521    499.245    504.992    499.245    499.861    499.245
 44.070    497.845    505.305     -7.460    499.161    504.676    499.161    499.792    499.161
 44.170    494.286    505.066    -10.780    499.079    504.421    499.079    499.724    499.079
 44.270    467.000    504.876    -37.876    498.998    504.215    498.998    499.659    498.998
 44.370    495.675    504.725     -9.050    498.918    504.048    498.918    499.596    498.918
 44.470    466.000    504.608    -38.608    498.840    503.913    498.840    499.536    498.840
 44.570    496.636    504.519     -7.884    498.764    503.805    498.764    499.478    498.764
 44.670    463.000    504.454    -41.454    498.689    503.721    498.689    499.422    498.689
 44.770    524.000    504.412     19.588    498.615    503.658    498.615    499.369    498.615
 44.870    501.000    504.389     -3.389    498.543    503.613    498.543    499.319    498.543
 44.970    504.120    504.385     -0.265    498.472    503.586    498.472    499.272    498.472
 45.070    532.000    504.398     27.602    498.403    503.574    498.403    499.227    498.403
 45.170    524.000    504.428     19.572    498.336    503.579    498.336    499.185    498.336
 45.270    502.652    504.476     -1.824    498.270    503.599    498.270    499.147    498.270
 45.370    543.509    504.541     38.969    498.205    503.634    498.205    499.111    498.205
 45.470    537.000    504.623     32.377    498.142    503.685    498.142    499.080    498.142
 45.570    479.000    504.723    -25.723    498.081    503.752    498.081    499.051    498.081
 45.670    506.000    504.843      1.157    498.020    503.837    498.020    499.027    498.020
 45.770    531.010    504.984     26.026    497.962    503.939    497.962    499.006    497.962
 45.870    517.805    505.147     12.658    497.904    504.061    497.904    498.990    497.904
 45.970    447.000    505.336    -58.336    497.849    504.205    497.849    498.979    497.849
 46.070    465.171    505.552    -40.380    497.794    504.373    497.794    498.972    497.794
 46.170    489.168    505.799    -16.631    497.742    504.569    497.742    498.971    497.742
 46.270    490.000    506.082    -16.082    497.690    504.796    497.690    498.975    497.690
 46.370    516.000    506.407      9.593    497.640    505.060    497.640    498.986    497.640
 46.470    516.000    506.779      9.221    497.592    505.366    497.592    499.004    497.592
 46.570    505.845    507.212     -1.367    497.545    505.726    497.545    499.029    497.545
 46.670    518.000    507.720     10.280    497.499    506.155    497.499    499.063    497.499
 46.770    490.289    508.330    -18.040    497.455    506.677    497.455    499.106    497.455
 46.870    533.081    509.094     23.988    497.412    507.345    497.412    499.159    497.412
 46.970    505.124    510.132     -5.008    497.371    508.276    497.371    499.224    497.371
 47.070    509.000    511.706     -2.706    497.331    509.731    497.331    499.303    497.331
 47.170    516.748    514.331      2.416    497.292    512.222    497.292    499.397    497.292
 47.270    575.000    518.847     56.153    497.255    516.586    497.255    499.508    497.255
 47.370    526.000    526.326     -0.326    497.220    523.892    497.220    499.639    497.220
 47.470    568.256    537.644     30.612    497.185    535.013    497.185    499.794    497.185
 47.570    573.000    552.736     20.264    497.152    549.878    497.152    499.977    497.152
 47.670    613.234    569.785     43.449    497.121    566.668    497.121    500.193    497.121
 47.770    615.757    584.782     30.974    497.091    581.370    497.091    500.449    497.091
 47.870    621.000    592.384     28.616    497.062    588.637    497.062    500.752    497.062
 47.970    658.000    589.430     68.570    497.035    585.297    497.035    501.115    497.035
 48.070    596.000    578.077     17.923    497.009    573.491    497.009    501.552    497.009
 48.170    594.449    563.548     30.901    496.984    558.413    496.984    502.088    496.984
 48.270    537.000    550.366    -13.366    496.961    544.547    496.961    502.760    496.961
 48.370    562.436    540.974     21.462    496.939    534.270    496.939    503.630    496.939
 48.470    507.000    535.960    -28.960    496.919    528.065    496.919    504.805    496.919
 48.570    515.987    534.837    -18.851    496.900    525.273    496.900    506.458    496.900
 48.670    533.818    536.905     -3.087    496.882    524.923    496.882    508.859    496.882
 48.770    563.587    541.723     21.864    496.865    526.192    496.865    512.391    496.865
 48.870    558.000    549.311      8.689    496.850    528.621    496.850    517.535    496.850
 48.970    564.000    560.058      3.942    496.836    532.090    496.836    524.799    496.836
 49.070    585.000    574.556     10.444    496.824    536.798    496.824    534.575    496.824
 49.170    608.000    593.569     14.431    496.813    543.444    496.813    546.929    496.813
 49.270    617.000    618.402     -1.402    496.803    553.883    496.803    561.309    496.803
 49.370    674.000    652.085     21.915    496.794    572.680    496.794    576.180    496.794
 49.470    708.000    701.787      6.213    496.787    609.817    496.787    588.728    496.787
 49.570    799.000    782.333     16.667    496.781    683.703    496.781    595.360    496.781
 49.670    878.199    918.421    -40.222    496.776    821.439    496.776    593.676    496.776
 49.770   1136.260   1139.121     -2.861    496.773   1051.411    496.773    584.359    496.773
 49.870   1457.000   1459.387     -2.387    496.771   1385.439    496.771    570.557    496.771
 49.970   1890.774   1854.526     36.248    496.770   1795.457    496.770    555.664    496.770
 50.070   2284.000   2243.534     40.466    496.771   2198.187    496.771    541.978    496.771
 50.170   2470.000   2500.718    -30.718    496.772   2466.833    496.772    530.612    496.772
 50.270   2580.784   2515.858     64.926    496.775   2490.863    496.775    521.847    496.775
 50.370   2336.654   2277.913     58.741    496.779   2259.396    496.779    515.464    496.779
 50.470   1935.000   1886.243     48.757    496.785   1872.219    496.785    511.007    496.785
 50.570   1429.000   1471.660    -42.660    496.792   1460.663    496.792    507.969    496.792
 50.670   1114.000   1126.987    -12.987    496.799   1118.023    496.799    505.902    496.799
 50.770    838.000    888.567    -50.567    496.809    881.003    496.809    504.469    496.809
 50.870    702.000    748.290    -46.290    496.819    741.737    496.819    503.438    496.819
 50.970    710.276    676.460     33.816    496.830    670.673    496.830    502.666    496.830
 51.070    678.329    641.572     36.757    496.843    636.390    496.843    502.066    496.843
 51.170    596.041    620.942    -24.902    496.857    616.250    496.857    501.585    496.857
 51.270    606.000    603.328      2.672    496.872    599.037    496.872    501.193    496.872
 51.370    563.000    586.071    -23.071    496.889    582.113    496.889    500.870    496.889
 51.470    538.717    570.224    -31.508    496.906    566.546    496.906    500.602    496.906
 51.570    544.610    557.209    -12.599    496.925    553.767    496.925    500.379    496.925
 51.670    622.000    547.645     74.355    496.945    544.405    496.945    500.193    496.945
 51.770    577.000    541.312     35.688    496.966    538.244    496.966    500.039    496.966
 51.870    502.000    537.520    -35.520    496.988    534.601    496.988    499.911    496.988
 51.970    549.162    535.521     13.641    497.011    532.729    497.011    499.806    497.011
 52.070    559.611    534.752     24.860    497.036    532.069    497.036    499.721    497.036
 52.170    593.000    534.912     58.088    497.061    532.322    497.061    499.653    497.061
 52.270    509.619    535.948    -26.328    497.088    533.437    497.088    499.601    497.088
 52.370    508.583    538.069    -29.486    497.116    535.624    497.116    499.562    497.116
 52.470    554.815    541.901     12.914    497.145    539.512    497.145    499.535    497.145
 52.570    530.399    548.843    -18.443    497.175    546.499    497.175    499.519    497.175
 52.670    549.000    561.621    -12.621    497.206    559.314    497.206    499.514    497.206
 52.770    628.000    584.836     43.164    497.238    582.556    497.238    499.517    497.238
 52.870    628.551    624.950      3.601    497.272    622.690    497.272    499.529    497.272
 52.970    711.000    688.969     22.031    497.306    686.721    497.306    499.549    497.306
 53.070    743.995    781.337    -37.342    497.341    779.095    497.341    499.577    497.341
 53.170    924.000    899.551     24.449    497.378    897.312    497.378    499.612    497.378
 53.270   1010.000   1030.000    -20.000    497.416   1027.760    497.416    499.654    497.416
 53.370   1145.000   1146.131     -1.131    497.454   1143.890    497.454    499.702    497.454
 53.470   1128.000   1213.318    -85.318    497.494   1211.074    497.494    499.757    497.494
 53.570   1161.235   1206.209    -44.974    497.535   1203.957    497.535    499.819    497.535
 53.670   1075.000   1127.994    -52.994    497.576   1125.723    497.576    499.887    497.576
 53.770    981.000   1007.443    -26.443    497.619   1005.140    497.619    499.962    497.619
 53.870    890.820    878.357     12.464    497.663    876.011    497.663    500.043    497.663
 53.970    831.000    764.915     66.085    497.707    762.518    497.707    500.130    497.707
 54.070    670.000    678.440     -8.440    497.753    675.987    497.753    500.224    497.753
 54.170    628.000    619.828      8.172    497.800    617.314    497.800    500.325    497.800
 54.270    557.000    583.883    -26.883    497.848    581.304    497.848    500.434    497.848
 54.370    534.000    563.551    -29.551    497.896    560.903    497.896    500.549    497.896
 54.470    564.000    552.678     11.322    497.946    549.954    497.946    500.673    497.946
 54.570    497.233    547.037    -49.804    497.996    544.232    497.996    500.804    497.996
 54.670    557.000    544.183     12.817    498.048    541.289    498.048    500.944    498.048
 54.770    537.000    542.881     -5.881    498.100    539.889    498.100    501.094    498.100
 54.870    596.000    542.570     53.430    498.154    539.472    498.154    501.253    498.154
 54.970    569.000    543.017     25.983    498.208    539.803    498.208    501.423    498.208
 55.070    543.860    544.139     -0.279    498.263    540.799    498.263    501.604    498.263
 55.170    549.000    545.929      3.071    498.320    542.452    498.320    501.797    498.320
 55.270    537.000    548.431    -11.431    498.377    544.804    498.377    502.004    498.377
 55.370    571.000    551.737     19.263    498.434    547.946    498.434    502.226    498.434
 55.470    586.361    556.015     30.346    498.493    552.045    498.493    502.464    498.493
 55.570    554.421    561.583     -7.162    498.553    557.417    498.553    502.719    498.553
 55.670    568.000    569.094     -1.094    498.614    564.714    498.614    502.994    498.614
 55.770    621.835    579.965     41.870    498.675    575.348    498.675    503.291    498.675
 55.870    572.567    597.200    -24.633    498.737    592.322    498.737    503.612    498.737
 55.970    585.294    626.721    -41.427    498.800    621.554    498.800    503.961    498.800
 56.070    657.000    678.934    -21.934    498.864    673.446    498.864    504.341    498.864
 56.170    729.084    769.592    -40.508    498.929    763.744    498.929    504.755    498.929
 56.270    864.000    918.237    -54.237    498.995    911.986    498.995    505.209    498.995
 56.370   1144.535   1142.519      2.017    499.061   1135.820    499.061    505.708    499.061
 56.470   1478.181   1448.277     29.904    499.128   1441.083    499.128    506.260    499.128
 56.570   1860.129   1818.047     42.082    499.196   1810.313    499.196    506.871    499.196
 56.670   2264.444   2202.572     61.872    499.265   2194.253    499.265    507.553    499.265
 56.770   2570.575   2520.756     49.819    499.334   2511.801    499.334    508.316    499.334
 56.870   2653.034   2679.275    -26.241    499.405   2669.614    499.405    509.175    499.405
 56.970   2631.000   2621.912      9.088    499.476   2611.434    499.476    510.149    499.476
 57.070   2366.670   2371.653     -4.982    499.548   2360.189    499.548    511.261    499.548
 57.170   2182.000   2011.218    170.782    499.620   1998.556    499.620    512.540    499.620
 57.270   1653.000   1630.789     22.211    499.693   1616.680    499.693    514.032    499.693
 57.370   1290.000   1295.297     -5.297    499.767   1279.445    499.767    515.801    499.767
 57.470   1049.000   1036.703     12.297    499.842   1018.727    499.842    517.947    499.842
 57.570    883.415    859.204     24.211    499.917    838.567    499.917    520.639    499.917
 57.670    744.865    750.027     -5.163    499.994    725.926    499.994    524.145    499.994
 57.770    718.000    690.727     27.273    500.070    661.929    500.070    528.894    500.070
 57.870    673.584    665.227      8.358    500.148    629.854    500.148    535.531    500.148
 57.970    668.000    663.424      4.576    500.226    618.690    500.226    544.960    500.226
 58.070    692.000    681.360     10.640    500.305    623.319    500.305    558.334    500.305
 58.170    757.000    719.535     37.465    500.384    642.937    500.384    576.960    500.384
 58.270    766.000    780.522    -14.522    500.464    678.870    500.464    602.081    500.464
 58.370    895.000    866.432     28.568    500.545    732.396    500.545    634.533    500.545
 58.470    979.000    976.631      2.369    500.627    802.885    500.627    674.314    500.627
 58.570   1116.000   1105.715     10.285    500.709    886.295    500.709    720.064    500.709
 58.670   1205.000   1242.566    -37.566    500.791    974.845    500.791    768.448    500.791
 58.770   1366.000   1371.517     -5.517    500.874   1058.815    500.874    813.522    500.874
 58.870   1501.000   1475.628     25.372    500.958   1129.749    500.958    846.799    500.958
 58.970   1538.000   1539.614     -1.614    501.043   1180.990    501.043    859.647    501.043
 59.070   1624.000   1552.664     71.336    501.127   1205.670    501.127    848.124    501.127
 59.170   1516.000   1513.572      2.428    501.213   1198.949    501.213    815.857    501.213
 59.270   1414.000   1434.302    -20.302    501.299   1164.272    501.299    771.356    501.299
 59.370   1322.793   1336.013    -13.220    501.386   1114.240    501.386    723.175    501.386
 59.470   1310.000   1240.540     69.460    501.473   1064.615    501.473    677.391    501.473
 59.570   1165.087   1166.016     -0.929    501.561   1030.081    501.561    637.455    501.561
 59.670   1075.372   1127.530    -52.159    501.649   1024.282    501.649    604.812    501.649
 59.770   1167.000   1136.483     30.517    501.737   1058.562    501.737    579.523    501.737
 59.870   1232.000   1195.994     36.006    501.827   1136.847    501.827    560.781    501.827
 59.970   1286.000   1296.250    -10.250    501.916   1250.563    501.916    547.359    501.916
 60.070   1420.000   1413.016      6.984    502.006   1376.791    502.006    537.947    502.006
 60.170   1495.032   1510.159    -15.127    502.097   1480.578    502.097    531.381    502.097
 60.270   1664.000   1549.108    114.892    502.188   1524.275    502.188    526.748    502.188
 60.370   1571.000   1507.287     63.713    502.280   1485.955    502.280    523.391    502.280
 60.470   1364.345   1392.070    -27.725    502.372   1373.412    502.372    520.876    502.372
 60.570   1249.000   1233.415     15.585    502.464   1216.856    502.464    518.929    502.464
 60.670   1101.000   1065.520     35.480    502.557   1050.640    502.557    517.387    502.557
 60.770    900.000    914.656    -14.656    502.650    901.130    502.650    516.155    502.650
 60.870    772.732    795.331    -22.599    502.744    782.890    502.744    515.177    502.744
 60.970    765.580    711.341     54.239    502.838    699.751    502.838    514.423    502.838
 61.070    644.000    659.466    -15.466    502.933    648.515    502.933    513.877    502.933
 61.170    643.314    634.002      9.312    503.028    623.493    503.028    513.525    503.028
 61.270    624.000    630.504     -6.504    503.123    620.250    503.123    513.356    503.123
 61.370    619.000    647.827    -28.827    503.219    637.660    503.219    513.352    503.219
 61.470    659.174    688.281    -29.107    503.314    678.064    503.314    513.482    503.314
 61.570    759.000    756.073      2.927    503.411    745.715    503.411    513.695    503.411
 61.670    829.000    854.343    -25.343    503.507    843.831    503.507    513.915    503.507
 61.770    991.000    981.497      9.503    503.604    970.924    503.604    514.042    503.604
 61.870   1093.000   1127.912    -34.912    503.702   1117.474    503.702    513.975    503.702
 61.970   1293.000   1274.193     18.807    503.799   1264.150    503.799    513.659    503.799
 62.070   1460.441   1392.287     68.154    503.897   1382.886    503.897    513.116    503.897
 62.170   1438.000   1452.113    -14.113    503.995   1443.522    503.995    512.429    503.995
 62.270   1368.000   1435.321    -67.321    504.094   1427.609    504.094    511.690    504.094
 62.370   1313.593   1346.941    -33.348    504.192   1340.090    504.192    510.975    504.192
 62.470   1245.992   1211.726     34.266    504.291   1205.656    504.291    510.332    504.291
 62.570   1072.000   1060.030     11.970    504.391   1054.635    504.391    509.783    504.391
 62.670    904.000    916.793    -12.793    504.490    911.958    504.490    509.336    504.490
 62.770    810.000    797.338     12.662    504.590    792.956    504.590    508.986    504.590
 62.870    697.000    707.441    -10.441    504.690    703.422    504.690    508.721    504.690
 62.970    617.355    645.632    -28.277    504.790    641.904    504.790    508.526    504.790
 63.070    641.000    606.429     34.571    504.890    602.936    504.890    508.386    504.890
 63.170    571.670    583.308    -11.639    504.991    580.010    504.991    508.289    504.991
 63.270    530.186    570.654    -40.468    505.092    567.520    505.092    508.222    505.092
 63.370    606.670    564.588     42.081    505.192    561.596    505.192    508.179    505.192
 63.470    619.000    563.044     55.956    505.293    560.177    505.293    508.154    505.293
 63.570    545.000    565.516    -20.516    505.395    562.758    505.395    508.142    505.395
 63.670    619.000    572.777     46.223    505.496    570.117    505.496    508.142    505.496
 63.770    615.000    586.618     28.382    505.598    584.044    505.598    508.151    505.598
 63.870    644.000    609.487     34.513    505.699    606.989    505.699    508.168    505.699
 63.970    625.786    643.885    -18.099    505.801    641.451    505.801    508.192    505.801
 64.070    727.833    691.442     36.391    505.903    689.062    505.903    508.222    505.903
 64.170    783.000    751.795     31.205    506.005    749.460    506.005    508.258    506.005
 64.270    832.000    821.517     10.483    506.107    819.222    506.107    508.299    506.107
 64.370    882.000    893.445    -11.445    506.209    891.188    506.209    508.345    506.209
 64.470    936.000    956.905    -20.905    506.311    954.691    506.311    508.395    506.311
 64.570   1034.000    999.982     34.018    506.413    997.818    506.413    508.449    506.413
 64.670   1016.081   1014.190      1.891    506.516   1012.084    506.516    508.507    506.516
 64.770   1056.161    998.307     57.854    506.618    996.266    506.618    508.569    506.618
 64.870   1018.000    957.875     60.125    506.720    955.899    506.720    508.633    506.720
 64.970    928.000    902.197     25.803    506.823    900.284    506.823    508.701    506.823
 65.070    866.125    841.273     24.852    506.925    839.416    506.925    508.772    506.925
 65.170    756.000    783.082    -27.082    507.028    781.273    507.028    508.845    507.028
 65.270    754.000    732.100     21.900    507.130    730.329    507.130    508.921    507.130
 65.370    693.207    689.595      3.612    507.233    687.854    507.233    508.999    507.233
 65.470    623.000    655.063    -32.063    507.335    653.345    507.335    509.079    507.335
 65.570    572.000    627.530    -55.530    507.437    625.828    507.437    509.162    507.437
 65.670    589.000    606.045    -17.045    507.540    604.355    507.540    509.247    507.540
 65.770    601.000    589.712     11.288    507.642    588.033    507.642    509.333    507.642
 65.870    559.000    577.710    -18.710    507.744    576.039    507.744    509.422    507.744
 65.970    537.799    569.307    -31.508    507.846    567.644    507.846    509.513    507.846
 66.070    559.148    563.860     -4.712    507.948    562.203    507.948    509.605    507.948
 66.170    559.000    560.803     -1.803    508.050    559.153    508.050    509.700    508.050
 66.270    569.000    559.664      9.336    508.152    558.020    508.152    509.796    508.152
 66.370    502.000    560.087    -58.087    508.254    558.447    508.254    509.894    508.254
 66.470    528.286    561.876    -33.591    508.356    560.238    508.356    509.994    508.356
 66.570    537.797    565.057    -27.260    508.457    563.419    508.457    510.095    508.457
 66.670    567.000    569.979     -2.979    508.559    568.340    508.559    510.198    508.559
 66.770    586.492    577.515      8.977    508.660    575.872    508.660    510.303    508.660
 66.870    618.000    589.397     28.603    508.761    587.748    508.761    510.410    508.761
 66.970    592.000    608.687    -16.687    508.862    607.029    508.862    510.518    508.862
 67.070    608.000    640.305    -32.305    508.963    638.636    508.963    510.627    508.963
 67.170    682.000    691.371     -9.371    509.063    689.687    509.063    510.739    509.063
 67.270    819.643    770.965     48.678    509.164    769.262    509.164    510.853    509.164
 67.370    869.546    888.875    -19.329    509.264    887.151    509.264    510.970    509.264
 67.470   1068.000   1053.075     14.925    509.364   1051.332    509.364    511.088    509.364
 67.570   1273.000   1266.130      6.870    509.464   1264.371    509.464    511.209    509.464
 67.670   1498.000   1521.338    -23.338    509.563   1519.572    509.563    511.332    509.563
 67.770   1858.000   1799.745     58.255    509.662   1797.985    509.662    511.457    509.662
 67.870   2090.000   2069.144     20.856    509.762   2067.403    509.762    511.585    509.762
 67.970   2196.000   2286.548    -90.548    509.860   2284.840    509.860    511.715    509.860
 68.070   2476.836   2407.246     69.591    509.959   2405.575    509.959    511.849    509.959
 68.170   2499.000   2401.845     97.155    510.057   2400.200    510.057    511.985    510.057
 68.270   2296.000   2271.849     24.151    510.155   2270.201    510.155    512.125    510.155
 68.370   2095.000   2048.704     46.296    510.253   2047.016    510.253    512.269    510.253
 68.470   1769.000   1777.473     -8.473    510.350   1775.712    510.350    512.416    510.350
 68.570   1522.000   1500.417     21.583    510.447   1498.559    510.447    512.567    510.447
 68.670   1297.000   1248.648     48.352    510.544   1246.679    510.544    512.723    510.544
 68.770   1083.000   1040.012     42.988    510.641   1037.927    510.641    512.884    510.641
 68.870    885.000    880.298      4.702    510.737    878.098    510.737    513.051    510.737
 68.970    722.000    766.340    -44.340    510.833    764.026    510.833    513.223    510.833
 69.070    649.000    689.892    -40.892    510.928    687.468    510.928    513.402    510.928
 69.170    609.000    641.152    -32.152    511.023    638.619    511.023    513.588    511.023
 69.270    650.000    611.175     38.825    511.118    608.532    511.118    513.782    511.118
 69.370    651.000    593.023     57.977    511.212    590.264    511.212    513.985    511.212
 69.470    601.000    581.931     19.069    511.306    579.049    511.306    514.198    511.306
 69.570    594.860    574.936     19.924    511.400    571.921    511.400    514.421    511.400
 69.670    531.000    570.340    -39.340    511.493    567.181    511.493    514.657    511.493
 69.770    545.692    567.231    -21.539    511.586    563.914    511.586    514.907    511.586
 69.870    549.488    565.144    -15.656    511.678    561.652    511.678    515.172    511.678
 69.970    585.000    563.847     21.153    511.770    560.163    511.770    515.455    511.770
 70.070    548.304    563.233    -14.930    511.861    559.337    511.861    515.758    511.861
 70.170    575.000    563.269     11.731    511.952    559.137    511.952    516.084    511.952
 70.270    556.000    563.982     -7.982    512.043    559.588    512.043    516.436    512.043
 70.370    584.000    565.479     18.521    512.133    560.792    512.133    516.818    512.133
 70.470    555.359    568.000    -12.641    512.222    562.984    512.222    517.235    512.222
 70.570    582.184    572.016     10.168    512.311    566.630    512.311    517.693    512.311
 70.670    578.000    578.400     -0.400    512.400    572.594    512.400    518.199    512.400
 70.770    624.341    588.648     35.693    512.488    582.361    512.488    518.763    512.488
 70.870    630.510    605.147     25.363    512.576    598.306    512.576    519.399    512.576
 70.970    654.476    631.417     23.060    512.663    623.925    512.663    520.127    512.663
 71.070    702.628    672.151     30.477    512.749    663.882    512.749    520.977    512.749
 71.170    709.000    732.894    -23.894    512.835    723.672    512.835    521.998    512.835
 71.270    842.358    819.167     23.191    512.921    808.736    512.921    523.268    512.921
 71.370    983.000    935.004     47.996    513.006    922.986    513.006    524.910    513.006
 71.470   1042.000   1081.079    -39.079    513.090   1066.912    513.090    527.112    513.090
 71.570   1258.000   1252.849      5.151    513.174   1235.700    513.174    530.148    513.174
 71.670   1417.699   1439.211    -21.512    513.257   1417.871    513.257    534.397    513.257
 71.770   1575.631   1622.143    -46.511    513.340   1594.921    513.340    540.348    513.340
 71.870   1849.000   1777.917     71.083    513.422   1742.551    513.422    548.579    513.422
 71.970   1870.000   1881.191    -11.191    513.503   1834.808    513.503    559.698    513.503
 72.070   1893.000   1912.996    -19.996    513.584   1852.178    513.584    574.249    513.584
 72.170   1808.498   1869.563    -61.065    513.664   1790.542    513.664    592.572    513.664
 72.270   1703.476   1764.485    -61.009    513.744   1663.508    513.744    614.644    513.744
 72.370   1693.000   1621.680     71.320    513.823   1495.540    513.823    639.915    513.823
 72.470   1480.000   1465.793     14.207    513.901   1312.503    513.901    667.163    513.901
 72.570   1302.000   1316.111    -14.111    513.979   1135.708    513.979    694.364    513.979
 72.670   1140.000   1184.292    -44.292    514.056    979.671    514.056    718.664    514.056
 72.770   1054.000   1074.434    -20.434    514.132    851.933    514.132    736.621    514.132
 72.870    969.000    984.885    -15.885    514.208    754.060    514.208    745.020    514.208
 72.970    857.731    911.241    -53.510    514.283    683.366    514.283    742.145    514.283
 73.070    798.000    849.158    -51.158    514.357    634.863    514.357    728.639    514.357
 73.170    758.000    795.686    -37.686    514.431    602.952    514.431    707.154    514.431
 73.270    764.827    749.215     15.611    514.504    582.569    514.504    681.140    514.504
 73.370    685.000    708.959    -23.959    514.576    569.744    514.576    653.783    514.576
 73.470    668.000    674.566     -6.566    514.648    561.696    514.648    627.512    514.648
 73.570    629.000    645.871    -16.871    514.718    556.658    514.718    603.929    514.718
 73.670    599.612    622.716    -23.104    514.788    553.610    514.788    583.895    514.788
 73.770    614.000    604.821      9.179    514.858    552.011    514.858    567.672    514.858
 73.870    585.000    591.733     -6.733    514.926    551.590    514.926    555.077    514.926
 73.970    517.000    582.829    -65.829    514.994    552.185    514.994    545.650    514.994
 74.070    595.390    577.363     18.027    515.061    553.643    515.061    538.799    515.061
 74.170    600.000    574.518     25.482    515.127    555.747    515.127    533.922    515.127
 74.270    584.245    573.446     10.799    515.193    558.183    515.193    530.485    515.193
 74.370    627.000    573.297     53.703    515.257    560.535    515.257    528.055    515.257
 74.470    615.000    573.260     41.740    515.321    562.315    515.321    526.307    515.321
 74.570    648.000    572.641     75.359    515.384    563.055    515.384    525.014    515.384
 74.670    609.000    570.995     38.005    515.447    562.461    515.447    524.025    515.447
 74.770    627.000    568.235     58.765    515.508    560.544    515.508    523.240    515.508
 74.870    610.000    564.616     45.384    515.569    557.624    515.569    522.599    515.569
 74.970    521.074    560.600    -39.526    515.628    554.198    515.628    522.062    515.628
 75.070    525.461    556.704    -31.243    515.687    550.811    515.687    521.606    515.687
 75.170    573.898    553.433     20.465    515.746    547.984    515.746    521.213    515.746
 75.270    557.000    551.261      5.739    515.803    546.203    515.803    520.873    515.803
 75.370    568.550    550.655     17.895    515.859    545.944    515.859    520.577    515.859
 75.470    579.000    552.099     26.901    515.915    547.698    515.915    520.318    515.915
 75.570    565.000    556.109      8.891    515.969    551.984    515.969    520.090    515.969
 75.670    606.644    563.205     43.439    516.023    559.327    516.023    519.890    516.023
 75.770    582.920    573.833      9.087    516.076    570.177    516.076    519.715    516.076
 75.870    611.000    588.228     22.772    516.128    584.773    516.128    519.559    516.128
 75.970    609.000    606.246      2.754    516.179    602.970    516.179    519.422    516.179
 76.070    586.000    627.196    -41.196    516.229    624.083    516.229    519.301    516.229
 76.170    637.000    649.729    -12.729    516.279    646.764    516.279    519.194    516.279
 76.270    641.000    671.812    -30.812    516.327    668.982    516.327    519.100    516.327
 76.370    677.505    690.825    -13.320    516.374    688.121    516.374    519.016    516.374
 76.470    700.821    703.897     -3.076    516.421    701.311    516.421    518.942    516.421
 76.570    730.000    708.615     21.385    516.467    706.144    516.467    518.876    516.467
 76.670    704.000    703.975      0.025    516.511    701.611    516.511    518.818    516.511
 76.770    641.000    690.862    -49.862    516.555    688.602    516.555    518.767    516.555
 76.870    652.138    671.613    -19.475    516.598    669.450    516.598    518.722    516.598
 76.970    608.694    649.079    -40.385    516.639    647.006    516.639    518.682    516.639
 77.070    587.000    625.888    -38.888    516.680    623.899    516.680    518.647    516.680
 77.170    596.026    604.086     -8.060    516.720    602.174    516.720    518.617    516.720
 77.270    560.000    585.024    -25.024    516.759    583.183    516.759    518.590    516.759
 77.370    554.000    569.370    -15.370    516.797    567.593    516.797    518.567    516.797
 77.470    566.000    557.216      8.784    516.833    555.499    516.833    518.546    516.833
 77.570    544.211    548.246     -4.035    516.869    546.584    516.869    518.529    516.869
 77.670    501.000    541.915    -40.915    516.904    540.303    516.904    518.514    516.904
 77.770    570.592    537.609     32.982    516.938    536.045    516.938    518.501    516.938
 77.870    549.000    534.761     14.239    516.971    533.240    516.971    518.490    516.971
 77.970    517.000    532.903    -15.903    517.002    531.423    517.002    518.481    517.002
 78.070    546.414    531.691     14.723    517.033    530.250    517.033    518.473    517.033
 78.170    486.000    530.889    -44.889    517.063    529.484    517.063    518.467    517.063
 78.270    504.000    530.345    -26.345    517.092    528.973    517.092    518.462    517.092
 78.370    523.000    529.974     -6.974    517.119    528.634    517.119    518.458    517.119
 78.470    560.000    529.729     30.271    517.146    528.418    517.146    518.456    517.146
 78.570    535.000    529.587      5.413    517.171    528.304    517.171    518.454    517.171
 78.670    499.845    529.545    -29.701    517.196    528.287    517.196    518.454    517.196
 78.770    515.755    529.611    -13.856    517.219    528.375    517.219    518.454    517.219
 78.870    549.000    529.783     19.217    517.242    528.568    517.242    518.456    517.242
 78.970    564.000    530.102     33.898    517.263    528.904    517.263    518.459    517.263
 79.070    506.663    530.630    -23.968    517.283    529.448    517.283    518.464    517.283
 79.170    504.000    531.378    -27.378    517.302    530.206    517.302    518.472    517.302
 79.270    504.000    532.371    -28.371    517.320    531.206    517.320    518.482    517.320
 79.370    547.000    533.638     13.362    517.337    532.475    517.337    518.497    517.337
 79.470    531.000    535.206     -4.206    517.353    534.038    517.353    518.517    517.353
 79.570    569.992    537.104     32.888    517.367    535.925    517.367    518.542    517.367
 79.670    539.000    539.381     -0.381    517.381    538.182    517.381    518.575    517.381
 79.770    537.161    542.120     -4.959    517.393    540.893    517.393    518.615    517.393
 79.870    582.908    545.458     37.451    517.405    544.193    517.405    518.663    517.405
 79.970    559.651    549.615     10.035    517.415    548.306    517.415    518.719    517.415
 80.070    524.000    554.922    -30.922    517.424    553.560    517.424    518.781    517.424
 80.170    533.000    561.813    -28.813    517.432    560.394    517.432    518.848    517.432
 80.270    537.000    570.782    -33.782    517.439    569.304    517.439    518.916    517.439
 80.370    593.000    582.283     10.717    517.444    580.749    517.444    518.981    517.444
 80.470    548.251    596.612    -48.361    517.449    595.030    517.449    519.036    517.449
 80.570    634.000    613.793     20.207    517.452    612.178    517.452    519.076    517.452
 80.670    611.053    633.492    -22.439    517.454    631.867    517.454    519.094    517.454
 80.770    672.000    654.968     17.032    517.455    653.358    517.455    519.086    517.455
 80.870    691.703    677.095     14.607    517.455    675.525    517.455    519.052    517.455
 80.970    682.427    698.481    -16.054    517.454    696.972    517.454    518.995    517.454
 81.070    686.598    717.678    -31.079    517.451    716.245    517.451    518.923    517.451
 81.170    754.914    733.378     21.536    517.448    732.031    517.448    518.841    517.448
 81.270    753.000    744.535      8.465    517.443    743.274    517.443    518.756    517.443
 81.370    706.309    750.441    -44.133    517.437    749.265    517.437    518.671    517.437
 81.470    755.000    750.818      4.182    517.430    749.719    517.430    518.590    517.430
 81.570    775.982    745.825     30.157    517.421    744.796    517.421    518.516    517.421
 81.670    750.643    736.006     14.637    517.412    735.036    517.412    518.449    517.412
 81.770    750.000    722.241     27.759    517.401    721.321    517.401    518.389    517.401
 81.870    699.000    705.712     -6.712    517.389    704.831    517.389    518.336    517.389
 81.970    642.468    687.740    -45.271    517.375    686.890    517.375    518.290    517.375
 82.070    698.756    669.512     29.244    517.361    668.686    517.361    518.249    517.361
 82.170    599.042    651.871    -52.829    517.345    651.063    517.345    518.212    517.345
 82.270    578.000    635.268    -57.268    517.329    634.473    517.329    518.178    517.329
 82.370    614.432    619.875     -5.443    517.311    619.089    517.311    518.146    517.311
 82.470    593.615    605.767    -12.152    517.291    604.987    517.291    518.116    517.291
 82.570    569.056    593.050    -23.994    517.271    592.272    517.271    518.087    517.271
 82.670    573.000    581.881     -8.881    517.249    581.104    517.249    518.058    517.249
 82.770    556.394    572.433    -16.039    517.226    571.656    517.226    518.029    517.226
 82.870    533.086    564.859    -31.772    517.202    564.080    517.202    517.999    517.202
 82.970    532.090    559.270    -27.180    517.176    558.488    517.176    517.969    517.176
 83.070    523.000    555.729    -32.729    517.150    554.944    517.150    517.939    517.150
 83.170    591.049    554.230     36.819    517.122    553.441    517.122    517.908    517.122
 83.270    531.000    554.678    -23.678    517.093    553.884    517.093    517.876    517.093
 83.370    525.274    556.868    -31.594    517.062    556.070    517.062    517.843    517.062
 83.470    533.102    560.478    -27.375    517.030    559.674    517.030    517.809    517.030
 83.570    564.000    565.058     -1.058    516.998    564.249    516.998    517.775    516.998
 83.670    550.000    570.049    -20.049    516.963    569.235    516.963    517.740    516.963
 83.770    579.315    574.805      4.509    516.928    573.988    516.928    517.703    516.928
 83.870    543.000    578.646    -35.646    516.891    577.826    516.891    517.666    516.891
 83.970    583.000    580.943      2.057    516.853    580.122    516.853    517.628    516.853
 84.070    613.000    581.254     31.746    516.814    580.434    516.814    517.589    516.814
 84.170    627.230    579.448     47.783    516.774    578.630    516.774    517.549    516.774
 84.270    553.000    575.734    -22.734    516.732    574.920    516.732    517.508    516.732
 84.370    532.057    570.582    -38.524    516.689    569.771    516.689    517.466    516.689
 84.470    567.000    564.567      2.433    516.645    563.760    516.645    517.423    516.645
 84.570    536.764    558.253    -21.488    516.599    557.450    516.599    517.379    516.599
 84.670    549.293    552.116     -2.823    516.552    551.316    516.552    517.334    516.552
 84.770    507.931    546.513    -38.582    516.504    545.715    516.504    517.288    516.504
 84.870    524.000    541.671    -17.671    516.455    540.873    516.455    517.241    516.455
 84.970    498.723    537.692    -38.969    516.405    536.894    516.405    517.193    516.405
 85.070    489.201    534.578    -45.377    516.353    533.779    516.353    517.145    516.353
 85.170    526.000    532.260     -6.260    516.299    531.459    516.299    517.095    516.299
 85.270    537.000    530.629      6.371    516.245    529.825    516.245    517.044    516.245
 85.370    538.000    529.565      8.435    516.189    528.758    516.189    516.992    516.189
 85.470    557.000    528.960     28.040    516.132    528.149    516.132    516.939    516.132
 85.570    545.431    528.732     16.699    516.074    527.917    516.074    516.885    516.074
 85.670    507.746    528.838    -21.092    516.015    528.017    516.015    516.831    516.015
 85.770    547.000    529.272     17.728    515.954    528.445    515.954    516.775    515.954
 85.870    509.000    530.075    -21.075    515.892    529.241    515.892    516.718    515.892
 85.970    524.934    531.329     -6.395    515.828    530.488    515.828    516.660    515.828
 86.070    555.000    533.160     21.840    515.764    532.310    515.764    516.602    515.764
 86.170    554.000    535.730     18.270    515.698    534.870    515.698    516.542    515.698
 86.270    511.000    539.226    -28.226    515.630    538.355    515.630    516.482    515.630
 86.370    529.000    543.841    -14.841    515.562    542.957    515.562    516.421    515.562
 86.470    511.000    549.744    -38.744    515.492    548.845    515.492    516.358    515.492
 86.570    617.000    557.044     59.956    515.421    556.128    515.421    516.295    515.421
 86.670    562.000    565.747     -3.747    515.349    564.812    515.349    516.231    515.349
 86.770    571.000    575.707     -4.707    515.275    574.752    515.275    516.166    515.275
 86.870    580.715    586.629     -5.914    515.200    585.653    515.200    516.101    515.200
 86.970    627.930    598.017     29.913    515.124    597.019    515.124    516.034    515.124
 87.070    685.000    609.173     75.827    515.046    608.154    515.046    515.967    515.046
 87.170    633.570    619.251     14.319    514.968    618.213    514.968    515.899    514.968
 87.270    604.782    627.327    -22.545    514.888    626.272    514.888    515.830    514.888
 87.370    621.000    632.543    -11.543    514.806    631.474    514.806    515.760    514.806
 87.470    591.102    634.304    -43.203    514.724    633.226    514.724    515.690    514.724
 87.570    637.000    632.459      4.541    514.640    631.375    514.640    515.619    514.640
 87.670    648.000    627.341     20.659    514.555    626.253    514.555    515.548    514.555
 87.770    622.092    619.663      2.429    514.468    618.573    514.468    515.476    514.468
 87.870    669.000    610.345     58.655    514.381    609.254    514.381    515.403    514.381
 87.970    636.097    600.357     35.740    514.292    599.264    514.292    515.330    514.292
 88.070    606.000    590.615     15.385    514.201    589.517    514.201    515.256    514.201
 88.170    609.000    581.910     27.090    514.110    580.807    514.110    515.182    514.110
 88.270    635.000    574.866     60.134    514.017    573.755    514.017    515.108    514.017
 88.370    581.000    569.913     11.087    513.923    568.792    513.923    515.033    513.923
 88.470    578.000    567.281     10.719    513.828    566.148    513.828    514.958    513.828
 88.570    561.000    567.003     -6.003    513.731    565.857    513.731    514.883    513.731
 88.670    626.000    568.928     57.072    513.633    567.767    513.633    514.808    513.633
 88.770    618.000    572.738     45.262    513.534    571.561    513.534    514.733    513.534
 88.870    601.524    577.970     23.554    513.434    576.775    513.434    514.658    513.434
 88.970    616.000    584.037     31.963    513.332    582.822    513.332    514.583    513.332
 89.070    615.000    590.257     24.743    513.230    589.021    513.230    514.509    513.230
 89.170    583.000    595.894    -12.894    513.126    594.635    513.126    514.435    513.126
 89.270    618.000    600.220     17.780    513.020    598.935    513.020    514.362    513.020
 89.370    597.000    602.608     -5.608    512.914    601.293    512.914    514.290    512.914
 89.470    593.556    602.656     -9.100    512.806    601.307    512.806    514.218    512.806
 89.570    591.000    600.280     -9.280    512.697    598.893    512.697    514.148    512.697
 89.670    560.000    595.726    -35.726    512.587    594.295    512.587    514.079    512.587
 89.770    575.340    589.479    -14.140    512.475    588.000    512.475    514.012    512.475
 89.870    552.000    582.136    -30.136    512.362    580.605    512.362    513.945    512.362
 89.970    539.000    574.297    -35.297    512.248    572.709    512.248    513.882    512.248
 90.070    548.783    566.492    -17.709    512.133    564.842    512.133    513.822    512.133
 90.170    551.000    559.145     -8.145    512.017    557.428    512.017    513.765    512.017
 90.270    522.000    552.556    -30.556    511.899    550.769    511.899    513.711    511.899
 90.370    555.000    546.908      8.092    511.780    545.045    511.780    513.663    511.780
 90.470    573.910    542.271     31.639    511.660    540.327    511.660    513.619    511.660
 90.570    528.000    538.628    -10.628    511.539    536.596    511.539    513.582    511.539
 90.670    517.000    535.901    -18.901    511.417    533.772    511.417    513.553    511.417
 90.770    514.000    533.975    -19.975    511.293    531.739    511.293    513.534    511.293
 90.870    510.000    532.729    -22.729    511.168    530.371    511.168    513.528    511.168
 90.970    524.095    532.049     -7.955    511.042    529.553    511.042    513.540    511.042
 91.070    498.000    531.851    -33.851    510.915    529.193    510.915    513.573    510.915
 91.170    563.071    532.077     30.994    510.787    529.226    510.787    513.637    510.787
 91.270    500.000    532.682    -32.682    510.657    529.598    510.657    513.739    510.657
 91.370    487.142    533.768    -46.626    510.526    530.398    510.526    513.894    510.526
 91.470    555.000    535.408     19.592    510.394    531.682    510.394    514.116    510.394
 91.570    557.000    537.715     19.285    510.261    533.545    510.261    514.426    510.261
 91.670    501.260    540.862    -39.602    510.127    536.135    510.127    514.846    510.127
 91.770    544.309    545.065     -0.756    509.992    539.641    509.992    515.406    509.992
 91.870    535.726    550.569    -14.843    509.855    544.279    509.855    516.133    509.855
 91.970    577.000    557.634     19.366    509.718    550.274    509.718    517.060    509.718
 92.070    548.754    566.507    -17.753    509.579    557.846    509.579    518.219    509.579
 92.170    520.000    577.405    -57.405    509.439    567.180    509.439    519.637    509.439
 92.270    610.000    590.479     19.521    509.298    578.408    509.298    521.337    509.298
 92.370    546.000    605.774    -59.774    509.156    591.561    509.156    523.329    509.156
 92.470    664.000    623.208     40.792    509.012    606.560    509.012    525.614    509.012
 92.570    645.000    642.547      2.453    508.868    623.191    508.868    528.170    508.868
 92.670    659.000    663.392     -4.392    508.723    641.093    508.723    530.960    508.723
 92.770    706.000    685.169     20.831    508.576    659.759    508.576    533.918    508.576
 92.870    672.089    707.152    -35.063    508.428    678.553    508.428    536.954    508.428
 92.970    729.000    728.516      0.484    508.280    696.772    508.280    539.946    508.280
 93.070    777.000    748.436     28.564    508.130    713.744    508.130    542.742    508.130
 93.170    805.000    766.230     38.770    507.979    728.964    507.979    545.164    507.979
 93.270    806.858    781.477     25.380    507.827    742.200    507.827    547.023    507.827
 93.370    788.000    794.058     -6.058    507.674    753.509    507.674    548.143    507.674
 93.470    834.263    804.128     30.135    507.520    763.170    507.520    548.399    507.520
 93.570    840.000    812.031     27.969    507.365    771.569    507.365    547.751    507.365
 93.670    821.720    818.221      3.499    507.209    779.104    507.209    546.253    507.209
 93.770    835.000    823.257     11.743    507.051    786.200    507.051    544.038    507.051
 93.870    845.000    827.803     17.197    506.893    793.342    506.893    541.287    506.893
 93.970    875.000    832.599     42.401    506.734    801.080    506.734    538.188    506.734
 94.070    843.000    838.364      4.636    506.574    809.956    506.574    534.918    506.574
 94.170    858.000    845.619     12.381    506.413    820.346    506.413    531.624    506.413
 94.270    837.000    854.513    -17.513    506.250    832.281    506.250    528.423    506.250
 94.370    862.387    864.709     -2.322    506.087    845.338    506.087    525.402    506.087
 94.470    883.307    875.358      7.949    505.923    858.606    505.923    522.622    505.923
 94.570    879.000    885.159     -6.159    505.758    870.748    505.758    520.120    505.758
 94.670    949.000    892.498     56.502    505.592    880.138    505.592    517.909    505.592
 94.770    913.000    895.691     17.309    505.425    885.088    505.425    515.993    505.425
 94.870    876.350    893.292    -16.942    505.257    884.164    505.257    514.359    505.257
 94.970    888.000    884.441      3.559    505.088    876.531    505.088    512.981    505.088
 95.070    946.000    869.102     76.898    504.918    862.179    504.918    511.832    504.918
 95.170    827.697    848.079    -20.382    504.747    841.945    504.747    510.881    504.747
 95.270    791.440    822.831    -31.391    504.575    817.317    504.575    510.095    504.575
 95.370    818.000    795.196     22.804    504.403    790.162    504.403    509.445    504.403
 95.470    783.000    767.143     15.857    504.229    762.478    504.229    508.905    504.229
 95.570    783.000    740.611     42.389    504.055    736.225    504.055    508.452    504.055
 95.670    713.000    717.404     -4.404    503.880    713.225    503.880    508.067    503.880
 95.770    723.000    699.122     23.878    503.704    695.096    503.704    507.735    503.704
 95.870    739.170    687.207     51.963    503.527    683.290    503.527    507.443    503.527
 95.970    693.000    682.851     10.149    503.349    679.010    503.349    507.183    503.349
 96.070    749.000    687.051     61.949    503.170    683.258    503.170    506.949    503.170
 96.170    721.789    700.615     21.174    502.991    696.846    502.991    506.734    502.991
 96.270    697.000    724.143    -27.143    502.810    720.382    502.810    506.536    502.810
 96.370    714.534    757.989    -43.456    502.629    754.219    502.629    506.353    502.629
 96.470    840.000    802.184     37.816    502.447    798.391    502.447    506.182    502.447
 96.570    840.293    856.340    -16.047    502.265    852.512    502.265    506.023    502.265
 96.670    951.000    919.533     31.467    502.081    915.658    502.081    505.875    502.081
 96.770    988.527    990.211     -1.684    501.897    986.280    501.897    505.738    501.897
 96.870   1002.680   1066.134    -63.454    501.712   1062.137    501.712    505.611    501.712
 96.970   1123.000   1144.347    -21.347    501.527   1140.276    501.527    505.494    501.527
 97.070   1164.541   1221.222    -56.681    501.340   1217.070    501.340    505.389    501.340
 97.170   1285.088   1292.580     -7.492    501.153   1288.339    501.153    505.294    501.153
 97.270   1338.710   1353.936    -15.226    500.965   1349.599    500.965    505.211    500.965
 97.370   1394.862   1400.931     -6.068    500.777   1396.490    500.777    505.140    500.777
 97.470   1458.238   1429.941     28.296    500.587   1425.387    500.587    505.083    500.587
 97.570   1400.878   1438.745    -37.867    500.397   1434.065    500.397    505.040    500.397
 97.670   1499.000   1426.975     72.025    500.207   1422.153    500.207    505.014    500.207
 97.770   1331.000   1396.135    -65.135    500.016   1391.152    500.016    505.005    500.016
 97.870   1396.000   1349.205     46.795    499.824   1344.036    499.824    505.017    499.824
 97.970   1315.259   1290.044     25.215    499.631   1284.661    499.631    505.053    499.631
 98.070   1195.000   1222.857    -27.857    499.438   1217.227    499.438    505.118    499.438
 98.170   1158.000   1151.805      6.195    499.244   1145.888    499.244    505.217    499.244
 98.270   1098.000   1080.758     17.242    499.050   1074.505    499.050    505.360    499.050
 98.370    986.192   1013.145    -26.953    498.855   1006.498    498.855    505.557    498.855
 98.470    944.299    951.877     -7.578    498.660    944.763    498.660    505.824    498.660
 98.570    859.000    899.328    -40.328    498.464    891.654    498.464    506.181    498.464
 98.670    867.156    857.362      9.794    498.267    849.011    498.267    506.653    498.267
 98.770    806.286    827.390    -21.103    498.070    818.212    498.070    507.273    498.070
 98.870    862.753    810.448     52.305    497.873    800.252    497.873    508.083    497.873
 98.970    828.000    807.279     20.721    497.675    795.825    497.675    509.134    497.675
 99.070    809.583    818.397     -8.814    497.476    805.382    497.476    510.487    497.476
 99.170    835.000    844.122     -9.122    497.277    829.172    497.277    512.214    497.277
 99.270    891.000    884.567      6.433    497.078    867.231    497.078    514.394    497.078
 99.370    987.000    939.590     47.410    496.878    919.326    496.878    517.116    496.878
 99.470   1007.000   1008.756     -1.756    496.677    984.933    496.677    520.471    496.677
 99.570   1039.000   1091.183    -52.183    496.477   1063.080    496.477    524.551    496.477
 99.670   1156.000   1185.455    -29.455    496.275   1152.265    496.275    529.440    496.275
 99.770   1225.000   1289.538    -64.538    496.074   1250.386    496.074    535.207    496.074
 99.870   1351.000   1400.709    -49.709    495.872   1354.674    495.872    541.898    495.872
 99.970   1474.000   1515.540    -41.540    495.670   1461.686    495.670    549.530    495.670
100.070   1686.904   1629.974     56.930    495.467   1567.389    495.467    558.076    495.467
100.170   1793.000   1739.527     53.473    495.264   1667.376    495.264    567.462    495.264
100.270   1854.000   1839.636     14.364    495.061   1757.211    495.061    577.558    495.061
100.370   1915.000   1926.084    -11.084    494.857   1832.870    494.857    588.169    494.857
100.470   2041.000   1995.361     45.639    494.653   1891.102    494.653    599.036    494.653
100.570   1958.382   2044.831    -86.449    494.449   1929.605    494.449    609.824    494.449
100.670   2114.000   2072.707     41.293    494.245   1946.994    494.245    620.128    494.245
100.770   2091.000   2077.979     13.021    494.040   1942.728    494.040    629.478    494.040
100.870   2107.000   2060.484     46.516    493.835   1917.156    493.835    637.364    493.835
100.970   2076.000   2021.148     54.852    493.630   1871.711    493.630    643.275    493.630
101.070   1907.449   1962.219    -54.769    493.425   1809.080    493.425    646.775    493.425
101.170   1923.000   1887.283     35.717    493.220   1733.141    493.220    647.570    493.220
101.270   1863.000   1800.957     62.043    493.014   1648.593    493.014    645.579    493.014
101.370   1707.000   1708.345     -1.345    492.808   1560.394    492.808    640.949    492.808
101.470   1616.745   1614.453      2.292    492.603   1473.211    492.603    634.020    492.603
101.570   1566.000   1523.714     42.286    492.397   1391.011    492.397    625.260    492.397
101.670   1494.800   1439.683     55.117    492.191   1316.832    492.191    615.185    492.191
101.770   1405.448   1364.872     40.575    491.985   1252.686    491.985    604.298    491.985
101.870   1295.000   1300.709     -5.709    491.778   1199.548    491.778    593.054    491.778
101.970   1251.000   1247.568      3.432    491.572   1157.407    491.572    581.835    491.572
102.070   1154.000   1204.864    -50.864    491.366   1125.366    491.366    570.956    491.366
102.170   1147.000   1171.190    -24.190    491.160   1101.778    491.160    560.656    491.160
102.270   1167.673   1144.496     23.177    490.954   1084.419    490.954    551.111    490.954
102.370   1164.000   1122.315     41.685    490.748   1070.707    490.748    542.433    490.748
102.470   1077.000   1102.036    -25.036    490.542   1057.973    490.542    534.683    490.542
102.570   1102.000   1081.225     20.775    490.335   1043.767    490.335    527.872    490.335
102.670   1057.250   1057.935     -0.684    490.130   1026.168    490.130    521.977    490.130
102.770   1026.000   1030.941     -4.941    489.924   1004.005    489.924    516.942    489.924
102.870    987.712    999.821    -12.109    489.718    976.929    489.718    512.693    489.718
102.970    933.000    964.865    -31.865    489.512    945.317    489.512    509.143    489.512
103.070    929.000    926.876      2.124    489.307    910.063    489.307    506.200    489.307
103.170    940.244    886.948     53.296    489.102    872.352    489.102    503.773    489.102
103.270    890.873    846.276     44.597    488.897    833.467    488.897    501.776    488.897
103.370    773.882    806.027    -32.145    488.692    794.652    488.692    500.132    488.692
103.470    743.000    767.252    -24.252    488.488    757.027    488.488    498.771    488.488
103.570    737.000    730.825      6.175    488.283    721.525    488.283    497.636    488.283
103.670    703.000    697.413      5.587    488.079    688.860    488.079    496.678    488.079
103.770    695.000    667.462     27.538    487.876    659.517    487.876    495.858    487.876
103.870    669.000    641.197     27.803    487.672    633.755    487.672    495.147    487.672
103.970    596.000    618.650    -22.650    487.469    611.626    487.469    494.518    487.469
104.070    592.000    599.687     -7.687    487.267    593.019    487.267    493.956    487.267
104.170    543.096    584.049    -40.953    487.064    577.685    487.064    493.444    487.064
104.270    586.000    571.408     14.592    486.862    565.309    486.862    492.974    486.862
104.370    531.000    561.382    -30.382    486.661    555.515    486.661    492.537    486.661
104.470    570.000    553.582     16.418    486.460    547.921    486.460    492.127    486.460
104.570    546.000    547.641     -1.641    486.259    542.163    486.259    491.741    486.259
104.670    544.836    543.229      1.607    486.059    537.916    486.059    491.375    486.059
104.770    561.000    540.067     20.933    485.860    534.901    485.860    491.026    485.860
104.870    581.699    537.931     43.769    485.661    532.897    485.661    490.694    485.661
104.970    545.000    536.650      8.350    485.462    531.735    485.462    490.375    485.462
105.070    528.000    536.110     -8.110    485.264    531.302    485.264    490.069    485.264
105.170    500.289    536.247    -35.958    485.067    531.534    485.067    489.775    485.067
105.270    522.612    537.042    -14.430    484.870    532.414    484.870    489.491    484.870
105.370    515.516    538.515    -22.999    484.674    533.963    484.674    489.218    484.674
105.470    600.000    540.722     59.278    484.479    536.237    484.479    488.955    484.479
105.570    521.000    543.747    -22.747    484.284    539.319    484.284    488.700    484.284
105.670    540.000    547.687     -7.687    484.090    543.309    484.090    488.454    484.090
105.770    578.000    552.650     25.350    483.897    548.314    483.897    488.217    483.897
105.870    607.629    558.732     48.898    483.705    554.430    483.705    487.986    483.705
105.970    604.000    566.003     37.997    483.513    561.729    483.513    487.764    483.513
106.070    565.000    574.496     -9.496    483.322    570.244    483.322    487.548    483.322
106.170    545.000    584.192    -39.192    483.132    579.956    483.132    487.339    483.132
106.270    590.000    595.010     -5.010    482.943    590.783    482.943    487.137    482.943
106.370    650.000    606.799     43.201    482.754    602.576    482.754    486.941    482.754
106.470    595.370    619.338    -23.968    482.567    615.114    482.567    486.752    482.567
106.570    576.000    632.336    -56.336    482.380    628.105    482.380    486.569    482.380
106.670    622.000    645.438    -23.438    482.195    641.197    482.195    486.392    482.195
106.770    636.000    658.241    -22.241    482.010    653.983    482.010    486.222    482.010
106.870    637.822    670.305    -32.483    481.826    666.028    481.826    486.057    481.826
106.970    654.000    681.187    -27.187    481.644    676.887    481.644    485.898    481.644
107.070    657.000    690.474    -33.474    481.462    686.150    481.462    485.740    481.462
107.170    699.000    697.848      1.152    481.282    693.493    481.282    485.593    481.282
107.270    678.000    703.121    -25.121    481.102    698.729    481.102    485.453    481.102
107.370    755.373    706.284     49.089    480.924    701.852    480.924    485.319    480.924
107.470    662.000    707.522    -45.522    480.747    703.044    480.747    485.191    480.747
107.570    688.000    707.176    -19.176    480.571    702.648    480.571    485.070    480.571
107.670    709.000    705.693      3.307    480.396    701.109    480.396    484.955    480.396
107.770    690.000    703.552    -13.552    480.223    698.908    480.223    484.847    480.223
107.870    687.000    701.208    -14.208    480.050    696.497    480.050    484.746    480.050
107.970    732.980    699.039     33.941    479.879    694.256    479.879    484.651    479.879
108.070    677.406    697.316    -19.909    479.710    692.464    479.710    484.554    479.710
108.170    696.000    696.210     -0.210    479.541    691.275    479.541    484.473    479.541
108.270    659.000    695.740    -36.740    479.374    690.713    479.374    484.402    479.374
108.370    715.000    695.799     19.201    479.209    690.673    479.209    484.338    479.209
108.470    652.766    696.162    -43.395    479.045    690.930    479.045    484.283    479.045
108.570    700.141    696.503      3.638    478.882    691.158    478.882    484.237    478.882
108.670    736.321    696.428     39.893    478.720    690.962    478.720    484.200    478.720
108.770    732.501    695.518     36.982    478.561    689.923    478.561    484.172    478.561
108.870    718.000    693.388     24.612    478.402    687.654    478.402    484.155    478.402
108.970    654.000    689.741    -35.741    478.246    683.859    478.246    484.148    478.246
109.070    654.000    684.416    -30.416    478.091    678.377    478.091    484.152    478.091
109.170    671.061    677.410     -6.349    477.937    671.202    477.937    484.168    477.937
109.270    657.000    668.862    -11.862    477.785    662.474    477.785    484.196    477.785
109.370    649.839    659.028     -9.189    477.635    652.448    477.635    484.238    477.635
109.470    655.000    648.230      6.770    477.486    641.446    477.486    484.293    477.486
109.570    638.000    636.825      1.175    477.340    629.822    477.340    484.364    477.340
109.670    633.000    625.163      7.837    477.194    617.927    477.194    484.450    477.194
109.770    643.000    613.557     29.443    477.051    606.072    477.051    484.554    477.051
109.870    623.000    602.332     20.668    476.910    594.582    476.910    484.676    476.910
109.970    613.785    591.761     22.025    476.770    583.726    476.770    484.819    476.770
110.070    648.000    582.023     65.977    476.632    573.684    476.632    484.983    476.632
110.170    603.000    573.266     29.734    476.497    564.600    476.497    485.172    476.497
110.270    583.000    565.584     17.416    476.363    556.566    476.363    485.388    476.363
110.370    574.804    559.023     15.781    476.231    549.624    476.231    485.635    476.231
110.470    557.000    553.587      3.413    476.101    543.774    476.101    485.917    476.101
110.570    527.000    549.242    -22.242    475.973    538.977    475.973    486.240    475.973
110.670    554.000    545.928      8.072    475.847    535.166    475.847    486.609    475.847
110.770    511.000    543.568    -32.568    475.723    532.255    475.723    487.035    475.723
110.870    533.267    542.074     -8.807    475.602    530.147    475.602    487.526    475.602
110.970    563.000    541.358     21.642    475.482    528.739    475.482    488.098    475.482
111.070    584.888    541.335     43.554    475.365    527.928    475.365    488.767    475.365
111.170    567.000    541.928     25.072    475.250    527.619    475.250    489.553    475.250
111.270    590.000    543.076     46.924    475.137    527.724    475.137    490.482    475.137
111.370    544.000    544.731     -0.731    475.026    528.163    475.026    491.587    475.026
111.470    582.000    546.862     35.138    474.918    528.869    474.918    492.904    474.918
111.570    539.000    549.459    -10.459    474.812    529.784    474.812    494.478    474.812
111.670    535.266    552.528    -17.262    474.708    530.864    474.708    496.363    474.708
111.770    602.000    556.095     45.905    474.607    532.072    474.607    498.620    474.607
111.870    517.828    560.206    -42.378    474.509    533.385    474.509    501.319    474.509
111.970    564.685    564.925     -0.240    474.412    534.788    474.412    504.539    474.412
112.070    602.000    570.336     31.664    474.319    536.278    474.319    508.365    474.319
112.170    555.000    576.539    -21.539    474.227    537.864    474.227    512.891    474.227
112.270    552.741    583.647    -30.906    474.139    539.559    474.139    518.215    474.139
112.370    590.406    591.783     -1.377    474.053    541.388    474.053    524.435    474.053
112.470    551.000    601.076    -50.076    473.970    543.381    473.970    531.651    473.970
112.570    598.000    611.660    -13.660    473.889    545.580    473.889    539.955    473.889
112.670    575.000    623.665    -48.665    473.811    548.032    473.811    549.429    473.811
112.770    605.000    637.221    -32.221    473.736    550.799    473.736    560.142    473.736
112.870    650.000    652.452     -2.452    473.663    553.960    473.663    572.137    473.663
112.970    648.000    669.476    -21.476    473.594    557.616    473.594    585.435    473.594
113.070    668.808    688.411    -19.604    473.527    561.900    473.527    600.018    473.527
113.170    723.000    709.379     13.621    473.463    566.984    473.463    615.836    473.463
113.270    728.000    732.511     -4.511    473.402    573.100    473.402    632.789    473.402
113.370    765.000    757.963      7.037    473.344    580.548    473.344    650.733    473.344
113.470    756.135    785.932    -29.797    473.289    589.721    473.289    669.470    473.289
113.570    790.000    816.673    -26.673    473.237    601.129    473.237    688.747    473.237
113.670    818.239    850.524    -32.286    473.189    615.420    473.189    708.253    473.189
113.770    876.000    887.936    -11.936    473.143    633.414    473.143    727.619    473.143
113.870    944.000    929.496     14.504    473.100    656.127    473.100    746.415    473.100
113.970    932.951    975.963    -43.012    473.061    684.801    473.061    764.160    473.061
114.070   1038.000   1028.302      9.698    473.025    720.924    473.025    780.327    473.025
114.170   1095.000   1087.716      7.284    472.992    766.249    472.992    794.369    472.992
114.270   1224.837   1155.683     69.154    472.962    822.790    472.962    805.748    472.962
114.370   1247.525   1233.989     13.537    472.936    892.817    472.936    813.980    472.936
114.470   1287.000   1324.738    -37.738    472.913    978.815    472.913    818.684    472.913
114.570   1422.000   1430.345     -8.345    472.893   1083.428    472.893    819.629    472.893
114.670   1555.000   1553.477      1.523    472.877   1209.371    472.877    816.769    472.877
114.770   1703.000   1696.942      6.058    472.864   1359.313    472.864    810.241    472.864
114.870   1852.257   1863.526    -11.270    472.855   1535.729    472.855    800.357    472.855
114.970   1966.108   2055.779    -89.671    472.850   1740.733    472.850    787.554    472.850
115.070   2384.000   2275.773    108.227    472.848   1975.880    472.848    772.349    472.848
115.170   2554.000   2524.858     29.142    472.849   2241.972    472.849    755.291    472.849
115.270   2853.696   2803.420     50.276    472.855   2538.857    472.855    736.920    472.855
115.370   3054.000   3110.676    -56.676    472.864   2865.247    472.864    717.742    472.864
115.470   3332.000   3444.505   -112.505    472.877   3218.567    472.877    698.214    472.877
115.570   3699.000   3801.334   -102.334    472.893   3594.845    472.893    678.737    472.893
115.670   4115.970   4176.082    -60.112    472.914   3988.662    472.914    659.652    472.914
115.770   4528.830   4562.166    -33.337    472.938   4393.155    472.938    641.240    472.938
115.870   4990.346   4951.582     38.764    472.966   4800.096    472.966    623.726    472.966
115.970   5407.098   5335.052     72.046    472.998   5200.040    472.998    607.283    472.998
116.070   5539.000   5702.248   -163.248    473.035   5582.539    473.035    592.030    473.035
116.170   6006.000   6042.116    -36.116    473.075   5936.465    473.075    578.044    473.075
116.270   6176.000   6343.300   -167.300    473.119   6250.428    473.119    565.358    473.119
116.370   6633.000   6594.714     38.286    473.168   6513.346    473.168    553.969    473.168
116.470   6866.000   6786.261     79.739    473.220   6715.153    473.220    543.846    473.220
116.570   7054.000   6909.654    144.346    473.277   6847.615    473.277    534.931    473.277
116.670   6793.824   6959.221   -165.396    473.338   6905.132    473.338    527.150    473.338
116.770   7010.000   6932.558     77.442    473.404   6885.384    473.404    520.413    473.404
116.870   6922.000   6830.835     91.165    473.473   6789.630    473.473    514.626    473.473
116.970   6736.000   6658.545     77.455    473.547   6622.459    473.547    509.687    473.547
117.070   6232.000   6423.034   -191.034    473.626   6391.311    473.626    505.500    473.626
117.170   6255.529   6133.705    121.824    473.709   6105.682    473.709    501.967    473.709
117.270   5670.000   5801.192   -131.192    473.796   5776.292    473.796    498.999    473.796
117.370   5436.000   5436.613     -0.613    473.888   5414.343    473.888    496.515    473.888
117.470   4964.853   5050.971    -86.117    473.985   5030.910    473.985    494.438    473.985
117.570   4633.000   4654.690    -21.690    474.086   4636.486    474.086    492.705    474.086
117.670   4365.000   4257.282    107.718    474.192   4240.638    474.192    491.257    474.192
117.770   4020.000   3867.100    152.900    474.303   3851.772    474.303    490.045    474.303
117.870   3689.000   3491.185    197.815    474.418   3476.973    474.418    489.030    474.418
117.970   3152.980   3135.183     17.797    474.538   3121.921    474.538    488.175    474.538
118.070   2847.581   2803.330     44.251    474.663   2790.885    474.663    487.453    474.663
118.170   2559.000   2498.508     60.492    474.793   2486.771    474.793    486.840    474.793
118.270   2203.610   2222.349    -18.739    474.928   2211.232    474.928    486.319    474.928
118.370   2042.000   1975.378     66.622    475.068   1964.810    475.068    485.873    475.068
118.470   1738.233   1757.186    -18.953    475.213   1747.108    475.213    485.491    475.213
118.570   1570.000   1566.607      3.393    475.363   1556.973    475.363    485.163    475.363
118.670   1335.000   1401.904    -66.904    475.518   1392.675    475.518    484.883    475.518
118.770   1206.175   1260.946    -54.771    475.679   1252.088    475.679    484.644    475.679
118.870   1194.238   1141.367     52.871    475.844   1132.853    475.844    484.441    475.844
118.970   1068.000   1040.710     27.290    476.015   1032.517    476.015    484.271    476.015
119.070    927.000    956.542    -29.542    476.191    948.649    476.191    484.131    476.191
119.170    879.000    886.547     -7.547    476.373    878.935    476.373    484.019    476.373
119.270    868.884    828.584     40.301    476.560    821.234    476.560    483.933    476.560
119.370    827.000    780.727     46.273    476.752    773.624    476.752    483.871    476.752
119.470    685.000    741.286    -56.286    476.950    734.414    476.950    483.832    476.950
119.570    763.483    708.805     54.678    477.154    702.148    477.154    483.817    477.154
119.670    651.671    682.053    -30.382    477.363    675.596    477.363    483.823    477.363
119.770    604.000    660.004    -56.004    477.577    653.732    477.577    483.851    477.577
119.870    637.000    641.816     -4.816    477.798    635.714    477.798    483.901    477.798
119.970    610.000    626.805    -16.805    478.024    620.857    478.024    483.972    478.024
120.070    652.000    614.420     37.580    478.256    608.612    478.256    484.065    478.256
120.170    614.525    604.225     10.300    478.494    598.540    478.494    484.180    478.494
120.270    579.000    595.873    -16.873    478.737    590.295    478.737    484.317    478.737
120.370    603.770    589.090     14.680    478.987    583.602    478.987    484.478    478.987
120.470    622.587    583.664     38.923    479.243    578.248    479.243    484.662    479.243
120.570    562.000    579.428    -17.428    479.504    574.066    479.504    484.870    479.504
120.670    529.611    576.253    -46.643    479.772    570.926    479.772    485.103    479.772
120.770    530.259    574.038    -43.779    480.046    568.726    480.046    485.363    480.046
120.870    555.000    572.703    -17.703    480.326    567.385    480.326    485.649    480.326
120.970    605.616    572.185     33.431    480.612    566.841    480.612    485.963    480.612
121.070    603.000    572.430     30.570    480.905    567.038    480.905    486.304    480.905
121.170    563.000    573.392    -10.392    481.204    567.931    481.204    486.674    481.204
121.270    551.306    575.026    -23.720    481.510    569.472    481.510    487.073    481.510
121.370    602.000    577.286     24.714    481.821    571.619    481.821    487.500    481.821
121.470    547.000    580.124    -33.124    482.140    574.321    482.140    487.956    482.140
121.570    597.000    583.483     13.517    482.465    577.524    482.465    488.439    482.465
121.670    567.183    587.303    -20.120    482.796    581.167    482.796    488.949    482.796
121.770    619.270    591.511     27.759    483.134    585.181    483.134    489.484    483.134
121.870    624.654    596.026     28.628    483.479    589.486    483.479    490.042    483.479
121.970    608.000    600.759      7.241    483.831    593.994    483.831    490.621    483.831
122.070    559.000    605.609    -46.609    484.189    598.608    484.189    491.218    484.189
122.170    653.000    610.469     42.531    484.555    603.225    484.555    491.829    484.555
122.270    622.000    615.224      6.776    484.927    607.733    484.927    492.451    484.927
122.370    663.149    619.755     43.394    485.306    612.020    485.306    493.078    485.306
122.470    634.344    623.944     10.400    485.693    615.970    485.693    493.705    485.693
122.570    609.674    627.674    -18.000    486.086    619.473    486.086    494.328    486.086
122.670    628.000    630.840     -2.840    486.487    622.430    486.487    494.939    486.487
122.770    636.908    633.351      3.557    486.894    624.756    486.894    495.534    486.894
122.870    670.249    635.137     35.111    487.309    626.388    487.309    496.104    487.309
122.970    623.000    636.157    -13.157    487.732    627.290    487.732    496.645    487.732
123.070    676.000    636.395     39.605    488.161    627.453    488.161    497.151    488.161
123.170    589.000    635.866    -46.866    488.598    626.894    488.598    497.617    488.598
123.270    650.000    634.610     15.390    489.043    625.657    489.043    498.042    489.043
123.370    662.000    632.687     29.313    489.495    623.803    489.495    498.424    489.495
123.470    629.000    630.173     -1.173    489.955    621.408    489.955    498.763    489.955
123.570    631.000    627.154      3.846    490.422    618.554    490.422    499.063    490.422
123.670    641.000    623.720     17.280    490.897    615.328    490.897    499.327    490.897
123.770    625.000    619.962      5.038    491.380    611.817    491.380    499.560    491.380
123.870    639.000    615.969     23.031    491.870    608.104    491.870    499.769    491.870
123.970    636.221    611.823     24.398    492.369    604.264    492.369    499.957    492.369
124.070    629.000    607.600     21.400    492.875    600.367    492.875    500.134    492.875
124.170    590.328    603.365    -13.036    493.389    596.472    493.389    500.306    493.389
124.270    569.138    599.170    -30.032    493.912    592.625    493.912    500.478    493.912
124.370    564.000    595.058    -31.058    494.442    588.864    494.442    500.654    494.442
124.470    606.000    591.057     14.943    494.981    585.214    494.981    500.839    494.981
124.570    607.000    587.187     19.813    495.528    581.690    495.528    501.037    495.528
124.670    617.000    583.458     33.542    496.083    578.299    496.083    501.252    496.083
124.770    600.000    579.872     20.128    496.646    575.040    496.646    501.487    496.646
124.870    587.000    576.425     10.575    497.218    571.906    497.218    501.744    497.218
124.970    607.772    573.108     34.664    497.799    568.887    497.799    502.025    497.799
