neutron_powder_diffraction_0077
R_wp: 4.595
Temperature (K): 778.853
Counts: 82693.00
Wavelength (Ã…): 2.52098
COMMENTS
Test file for demonstrating the .xyy file format in Reel1.0
END OF HEADER
   tth       Y_obs     Y_calc      Y_res    Background    Phase_1_Nuc    Phase_1_Mag    Phase_2_Nuc    Phase_2_Mag
  9.970    646.000    595.506     50.494    594.498    595.506    594.498    594.498    594.498
 10.070    563.967    596.305    -32.338    595.217    596.304    595.217    595.217    595.217
 10.170    620.000    597.100     22.900    595.922    597.100    595.922    595.922    595.922
 10.270    647.000    597.896     49.104    596.613    597.895    596.613    596.613    596.613
 10.370    660.000    598.694     61.306    597.291    598.693    597.291    597.291    597.291
 10.470    628.000    599.498     28.502    597.955    599.497    597.955    597.955    597.955
 10.570    591.474    600.313     -8.839    598.606    600.312    598.606    598.606    598.606
 10.670    666.000    601.145     64.855    599.244    601.144    599.244    599.244    599.244
 10.770    650.000    602.016     47.984    599.868    602.015    599.868    599.868    599.868
 10.870    624.730    603.047     21.683    600.479    603.046    600.479    600.479    600.479
 10.970    598.000    604.020     -6.020    601.077    604.018    601.077    601.077    601.077
 11.070    615.000    605.040      9.960    601.662    605.038    601.662    601.662    601.662
 11.170    654.000    606.159     47.841    602.235    606.157    602.235    602.235    602.235
 11.270    549.505    607.422    -57.917    602.794    607.420    602.794    602.794    602.794
 11.370    656.344    608.903     47.440    603.341    608.900    603.341    603.341    603.341
 11.470    611.253    610.740      0.513    603.876    610.736    603.876    603.876    603.876
 11.570    662.000    613.261     48.739    604.398    613.257    604.398    604.398    604.398
 11.670    655.000    617.321     37.679    604.908    617.314    604.908    604.908    604.908
 11.770    628.966    624.886      4.079    605.405    624.876    605.405    605.405    605.405
 11.870    689.000    639.436     49.564    605.890    639.417    605.890    605.890    605.890
 11.970    726.104    664.855     61.249    606.364    664.822    606.364    606.364    606.364
 12.070    642.112    701.664    -59.552    606.825    701.611    606.825    606.825    606.825
 12.170    762.000    741.139     20.861    607.275    741.064    607.275    607.275    607.275
 12.270    777.496    762.253     15.243    607.712    762.166    607.712    607.712    607.712
 12.370    732.000    748.655    -16.655    608.138    748.577    608.138    608.138    608.138
 12.470    662.000    712.296    -50.296    608.553    712.238    608.553    608.553    608.553
 12.570    694.071    674.859     19.213    608.956    674.822    608.956    608.956    608.956
 12.670    641.000    647.677     -6.677    609.348    647.656    609.348    609.348    609.348
 12.770    596.000    631.829    -35.829    609.728    631.816    609.728    609.728    609.728
 12.870    654.000    623.841     30.159    610.097    623.833    610.097    610.097    610.097
 12.970    587.000    620.027    -33.027    610.455    620.022    610.455    610.455    610.455
 13.070    636.000    618.103     17.897    610.803    618.099    610.803    610.803    610.803
 13.170    653.095    617.012     36.082    611.139    617.009    611.139    611.139    611.139
 13.270    589.000    616.336    -27.336    611.464    616.334    611.464    611.464    611.464
 13.370    650.329    615.906     34.424    611.779    615.904    611.779    611.779    611.779
 13.470    560.000    615.637    -55.637    612.083    615.635    612.083    612.083    612.083
 13.570    605.000    615.481    -10.481    612.376    615.479    612.376    612.376    612.376
 13.670    596.016    615.405    -19.389    612.659    615.404    612.659    612.659    612.659
 13.770    615.890    615.389      0.501    612.932    615.388    612.932    612.932    612.932
 13.870    574.000    615.422    -41.422    613.194    615.421    613.194    613.194    613.194
 13.970    546.000    615.501    -69.501    613.446    615.500    613.446    613.446    613.446
 14.070    580.000    615.579    -35.579    613.688    615.579    613.688    613.688    613.688
 14.170    573.158    615.671    -42.513    613.920    615.671    613.920    613.920    613.920
 14.270    604.000    615.774    -11.774    614.143    615.774    614.143    614.143    614.143
 14.370    632.008    615.884     16.124    614.355    615.884    614.355    614.355    614.355
 14.470    604.000    615.999    -11.999    614.557    615.998    614.557    614.557    614.557
 14.570    624.000    616.119      7.881    614.750    616.118    614.750    614.750    614.750
 14.670    634.533    616.237     18.295    614.933    616.237    614.933    614.933    614.933
 14.770    592.000    616.353    -24.353    615.107    616.352    615.107    615.107    615.107
 14.870    604.000    616.466    -12.466    615.272    616.466    615.272    615.272    615.272
 14.970    543.000    616.580    -73.580    615.427    616.580    615.427    615.427    615.427
 15.070    576.000    616.734    -40.734    615.572    616.733    615.572    615.572    615.572
 15.170    627.000    616.872     10.128    615.709    616.872    615.709    615.709    615.709
 15.270    600.000    616.972    -16.972    615.837    616.972    615.837    615.837    615.837
 15.370    588.000    617.068    -29.068    615.955    617.067    615.955    615.955    615.955
 15.470    599.460    617.201    -17.741    616.065    617.200    616.065    616.065    616.065
 15.570    592.694    617.304    -24.610    616.166    617.304    616.166    616.166    616.166
 15.670    626.000    617.379      8.621    616.258    617.379    616.258    616.258    616.258
 15.770    639.000    617.446     21.554    616.341    617.445    616.341    616.341    616.341
 15.870    598.000    617.506    -19.506    616.416    617.506    616.416    616.416    616.416
 15.970    573.000    617.559    -44.559    616.482    617.559    616.482    616.482    616.482
 16.070    659.489    617.606     41.883    616.540    617.605    616.540    616.540    616.540
 16.170    587.000    617.645    -30.645    616.590    617.645    616.590    616.590    616.590
 16.270    609.000    617.678     -8.678    616.631    617.678    616.631    616.631    616.631
 16.370    630.616    617.704     12.912    616.664    617.704    616.664    616.664    616.664
 16.470    598.000    617.722    -19.722    616.689    617.722    616.689    616.689    616.689
 16.570    574.575    617.734    -43.160    616.706    617.734    616.706    616.706    616.706
 16.670    602.000    617.745    -15.745    616.716    617.744    616.716    616.716    616.716
 16.770    653.931    617.759     36.172    616.717    617.759    616.717    616.717    616.717
 16.870    602.000    617.752    -15.752    616.710    617.752    616.710    616.710    616.710
 16.970    675.226    617.736     57.490    616.696    617.736    616.696    616.696    616.696
 17.070    572.580    617.715    -45.135    616.674    617.715    616.674    616.674    616.674
 17.170    582.000    617.685    -35.685    616.645    617.685    616.645    616.645    616.645
 17.270    622.000    617.649      4.351    616.608    617.649    616.608    616.608    616.608
 17.370    589.000    617.608    -28.608    616.564    617.608    616.564    616.564    616.564
 17.470    568.259    617.569    -49.311    616.512    617.569    616.512    616.512    616.512
 17.570    610.079    617.517     -7.438    616.453    617.517    616.453    616.453    616.453
 17.670    655.183    617.489     37.694    616.387    617.489    616.387    616.387    616.387
 17.770    568.147    617.453    -49.306    616.314    617.453    616.314    616.314    616.314
 17.870    558.000    617.380    -59.380    616.234    617.380    616.234    616.234    616.234
 17.970    612.000    617.298     -5.298    616.146    617.298    616.146    616.146    616.146
 18.070    612.000    617.217     -5.217    616.052    617.217    616.052    616.052    616.052
 18.170    626.000    617.144      8.856    615.952    617.143    615.952    615.952    615.952
 18.270    599.000    617.066    -18.066    615.844    617.066    615.844    615.844    615.844
 18.370    624.806    616.960      7.846    615.730    616.960    615.730    615.730    615.730
 18.470    611.000    616.847     -5.847    615.609    616.847    615.609    615.609    615.609
 18.570    585.187    616.733    -31.546    615.482    616.733    615.482    615.482    615.482
 18.670    634.000    616.661     17.339    615.348    616.660    615.348    615.348    615.348
 18.770    588.746    616.550    -27.805    615.208    616.550    615.208    615.208    615.208
 18.870    629.731    616.435     13.296    615.061    616.435    615.061    615.061    615.061
 18.970    601.000    616.300    -15.300    614.909    616.300    614.909    614.909    614.909
 19.070    598.000    616.169    -18.169    614.750    616.169    614.750    614.750    614.750
 19.170    615.000    616.027     -1.027    614.585    616.027    614.585    614.585    614.585
 19.270    621.413    615.869      5.544    614.414    615.869    614.414    614.414    614.414
 19.370    570.886    615.719    -44.833    614.237    615.719    614.237    614.237    614.237
 19.470    587.000    615.586    -28.586    614.054    615.586    614.054    614.054    614.054
 19.570    585.000    615.414    -30.414    613.866    615.414    613.866    613.866    613.866
 19.670    588.000    615.234    -27.234    613.671    615.234    613.671    613.671    613.671
 19.770    595.000    615.049    -20.049    613.471    615.049    613.471    613.471    613.471
 19.870    589.000    614.859    -25.859    613.266    614.859    613.266    613.266    613.266
 19.970    571.429    614.665    -43.236    613.055    614.665    613.055    613.055    613.055
 20.070    595.116    614.470    -19.354    612.838    614.470    612.838    612.838    612.838
 20.170    546.000    614.275    -68.275    612.616    614.275    612.616    612.616    612.616
 20.270    605.000    614.070     -9.070    612.388    614.070    612.388    612.388    612.388
 20.370    591.000    613.857    -22.857    612.156    613.857    612.156    612.156    612.156
 20.470    602.000    613.641    -11.641    611.918    613.641    611.918    611.918    611.918
 20.570    559.076    613.420    -54.345    611.675    613.420    611.675    611.675    611.675
 20.670    658.612    613.198     45.414    611.426    613.198    611.426    611.426    611.426
 20.770    576.889    612.969    -36.080    611.173    612.969    611.173    611.173    611.173
 20.870    625.000    612.739     12.261    610.915    612.739    610.915    610.915    610.915
 20.970    601.000    612.503    -11.503    610.652    612.503    610.652    610.652    610.652
 21.070    645.000    612.264     32.736    610.384    612.264    610.384    610.384    610.384
 21.170    560.578    612.020    -51.442    610.111    612.020    610.111    610.111    610.111
 21.270    587.766    611.773    -24.007    609.834    611.773    609.834    609.834    609.834
 21.370    597.261    611.523    -14.262    609.552    611.523    609.552    609.552    609.552
 21.470    584.000    611.270    -27.270    609.265    611.271    609.265    609.265    609.265
 21.570    581.000    611.015    -30.015    608.974    611.015    608.974    608.974    608.974
 21.670    622.547    610.758     11.789    608.679    610.758    608.679    608.679    608.679
 21.770    650.795    610.498     40.297    608.379    610.498    608.379    608.379    608.379
 21.870    578.025    610.237    -32.212    608.074    610.237    608.074    608.074    608.074
 21.970    598.000    609.975    -11.975    607.766    609.975    607.766    607.766    607.766
 22.070    589.000    609.712    -20.712    607.453    609.712    607.453    607.453    607.453
 22.170    599.000    609.450    -10.450    607.136    609.450    607.136    607.136    607.136
 22.270    604.627    609.187     -4.561    606.815    609.187    606.815    606.815    606.815
 22.370    633.000    608.925     24.075    606.489    608.925    606.489    606.489    606.489
 22.470    584.000    608.664    -24.664    606.160    608.664    606.160    606.160    606.160
 22.570    561.652    608.405    -46.753    605.827    608.406    605.827    605.827    605.827
 22.670    631.661    608.150     23.511    605.490    608.151    605.490    605.490    605.490
 22.770    617.000    607.900      9.100    605.150    607.901    605.150    605.150    605.150
 22.870    617.000    607.659      9.341    604.805    607.659    604.805    604.805    604.805
 22.970    608.000    607.424      0.576    604.457    607.425    604.457    604.457    604.457
 23.070    580.000    607.199    -27.199    604.105    607.200    604.105    604.105    604.105
 23.170    573.000    606.988    -33.988    603.750    606.989    603.750    603.750    603.750
 23.270    662.000    606.794     55.206    603.391    606.795    603.391    603.391    603.391
 23.370    645.000    606.623     38.377    603.028    606.624    603.028    603.028    603.028
 23.470    624.000    606.482     17.518    602.662    606.483    602.662    602.662    602.662
 23.570    599.000    606.380     -7.380    602.293    606.381    602.293    602.293    602.293
 23.670    560.000    606.332    -46.332    601.921    606.334    601.921    601.921    601.921
 23.770    565.000    606.357    -41.357    601.545    606.358    601.545    601.545    601.545
 23.870    608.000    606.476      1.524    601.166    606.477    601.166    601.166    601.166
 23.970    588.478    606.730    -18.252    600.784    606.732    600.784    600.784    600.784
 24.070    626.000    607.202     18.798    600.399    607.205    600.399    600.399    600.399
 24.170    619.000    608.073     10.927    600.011    608.077    600.011    600.011    600.011
 24.270    658.000    609.792     48.208    599.619    609.797    599.619    599.619    599.619
 24.370    612.081    613.383     -1.302    599.225    613.391    599.225    599.225    599.225
 24.470    628.507    620.711      7.796    598.828    620.725    598.828    598.828    598.828
 24.570    652.384    634.118     18.266    598.428    634.141    598.428    598.428    598.428
 24.670    702.105    654.726     47.379    598.026    654.764    598.026    598.026    598.026
 24.770    656.000    679.387    -23.387    597.620    679.443    597.620    597.620    597.620
 24.870    658.000    698.104    -40.104    597.212    698.173    597.212    597.212    597.212
 24.970    700.000    698.839      1.161    596.802    698.909    596.802    596.802    596.802
 25.070    689.000    680.737      8.263    596.389    680.795    596.389    596.389    596.389
 25.170    647.000    655.428     -8.428    595.973    655.468    595.973    595.973    595.973
 25.270    665.999    633.592     32.408    595.555    633.616    595.555    595.555    595.555
 25.370    623.000    618.936      4.064    595.134    618.949    595.134    595.134    595.134
 25.470    667.152    610.572     56.580    594.711    610.580    594.711    594.711    594.711
 25.570    653.161    606.168     46.993    594.286    606.173    594.286    594.286    594.286
 25.670    685.000    603.780     81.220    593.858    603.784    593.858    593.858    593.858
 25.770    656.684    602.316     54.368    593.428    602.319    593.428    593.428    593.428
 25.870    632.000    601.294     30.706    592.996    601.296    592.996    592.996    592.996
 25.970    662.000    600.523     61.477    592.562    600.524    592.562    592.562    592.562
 26.070    598.395    599.923     -1.528    592.126    599.924    592.126    592.126    592.126
 26.170    622.000    599.456     22.544    591.688    599.456    591.688    591.688    591.688
 26.270    656.000    599.100     56.900    591.247    599.100    591.247    591.247    591.247
 26.370    627.000    598.844     28.156    590.805    598.844    590.805    590.805    590.805
 26.470    603.111    598.686      4.425    590.361    598.686    590.361    590.361    590.361
 26.570    621.000    598.627     22.373    589.915    598.627    589.915    589.915    589.915
 26.670    647.000    598.677     48.323    589.467    598.676    589.467    589.467    589.467
 26.770    670.000    598.849     71.151    589.018    598.849    589.018    589.018    589.018
 26.870    690.000    599.167     90.833    588.566    599.166    588.566    588.566    588.566
 26.970    566.036    599.661    -33.625    588.114    599.659    588.114    588.114    588.114
 27.070    658.000    600.375     57.625    587.659    600.374    587.659    587.659    587.659
 27.170    668.000    601.374     66.626    587.203    601.372    587.203    587.203    587.203
 27.270    617.000    602.748     14.252    586.745    602.746    586.745    586.745    586.745
 27.370    677.000    604.638     72.362    586.286    604.635    586.286    586.286    586.286
 27.470    687.000    607.294     79.706    585.825    607.290    585.825    585.825    585.825
 27.570    704.000    611.245     92.755    585.363    611.240    585.363    585.363    585.363
 27.670    587.953    617.753    -29.800    584.900    617.746    584.900    584.900    584.900
 27.770    708.000    629.678     78.322    584.435    629.665    584.435    584.435    584.435
 27.870    690.000    652.434     37.566    583.969    652.413    583.969    583.969    583.969
 27.970    754.000    693.584     60.416    583.502    693.550    583.502    583.502    583.502
 28.070    789.000    758.948     30.052    583.034    758.896    583.034    583.034    583.034
 28.170    900.173    844.638     55.535    582.564    844.569    582.564    582.564    582.564
 28.270    978.248    927.494     50.754    582.093    927.419    582.093    582.093    582.093
 28.370    915.216    965.398    -50.182    581.621    965.332    581.621    581.621    581.621
 28.470    995.000    935.360     59.640    581.149    935.310    581.149    581.149    581.149
 28.570    923.000    870.580     52.420    580.675    870.544    580.675    580.675    580.675
 28.670    858.000    818.424     39.576    580.200    818.395    580.200    580.200    580.200
 28.770    892.000    802.879     89.121    579.724    802.854    579.724    579.724    579.724
 28.870    848.000    822.745     25.255    579.248    822.722    579.248    579.248    579.248
 28.970    983.000    855.889    127.111    578.770    855.874    578.770    578.770    578.770
 29.070    802.518    866.988    -64.470    578.292    866.984    578.292    578.292    578.292
 29.170    837.595    834.815      2.779    577.813    834.819    577.813    577.813    577.813
 29.270    853.000    775.198     77.802    577.333    775.204    577.333    577.333    577.333
 29.370    817.000    714.801    102.199    576.853    714.806    576.853    576.853    576.853
 29.470    697.447    667.749     29.698    576.372    667.751    576.372    576.372    576.372
 29.570    658.105    636.567     21.538    575.890    636.567    575.890    575.890    575.890
 29.670    692.000    617.991     74.009    575.408    617.990    575.408    575.408    575.408
 29.770    687.000    607.394     79.606    574.925    607.392    574.925    574.925    574.925
 29.870    687.000    601.158     85.842    574.442    601.156    574.442    574.442    574.442
 29.970    691.000    597.186     93.814    573.958    597.183    573.958    573.958    573.958
 30.070    691.000    594.482     96.518    573.474    594.479    573.474    573.474    573.474
 30.170    555.575    592.647    -37.072    572.990    592.644    572.990    572.990    572.990
 30.270    544.160    591.601    -47.441    572.505    591.597    572.505    572.505    572.505
 30.370    650.000    591.519     58.481    572.020    591.514    572.020    572.020    572.020
 30.470    551.458    592.891    -41.433    571.534    592.884    571.534    571.534    571.534
 30.570    626.000    596.548     29.452    571.048    596.537    571.048    571.048    571.048
 30.670    576.681    603.477    -26.795    570.562    603.460    570.562    570.562    570.562
 30.770    615.798    614.245      1.553    570.076    614.220    570.076    570.076    570.076
 30.870    739.000    628.027    110.973    569.590    627.991    569.590    569.590    569.590
 30.970    711.000    641.291     69.709    569.104    641.247    569.104    569.104    569.104
 31.070    680.000    647.569     32.431    568.617    647.522    568.617    568.617    568.617
 31.170    649.104    642.369      6.735    568.131    642.327    568.131    568.131    568.131
 31.270    665.442    628.810     36.632    567.644    628.778    567.644    567.644    567.644
 31.370    556.175    613.380    -57.205    567.157    613.358    567.157    567.157    567.157
 31.470    633.000    600.312     32.688    566.671    600.298    566.671    566.671    566.671
 31.570    568.000    590.955    -22.955    566.185    590.946    566.185    566.185    566.185
 31.670    647.000    584.964     62.036    565.698    584.957    565.698    565.698    565.698
 31.770    610.000    581.362     28.638    565.212    581.357    565.212    565.212    565.212
 31.870    599.000    579.212     19.788    564.726    579.208    564.726    564.726    564.726
 31.970    623.947    577.874     46.072    564.240    577.871    564.240    564.240    564.240
 32.070    576.000    577.001     -1.001    563.755    576.999    563.755    563.755    563.755
 32.170    613.000    576.429     36.571    563.270    576.427    563.270    563.270    563.270
 32.270    628.000    576.090     51.910    562.785    576.087    562.785    562.785    562.785
 32.370    553.817    575.958    -22.141    562.300    575.956    562.300    562.300    562.300
 32.470    548.586    576.034    -27.448    561.816    576.032    561.816    561.816    561.816
 32.570    566.000    576.332    -10.332    561.332    576.330    561.332    561.332    561.332
 32.670    559.000    576.881    -17.881    560.848    576.879    560.848    560.848    560.848
 32.770    544.000    577.728    -33.728    560.365    577.726    560.365    560.365    560.365
 32.870    595.509    578.942     16.568    559.883    578.939    559.883    559.883    559.883
 32.970    599.000    580.623     18.377    559.401    580.621    559.401    559.401    559.401
 33.070    535.793    582.929    -47.136    558.919    582.926    558.919    558.919    558.919
 33.170    544.884    586.127    -41.244    558.438    586.124    558.438    558.438    558.438
 33.270    608.000    590.734     17.266    557.958    590.730    557.958    557.958    557.958
 33.370    587.000    597.809    -10.809    557.478    597.804    557.478    557.478    557.478
 33.470    639.907    609.467     30.440    556.999    609.460    556.999    556.999    556.999
 33.570    593.000    629.470    -36.470    556.521    629.459    556.521    556.521    556.521
 33.670    698.046    663.380     34.666    556.043    663.363    556.043    556.043    556.043
 33.770    674.000    717.379    -43.379    555.566    717.353    555.566    555.566    555.566
 33.870    791.000    795.058     -4.058    555.090    795.021    555.090    555.090    555.090
 33.970    876.000    892.007    -16.007    554.614    891.958    554.614    554.614    554.614
 34.070   1010.000    988.629     21.371    554.139    988.575    554.139    554.139    554.139
 34.170   1040.106   1047.925     -7.818    553.666   1047.876    553.666    553.666    553.666
 34.270   1012.000   1037.692    -25.692    553.193   1037.660    553.193    553.193    553.193
 34.370   1030.027    964.183     65.844    552.720    964.168    552.720    552.720    552.720
 34.470    876.000    864.019     11.981    552.249    864.014    552.249    552.249    552.249
 34.570    741.406    770.025    -28.619    551.779    770.024    551.779    551.779    551.779
 34.670    686.000    697.342    -11.342    551.310    697.342    551.310    551.310    551.310
 34.770    588.000    647.835    -59.835    550.841    647.835    550.841    550.841    550.841
 34.870    644.304    616.898     27.405    550.374    616.898    550.374    550.374    550.374
 34.970    605.000    598.333      6.667    549.907    598.332    549.907    549.907    549.907
 35.070    601.000    587.008     13.992    549.442    587.007    549.442    549.442    549.442
 35.170    572.765    579.619     -6.854    548.978    579.618    548.978    548.978    548.978
 35.270    571.000    574.365     -3.365    548.515    574.364    548.515    548.515    548.515
 35.370    548.565    570.351    -21.786    548.053    570.350    548.053    548.053    548.053
 35.470    582.128    567.137     14.991    547.592    567.136    547.592    547.592    547.592
 35.570    521.877    564.486    -42.609    547.132    564.485    547.132    547.132    547.132
 35.670    584.041    562.252     21.789    546.673    562.251    546.673    546.673    546.673
 35.770    552.000    560.339     -8.339    546.216    560.338    546.216    546.216    546.216
 35.870    546.758    558.677    -11.919    545.760    558.677    545.760    545.760    545.760
 35.970    517.000    557.215    -40.215    545.305    557.215    545.305    545.305    545.305
 36.070    505.000    555.915    -50.915    544.851    555.915    544.851    544.851    544.851
 36.170    507.374    554.748    -47.374    544.399    554.747    544.399    544.399    544.399
 36.270    518.034    553.691    -35.657    543.948    553.690    543.948    543.948    543.948
 36.370    560.000    552.727      7.273    543.498    552.727    543.498    543.498    543.498
 36.470    563.381    551.845     11.536    543.050    551.845    543.050    543.050    543.050
 36.570    543.000    551.034     -8.034    542.603    551.034    542.603    542.603    542.603
 36.670    504.000    550.283    -46.283    542.157    550.283    542.157    542.157    542.157
 36.770    547.000    549.600     -2.600    541.713    549.600    541.713    541.713    541.713
 36.870    587.000    548.982     38.018    541.270    548.982    541.270    541.270    541.270
 36.970    542.000    548.438     -6.438    540.829    548.439    540.829    540.829    540.829
 37.070    528.000    548.000    -20.000    540.389    548.000    540.389    540.389    540.389
 37.170    537.000    547.741    -10.741    539.951    547.742    539.951    539.951    539.951
 37.270    530.000    547.818    -17.818    539.514    547.819    539.514    539.514    539.514
 37.370    533.000    548.487    -15.487    539.078    548.488    539.078    539.078    539.078
 37.470    530.000    550.055    -20.055    538.644    550.056    538.644    538.644    538.644
 37.570    528.000    552.707    -24.707    538.212    552.709    538.212    538.212    538.212
 37.670    579.000    556.227     22.773    537.782    556.231    537.782    537.782    537.782
 37.770    607.000    559.695     47.305    537.352    559.700    537.352    537.352    537.352
 37.870    606.447    561.499     44.948    536.925    561.506    536.925    536.925    536.925
 37.970    550.000    560.466    -10.466    536.499    560.474    536.499    536.499    536.499
 38.070    550.418    557.149     -6.731    536.075    557.159    536.075    536.075    536.075
 38.170    505.000    552.993    -47.993    535.652    553.004    535.652    535.652    535.652
 38.270    535.000    549.063    -14.063    535.231    549.074    535.231    535.231    535.231
 38.370    583.463    545.847     37.616    534.812    545.856    534.812    534.812    534.812
 38.470    509.000    543.443    -34.443    534.395    543.450    534.395    534.395    534.395
 38.570    548.000    541.722      6.278    533.979    541.727    533.979    533.979    533.979
 38.670    521.000    540.482    -19.482    533.565    540.485    533.565    533.565    533.565
 38.770    487.000    539.550    -52.550    533.153    539.552    533.153    533.153    533.153
 38.870    535.000    538.809     -3.809    532.742    538.811    532.742    532.742    532.742
 38.970    485.000    538.188    -53.188    532.333    538.189    532.333    532.333    532.333
 39.070    522.000    537.641    -15.641    531.926    537.642    531.926    531.926    531.926
 39.170    507.000    537.142    -30.142    531.521    537.143    531.521    531.521    531.521
 39.270    526.000    536.676    -10.676    531.118    536.677    531.118    531.118    531.118
 39.370    517.000    536.235    -19.235    530.717    536.236    530.717    530.717    530.717
 39.470    491.362    535.814    -44.452    530.317    535.815    530.317    530.317    530.317
 39.570    526.000    535.410     -9.410    529.919    535.410    529.919    529.919    529.919
 39.670    521.000    535.021    -14.021    529.523    535.021    529.523    529.523    529.523
 39.770    532.000    534.646     -2.646    529.129    534.647    529.129    529.129    529.129
 39.870    549.000    534.285     14.715    528.737    534.285    528.737    528.737    528.737
 39.970    486.696    533.937    -47.241    528.347    533.938    528.347    528.347    528.347
 40.070    493.547    533.603    -40.056    527.959    533.603    527.959    527.959    527.959
 40.170    537.000    533.282      3.718    527.573    533.283    527.573    527.573    527.573
 40.270    547.026    532.976     14.050    527.189    532.977    527.189    527.189    527.189
 40.370    489.000    532.685    -43.685    526.806    532.686    526.806    526.806    526.806
 40.470    545.000    532.411     12.589    526.426    532.412    526.426    526.426    526.426
 40.570    519.061    532.155    -13.094    526.048    532.156    526.048    526.048    526.048
 40.670    466.000    531.919    -65.919    525.671    531.920    525.671    525.671    525.671
 40.770    580.513    531.706     48.806    525.297    531.707    525.297    525.297    525.297
 40.870    481.000    531.520    -50.520    524.925    531.521    524.925    524.925    524.925
 40.970    569.170    531.364     37.806    524.554    531.365    524.554    524.554    524.554
 41.070    519.000    531.245    -12.245    524.186    531.246    524.186    524.186    524.186
 41.170    516.148    531.168    -15.020    523.820    531.169    523.820    523.820    523.820
 41.270    515.000    531.143    -16.143    523.456    531.145    523.456    523.456    523.456
 41.370    537.819    531.183      6.636    523.094    531.185    523.094    523.094    523.094
 41.470    529.000    531.303     -2.303    522.734    531.305    522.734    522.734    522.734
 41.570    482.540    531.527    -48.987    522.376    531.529    522.376    522.376    522.376
 41.670    564.000    531.891     32.109    522.020    531.893    522.020    522.020    522.020
 41.770    541.000    532.457      8.543    521.667    532.460    521.667    521.667    521.667
 41.870    558.693    533.348     25.345    521.315    533.351    521.315    521.315    521.315
 41.970    521.620    534.799    -13.179    520.966    534.803    520.966    520.966    520.966
 42.070    483.000    537.251    -54.251    520.619    537.256    520.619    520.619    520.619
 42.170    531.000    541.442    -10.442    520.274    541.449    520.274    520.274    520.274
 42.270    518.000    548.416    -30.416    519.931    548.427    519.931    519.931    519.931
 42.370    552.000    559.343     -7.343    519.590    559.359    519.590    519.590    519.590
 42.470    536.015    575.045    -39.030    519.252    575.069    519.252    519.252    519.252
 42.570    558.000    595.267    -37.267    518.915    595.301    518.915    518.915    518.915
 42.670    567.607    617.728    -50.120    518.581    617.773    518.581    518.581    518.581
 42.770    610.000    637.176    -27.176    518.249    637.232    518.249    518.249    518.249
 42.870    643.000    646.124     -3.124    517.919    646.187    517.919    517.919    517.919
 42.970    631.000    640.004     -9.004    517.592    640.067    517.592    517.592    517.592
 43.070    621.000    621.920     -0.920    517.267    621.975    517.267    517.267    517.267
 43.170    545.728    599.173    -53.445    516.943    599.217    516.943    516.943    516.943
 43.270    582.387    577.656      4.730    516.623    577.689    516.623    516.623    516.623
 43.370    546.000    560.297    -14.297    516.304    560.319    516.304    516.304    516.304
 43.470    519.000    547.760    -28.760    515.988    547.775    515.988    515.988    515.988
 43.570    523.751    539.418    -15.667    515.673    539.429    515.673    515.673    515.673
 43.670    492.311    534.142    -41.831    515.362    534.149    515.362    515.362    515.362
 43.770    546.000    530.835     15.165    515.052    530.840    515.052    515.052    515.052
 43.870    549.937    528.685     21.252    514.745    528.689    514.745    514.745    514.745
 43.970    514.000    527.188    -13.188    514.440    527.191    514.440    514.440    514.440
 44.070    518.000    526.064     -8.064    514.137    526.067    514.137    514.137    514.137
 44.170    540.000    525.171     14.829    513.837    525.173    513.837    513.837    513.837
 44.270    536.000    524.435     11.565    513.538    524.437    513.538    513.538    513.538
 44.370    532.000    523.815      8.185    513.242    523.816    513.242    513.242    513.242
 44.470    506.000    523.285    -17.285    512.949    523.286    512.949    512.949    512.949
 44.570    502.000    522.828    -20.828    512.658    522.830    512.658    512.658    512.658
 44.670    557.802    522.433     35.369    512.369    522.434    512.369    512.369    512.369
 44.770    508.000    522.089    -14.089    512.082    522.089    512.082    512.082    512.082
 44.870    553.423    521.789     31.634    511.798    521.790    511.798    511.798    511.798
 44.970    532.000    521.530     10.470    511.516    521.530    511.516    511.516    511.516
 45.070    544.000    521.306     22.694    511.236    521.307    511.236    511.236    511.236
 45.170    498.000    521.116    -23.116    510.959    521.116    510.959    510.959    510.959
 45.270    563.000    520.957     42.043    510.684    520.958    510.684    510.684    510.684
 45.370    519.000    520.829     -1.829    510.411    520.829    510.411    510.411    510.411
 45.470    496.357    520.730    -24.373    510.141    520.730    510.141    510.141    510.141
 45.570    526.000    520.662      5.338    509.873    520.662    509.873    509.873    509.873
 45.670    489.777    520.623    -30.846    509.607    520.623    509.607    509.607    509.607
 45.770    539.000    520.617     18.383    509.344    520.617    509.344    509.344    509.344
 45.870    508.242    520.643    -12.401    509.083    520.643    509.083    509.083    509.083
 45.970    533.000    520.705     12.295    508.824    520.705    508.824    508.824    508.824
 46.070    551.000    520.805     30.195    508.568    520.805    508.568    508.568    508.568
 46.170    522.000    520.948      1.052    508.314    520.947    508.314    508.314    508.314
 46.270    504.000    521.138    -17.138    508.062    521.137    508.062    508.062    508.062
 46.370    508.000    521.380    -13.380    507.813    521.379    507.813    507.813    507.813
 46.470    515.000    521.684     -6.684    507.566    521.683    507.566    507.566    507.566
 46.570    561.000    522.058     38.942    507.322    522.057    507.322    507.322    507.322
 46.670    519.000    522.517     -3.517    507.079    522.516    507.079    507.079    507.079
 46.770    505.000    523.081    -18.081    506.840    523.079    506.840    506.840    506.840
 46.870    517.000    523.781     -6.781    506.602    523.779    506.602    506.602    506.602
 46.970    511.000    524.674    -13.674    506.367    524.671    506.367    506.367    506.367
 47.070    514.212    525.866    -11.654    506.135    525.862    506.135    506.135    506.135
 47.170    574.000    527.548     46.452    505.904    527.543    505.904    505.904    505.904
 47.270    497.465    530.044    -32.579    505.676    530.038    505.676    505.676    505.676
 47.370    567.000    533.839     33.161    505.451    533.831    505.451    505.451    505.451
 47.470    538.000    539.547     -1.547    505.227    539.534    505.227    505.227    505.227
 47.570    573.000    547.768     25.232    505.007    547.750    505.007    505.007    505.007
 47.670    536.000    558.821    -22.821    504.788    558.795    504.788    504.788    504.788
 47.770    584.000    572.379     11.621    504.572    572.344    504.572    504.572    504.572
 47.870    574.616    587.040    -12.425    504.358    586.995    504.358    504.358    504.358
 47.970    631.454    599.970     31.484    504.147    599.917    504.147    504.147    504.147
 48.070    590.000    607.357    -17.357    503.938    607.301    503.938    503.938    503.938
 48.170    599.000    606.682     -7.682    503.731    606.629    503.731    503.731    503.731
 48.270    585.000    598.973    -13.973    503.527    598.927    503.527    503.527    503.527
 48.370    636.000    587.794     48.206    503.325    587.758    503.325    503.325    503.325
 48.470    569.202    576.645     -7.443    503.125    576.618    503.125    503.125    503.125
 48.570    528.264    567.700    -39.435    502.928    567.681    502.928    502.928    502.928
 48.670    548.000    561.879    -13.879    502.733    561.866    502.733    502.733    502.733
 48.770    567.000    559.266      7.734    502.540    559.256    502.540    502.540    502.540
 48.870    546.000    559.518    -13.518    502.350    559.511    502.350    502.350    502.350
 48.970    570.459    562.217      8.242    502.162    562.211    502.162    502.162    502.162
 49.070    551.000    567.114    -16.114    501.976    567.109    501.976    501.976    501.976
 49.170    564.113    574.334    -10.221    501.793    574.328    501.793    501.793    501.793
 49.270    593.000    584.631      8.369    501.612    584.625    501.612    501.612    501.612
 49.370    563.000    599.904    -36.904    501.434    599.896    501.434    501.434    501.434
 49.470    591.000    624.119    -33.119    501.258    624.108    501.258    501.258    501.258
 49.570    661.000    664.595     -3.595    501.084    664.577    501.084    501.084    501.084
 49.670    671.000    733.068    -62.068    500.912    733.038    500.912    500.912    500.912
 49.770    788.000    845.273    -57.273    500.743    845.224    500.743    500.743    500.743
 49.870    983.000   1017.410    -34.410    500.576   1017.335    500.576    500.576    500.576
 49.970   1231.894   1258.760    -26.866    500.411   1258.659    500.411    500.411    500.411
 50.070   1464.000   1561.577    -97.577    500.249   1561.455    500.249    500.249    500.249
 50.170   1931.000   1890.753     40.247    500.089   1890.630    500.089    500.089    500.089
 50.270   2170.000   2177.346     -7.346    499.931   2177.254    499.931    499.931    499.931
 50.370   2439.000   2330.580    108.420    499.776   2330.560    499.776    499.776    499.776
 50.470   2292.944   2288.875      4.068    499.623   2288.945    499.623    499.623    499.623
 50.570   2093.000   2071.897     21.103    499.472   2072.034    499.472    499.472    499.472
 50.670   1764.000   1761.483      2.517    499.324   1761.646    499.324    499.324    499.324
 50.770   1411.674   1442.433    -30.759    499.177   1442.588    499.177    499.177    499.177
 50.870   1199.395   1169.874     29.521    499.033   1170.004    499.033    499.033    499.033
 50.970    990.872    966.809     24.063    498.892    966.911    498.892    498.892    498.892
 51.070    892.454    832.359     60.095    498.752    832.437    498.752    498.752    498.752
 51.170    796.973    751.978     44.995    498.615    752.040    498.615    498.615    498.615
 51.270    768.458    706.502     61.955    498.480    706.555    498.480    498.480    498.480
 51.370    658.000    678.483    -20.483    498.348    678.529    498.348    498.348    498.348
 51.470    658.000    656.262      1.738    498.217    656.303    498.217    498.217    498.217
 51.570    666.998    635.265     31.733    498.089    635.299    498.089    498.089    498.089
 51.670    648.000    615.514     32.486    497.963    615.541    497.963    497.963    497.963
 51.770    602.000    598.311      3.689    497.839    598.330    497.839    497.839    497.839
 51.870    612.000    584.600     27.400    497.718    584.614    497.718    497.718    497.718
 51.970    574.000    574.605     -0.605    497.599    574.615    497.599    497.599    497.599
 52.070    570.000    567.969      2.031    497.482    567.976    497.482    497.482    497.482
 52.170    581.000    564.055     16.945    497.367    564.060    497.367    497.367    497.367
 52.270    571.000    562.244      8.756    497.254    562.249    497.254    497.254    497.254
 52.370    579.000    562.120     16.880    497.144    562.123    497.144    497.144    497.144
 52.470    594.000    563.555     30.445    497.035    563.558    497.035    497.035    497.035
 52.570    589.000    566.785     22.215    496.929    566.787    496.929    496.929    496.929
 52.670    587.000    572.530     14.470    496.825    572.532    496.825    496.825    496.825
 52.770    618.929    582.213     36.716    496.724    582.215    496.724    496.724    496.724
 52.870    590.000    598.214     -8.214    496.624    598.215    496.624    496.624    496.624
 52.970    615.120    624.005     -8.885    496.527    624.005    496.527    496.527    496.527
 53.070    720.384    663.911     56.473    496.431    663.909    496.431    496.431    496.431
 53.170    705.000    722.212    -17.212    496.338    722.210    496.338    496.338    496.338
 53.270    769.594    801.526    -31.932    496.247    801.524    496.247    496.247    496.247
 53.370    859.000    900.634    -41.634    496.158    900.633    496.158    496.158    496.158
 53.470    939.368   1012.083    -72.716    496.071   1012.088    496.071    496.071    496.071
 53.570   1107.000   1119.948    -12.948    495.987   1119.962    495.987    495.987    495.987
 53.670   1159.000   1199.640    -40.640    495.904   1199.665    495.904    495.904    495.904
 53.770   1174.000   1225.409    -51.409    495.824   1225.446    495.824    495.824    495.824
 53.870   1259.579   1187.170     72.409    495.745   1187.213    495.745    495.745    495.745
 53.970   1069.562   1099.543    -29.981    495.669   1099.587    495.669    495.669    495.669
 54.070   1060.529    989.547     70.983    495.595    989.585    495.595    495.595    495.595
 54.170    848.000    880.373    -32.373    495.522    880.405    495.522    495.522    495.522
 54.270    860.000    785.967     74.033    495.452    785.992    495.452    495.452    495.452
 54.370    729.570    712.180     17.390    495.384    712.198    495.384    495.384    495.384
 54.470    675.000    659.169     15.831    495.318    659.182    495.318    495.318    495.318
 54.570    671.000    623.764     47.236    495.254    623.773    495.254    495.254    495.254
 54.670    613.000    601.535     11.465    495.192    601.541    495.192    495.192    495.192
 54.770    552.647    588.313    -35.665    495.132    588.317    495.132    495.132    495.132
 54.870    618.000    580.848     37.152    495.074    580.852    495.074    495.074    495.074
 54.970    569.961    576.988     -7.027    495.018    576.991    495.018    495.018    495.018
 55.070    587.000    575.468     11.532    494.964    575.471    494.964    494.964    494.964
 55.170    582.000    575.624      6.376    494.912    575.626    494.912    494.912    494.912
 55.270    580.000    577.154      2.846    494.861    577.157    494.861    494.861    494.861
 55.370    635.000    579.973     55.027    494.813    579.975    494.813    494.813    494.813
 55.470    633.000    584.130     48.870    494.767    584.132    494.767    494.767    494.767
 55.570    560.000    589.813    -29.813    494.723    589.815    494.723    494.723    494.723
 55.670    623.000    597.398     25.602    494.680    597.399    494.680    494.680    494.680
 55.770    619.000    607.591     11.409    494.640    607.593    494.640    494.640    494.640
 55.870    675.202    621.708     53.494    494.601    621.709    494.601    494.601    494.601
 55.970    669.000    642.105     26.895    494.565    642.105    494.565    494.565    494.565
 56.070    687.000    672.772     14.228    494.530    672.769    494.530    494.530    494.530
 56.170    703.000    719.927    -16.927    494.497    719.920    494.497    494.497    494.497
 56.270    791.566    792.262     -0.696    494.466    792.249    494.466    494.466    494.466
 56.370    863.646    900.348    -36.702    494.436    900.327    494.436    494.436    494.436
 56.470   1081.951   1054.673     27.278    494.409   1054.645    494.409    494.409    494.409
 56.570   1124.000   1262.194   -138.194    494.384   1262.161    494.384    494.384    494.384
 56.670   1480.000   1521.751    -41.751    494.360   1521.718    494.360    494.360    494.360
 56.770   1732.043   1819.010    -86.967    494.338   1818.989    494.338    494.338    494.338
 56.870   2132.000   2121.549     10.451    494.318   2121.556    494.318    494.318    494.318
 56.970   2342.953   2376.592    -33.639    494.300   2376.649    494.300    494.300    494.300
 57.070   2411.300   2520.456   -109.156    494.283   2520.579    494.283    494.283    494.283
 57.170   2504.823   2508.292     -3.469    494.268   2508.481    494.268    494.268    494.268
 57.270   2447.126   2344.895    102.231    494.255   2345.127    494.255    494.255    494.255
 57.370   2169.040   2080.784     88.257    494.244   2081.024    494.244    494.244    494.244
 57.470   1813.496   1779.087     34.410    494.234   1779.307    494.234    494.234    494.234
 57.570   1521.000   1489.436     31.564    494.227   1489.621    494.227    494.227    494.227
 57.670   1180.000   1241.211    -61.211    494.220   1241.356    494.220    494.220    494.220
 57.770   1097.999   1046.576     51.423    494.216   1046.683    494.216    494.216    494.216
 57.870    889.768    905.530    -15.762    494.213    905.604    494.213    494.213    494.213
 57.970    777.000    811.046    -34.046    494.212    811.093    494.212    494.212    494.212
 58.070    766.758    753.638     13.120    494.213    753.666    494.213    494.213    494.213
 58.170    686.732    724.661    -37.930    494.215    724.675    494.215    494.215    494.215
 58.270    702.001    717.979    -15.978    494.219    717.980    494.219    494.219    494.219
 58.370    791.000    730.154     60.846    494.225    730.145    494.225    494.225    494.225
 58.470    745.000    759.648    -14.648    494.232    759.629    494.232    494.232    494.232
 58.570    829.768    805.515     24.254    494.241    805.488    494.241    494.241    494.241
 58.670    862.414    865.947     -3.533    494.251    865.915    494.251    494.251    494.251
 58.770    979.657    936.944     42.713    494.263    936.910    494.263    494.263    494.263
 58.870   1011.824   1011.801      0.023    494.277   1011.772    494.277    494.277    494.277
 58.970   1163.000   1082.561     80.439    494.292   1082.541    494.292    494.292    494.292
 59.070   1185.000   1142.741     42.259    494.308   1142.733    494.308    494.308    494.308
 59.170   1280.000   1187.825     92.175    494.326   1187.830    494.326    494.326    494.326
 59.270   1250.000   1213.377     36.623    494.346   1213.395    494.346    494.346    494.346
 59.370   1249.000   1216.320     32.680    494.367   1216.345    494.367    494.367    494.367
 59.470   1305.000   1199.940    105.060    494.390   1199.962    494.390    494.390    494.390
 59.570   1110.380   1175.025    -64.646    494.414   1175.030    494.414    494.414    494.414
 59.670   1240.000   1154.438     85.562    494.440   1154.415    494.440    494.440    494.440
 59.770   1225.168   1147.903     77.265    494.467   1147.844    494.467    494.467    494.467
 59.870   1171.102   1161.499      9.603    494.496   1161.399    494.496    494.496    494.496
 59.970   1160.955   1199.244    -38.289    494.526   1199.099    494.526    494.526    494.526
 60.070   1285.449   1262.473     22.977    494.557   1262.282    494.557    494.557    494.557
 60.170   1362.229   1346.536     15.693    494.590   1346.304    494.590    494.590    494.590
 60.270   1533.000   1437.765     95.235    494.624   1437.504    494.624    494.624    494.624
 60.370   1525.722   1513.208     12.515    494.660   1512.937    494.660    494.660    494.660
 60.470   1586.000   1545.931     40.069    494.697   1545.677    494.697    494.697    494.697
 60.570   1528.223   1517.626     10.597    494.735   1517.412    494.735    494.735    494.735
 60.670   1445.000   1430.118     14.882    494.775   1429.954    494.775    494.775    494.775
 60.770   1324.000   1303.183     20.817    494.816   1303.066    494.816    494.816    494.816
 60.870   1170.959   1161.947      9.012    494.858   1161.868    494.858    494.858    494.858
 60.970   1038.910   1026.980     11.929    494.901   1026.928    494.901    494.901    494.901
 61.070    929.000    911.377     17.623    494.946    911.342    494.946    494.946    494.946
 61.170    734.000    821.528    -87.528    494.993    821.502    494.993    494.993    494.993
 61.270    746.295    758.977    -12.682    495.040    758.953    495.040    495.040    495.040
 61.370    794.000    722.520     71.480    495.089    722.492    495.089    495.089    495.089
 61.470    750.000    710.189     39.811    495.139    710.155    495.139    495.139    495.139
 61.570    716.000    720.657     -4.657    495.190    720.612    495.190    495.190    495.190
 61.670    787.000    753.711     33.289    495.242    753.651    495.242    495.242    495.242
 61.770    808.000    809.746     -1.746    495.296    809.666    495.296    495.296    495.296
 61.870    954.783    888.493     66.291    495.350    888.391    495.350    495.350    495.350
 61.970   1005.318    987.360     17.958    495.406    987.236    495.406    495.406    495.406
 62.070   1117.011   1099.752     17.259    495.463   1099.609    495.463    495.463    495.463
 62.170   1250.673   1213.654     37.019    495.521   1213.498    495.521    495.521    495.521
 62.270   1255.000   1311.162    -56.162    495.581   1311.007    495.581    495.581    495.581
 62.370   1366.000   1371.101     -5.101    495.641   1370.963    495.641    495.641    495.641
 62.470   1427.726   1376.933     50.793    495.703   1376.824    495.703    495.703    495.703
 62.570   1318.000   1326.327     -8.327    495.765   1326.252    495.765    495.765    495.765
 62.670   1245.246   1232.801     12.444    495.829   1232.754    495.829    495.829    495.829
 62.770   1172.018   1117.303     54.715    495.894   1117.277    495.894    495.894    495.894
 62.870    930.000    998.896    -68.896    495.959    998.884    495.959    495.959    495.959
 62.970    869.000    890.800    -21.800    496.026    890.795    496.026    496.026    496.026
 63.070    840.420    800.284     40.136    496.094    800.283    496.094    496.094    496.094
 63.170    700.000    729.809    -29.809    496.163    729.807    496.163    496.163    496.163
 63.270    631.542    678.426    -46.884    496.233    678.423    496.233    496.233    496.233
 63.370    619.000    643.248    -24.248    496.303    643.242    496.303    496.303    496.303
 63.470    638.000    620.757     17.243    496.375    620.750    496.375    496.375    496.375
 63.570    648.000    607.781     40.219    496.448    607.771    496.448    496.448    496.448
 63.670    587.521    602.046    -14.525    496.521    602.034    496.521    496.521    496.521
 63.770    617.358    602.379     14.979    496.596    602.364    496.596    496.596    496.596
 63.870    639.000    608.664     30.336    496.671    608.644    496.671    496.671    496.671
 63.970    631.000    621.645      9.355    496.748    621.619    496.748    496.748    496.748
 64.070    664.000    642.617     21.383    496.825    642.582    496.825    496.825    496.825
 64.170    723.285    672.991     50.294    496.903    672.945    496.903    496.903    496.903
 64.270    649.680    713.762    -64.082    496.982    713.701    496.982    496.982    496.982
 64.370    838.000    764.881     73.119    497.061    764.805    497.061    497.061    497.061
 64.470    790.508    824.614    -34.106    497.142    824.522    497.142    497.142    497.142
 64.570    931.000    888.924     42.076    497.223    888.817    497.223    497.223    497.223
 64.670   1011.000    951.062     59.938    497.305    950.945    497.305    497.305    497.305
 64.770   1038.000   1001.987     36.013    497.388   1001.868    497.388    497.388    497.388
 64.870   1099.224   1032.588     66.636    497.471   1032.474    497.471    497.471    497.471
 64.970   1070.949   1037.372     33.576    497.556   1037.272    497.556    497.556    497.556
 65.070    976.000   1016.902    -40.902    497.641   1016.822    497.641    497.641    497.641
 65.170    962.000    977.034    -15.034    497.727    976.978    497.727    497.727    497.727
 65.270    897.000    926.229    -29.229    497.813    926.196    497.813    497.813    497.813
 65.370    882.903    872.643     10.260    497.900    872.630    497.900    497.900    497.900
 65.470    836.000    822.080     13.920    497.988    822.085    497.988    497.988    497.988
 65.570    777.000    777.354     -0.354    498.076    777.372    498.076    498.076    498.076
 65.670    790.885    738.858     52.027    498.165    738.884    498.165    498.165    498.165
 65.770    641.000    705.840    -64.840    498.255    705.869    498.255    498.255    498.255
 65.870    634.543    677.644    -43.102    498.345    677.672    498.345    498.345    498.345
 65.970    655.397    654.028      1.368    498.436    654.051    498.436    498.436    498.436
 66.070    680.000    634.900     45.100    498.528    634.918    498.528    498.528    498.528
 66.170    669.157    620.089     49.068    498.620    620.102    498.620    498.620    498.620
 66.270    567.000    609.297    -42.297    498.712    609.305    498.712    498.712    498.712
 66.370    651.086    602.147     48.939    498.805    602.152    498.805    498.805    498.805
 66.470    581.000    598.250    -17.250    498.899    598.253    498.899    498.899    498.899
 66.570    554.000    597.259    -43.259    498.993    597.260    498.993    498.993    498.993
 66.670    581.878    598.940    -17.062    499.088    598.942    499.088    499.088    499.088
 66.770    600.000    603.286     -3.286    499.183    603.288    499.183    499.183    499.183
 66.870    621.000    610.651     10.349    499.278    610.654    499.278    499.278    499.278
 66.970    596.000    621.931    -25.931    499.374    621.935    499.374    499.374    499.374
 67.070    677.183    638.781     38.402    499.470    638.785    499.470    499.470    499.470
 67.170    654.000    663.856     -9.856    499.567    663.860    499.567    499.567    499.567
 67.270    754.854    700.999     53.855    499.664    701.003    499.664    499.664    499.664
 67.370    695.000    755.268    -60.268    499.762    755.271    499.762    499.762    499.762
 67.470    815.000    832.623    -17.623    499.860    832.626    499.860    499.860    499.860
 67.570    970.190    939.147     31.043    499.958    939.151    499.958    499.958    499.958
 67.670   1030.451   1079.739    -49.288    500.057   1079.747    500.057    500.057    500.057
 67.770   1336.254   1256.388     79.866    500.156   1256.404    500.156    500.156    500.156
 67.870   1334.000   1466.267   -132.267    500.255   1466.298    500.255    500.255    500.255
 67.970   1727.000   1699.889     27.111    500.354   1699.944    500.354    500.354    500.354
 68.070   1906.000   1939.500    -33.500    500.454   1939.589    500.454    500.454    500.454
 68.170   2074.000   2158.157    -84.157    500.554   2158.291    500.554    500.554    500.554
 68.270   2282.000   2321.584    -39.584    500.655   2321.772    500.655    500.655    500.655
 68.370   2367.000   2396.530    -29.530    500.755   2396.775    500.755    500.755    500.755
 68.470   2354.000   2365.307    -11.307    500.856   2365.601    500.856    500.856    500.856
 68.570   2280.000   2235.797     44.203    500.957   2236.118    500.957    500.957    500.957
 68.670   2203.000   2036.579    166.421    501.058   2036.902    501.058    501.058    501.058
 68.770   1736.631   1802.708    -66.077    501.159   1803.010    501.159    501.159    501.159
 68.870   1571.000   1564.546      6.454    501.261   1564.812    501.261    501.261    501.261
 68.970   1318.000   1343.652    -25.652    501.362   1343.876    501.362    501.362    501.362
 69.070   1090.000   1152.827    -62.827    501.464   1153.007    501.464    501.464    501.464
 69.170   1029.000    997.498     31.502    501.566    997.637    501.566    501.566    501.566
 69.270    850.000    877.478    -27.478    501.668    877.582    501.668    501.668    501.668
 69.370    824.897    788.874     36.022    501.770    788.951    501.770    501.770    501.770
 69.470    761.174    725.923     35.251    501.872    725.978    501.872    501.872    501.872
 69.570    632.000    682.487    -50.487    501.974    682.526    501.974    501.974    501.974
 69.670    626.000    653.051    -27.051    502.076    653.079    502.076    502.076    502.076
 69.770    620.000    633.209    -13.209    502.178    633.229    502.178    502.178    502.178
 69.870    598.000    619.748    -21.748    502.280    619.764    502.280    502.280    502.280
 69.970    660.924    610.498     50.426    502.382    610.510    502.382    502.382    502.382
 70.070    652.000    604.084     47.916    502.485    604.093    502.485    502.485    502.485
 70.170    610.219    599.684     10.534    502.587    599.691    502.587    502.587    502.587
 70.270    603.000    596.836      6.164    502.689    596.841    502.689    502.689    502.689
 70.370    588.000    595.310     -7.310    502.791    595.313    502.791    502.791    502.791
 70.470    606.000    595.039     10.961    502.893    595.041    502.893    502.893    502.893
 70.570    620.032    596.099     23.933    502.994    596.099    502.994    502.994    502.994
 70.670    614.000    598.730     15.270    503.096    598.728    503.096    503.096    503.096
 70.770    588.000    603.401    -15.401    503.198    603.396    503.198    503.198    503.198
 70.870    562.864    610.908    -48.044    503.299    610.900    503.299    503.299    503.299
 70.970    648.000    622.500     25.500    503.400    622.487    503.400    503.400    503.400
 71.070    630.000    640.005    -10.005    503.501    639.987    503.501    503.501    503.501
 71.170    649.476    665.920    -16.445    503.602    665.894    503.602    503.602    503.602
 71.270    659.390    703.385    -43.995    503.703    703.347    503.703    503.703    503.703
 71.370    742.000    755.977    -13.977    503.803    755.925    503.803    503.803    503.803
 71.470    820.328    827.264     -6.937    503.904    827.194    503.904    503.904    503.904
 71.570    893.140    920.096    -26.956    504.004    920.004    504.004    504.004    504.004
 71.670   1033.000   1035.697     -2.697    504.103   1035.581    504.103    504.103    504.103
 71.770   1175.098   1172.674      2.424    504.203   1172.534    504.203    504.203    504.203
 71.870   1252.060   1326.067    -74.007    504.302   1325.906    504.302    504.302    504.302
 71.970   1475.242   1486.523    -11.281    504.401   1486.345    504.401    504.401    504.401
 72.070   1595.000   1639.752    -44.752    504.499   1639.567    504.499    504.499    504.499
 72.170   1737.212   1766.909    -29.697    504.598   1766.731    504.598    504.598    504.598
 72.270   1844.000   1847.425     -3.425    504.695   1847.267    504.695    504.695    504.695
 72.370   1924.000   1865.339     58.661    504.793   1865.211    504.793    504.793    504.793
 72.470   1867.000   1816.600     50.400    504.890   1816.507    504.890    504.890    504.890
 72.570   1652.206   1711.322    -59.116    504.987   1711.260    504.987    504.987    504.987
 72.670   1603.000   1568.627     34.373    505.083   1568.591    505.083    505.083    505.083
 72.770   1480.000   1408.986     71.014    505.179   1408.968    505.179    505.179    505.179
 72.870   1290.000   1249.343     40.657    505.275   1249.338    505.275    505.275    505.275
 72.970   1061.832   1101.656    -39.823    505.370   1101.658    505.370    505.370    505.370
 73.070    993.000    973.121     19.879    505.464    973.127    505.464    505.464    505.464
 73.170    860.160    866.910     -6.750    505.558    866.916    505.558    505.558    505.558
 73.270    844.000    783.067     60.933    505.652    783.072    505.652    505.652    505.652
 73.370    802.000    719.495     82.505    505.745    719.499    505.745    505.745    505.745
 73.470    698.859    672.925     25.934    505.838    672.928    505.838    505.838    505.838
 73.570    697.000    639.735     57.265    505.930    639.737    505.930    505.930    505.930
 73.670    679.000    616.539     62.461    506.021    616.540    506.021    506.021    506.021
 73.770    624.000    600.519     23.481    506.112    600.521    506.112    506.112    506.112
 73.870    601.180    589.536     11.644    506.203    589.539    506.203    506.203    506.203
 73.970    615.000    582.083     32.917    506.293    582.088    506.293    506.293    506.293
 74.070    551.511    577.164    -25.652    506.382    577.171    506.382    506.382    506.382
 74.170    586.000    574.142     11.858    506.470    574.152    506.470    506.470    506.470
 74.270    606.000    572.603     33.397    506.558    572.618    506.558    506.558    506.558
 74.370    553.558    572.245    -18.687    506.646    572.264    506.646    506.646    506.646
 74.470    545.398    572.791    -27.393    506.732    572.816    506.732    506.732    506.732
 74.570    547.290    573.941    -26.650    506.818    573.972    506.818    506.818    506.818
 74.670    550.988    575.330    -24.342    506.904    575.367    506.904    506.904    506.904
 74.770    571.710    576.526     -4.816    506.988    576.568    506.988    506.988    506.988
 74.870    675.000    577.068     97.932    507.072    577.113    507.072    507.072    507.072
 74.970    688.000    576.583    111.417    507.156    576.630    507.156    507.156    507.156
 75.070    639.000    574.941     64.059    507.238    574.987    507.238    507.238    507.238
 75.170    575.455    572.332      3.123    507.320    572.374    507.320    507.320    507.320
 75.270    681.000    569.190    111.810    507.401    569.227    507.401    507.401    507.401
 75.370    594.000    566.054     27.946    507.481    566.085    507.481    507.481    507.481
 75.470    511.949    563.466    -51.517    507.561    563.490    507.561    507.561    507.561
 75.570    620.000    561.940     58.060    507.639    561.958    507.639    507.639    507.639
 75.670    524.711    561.966    -37.255    507.717    561.977    507.717    507.717    507.717
 75.770    580.000    564.011     15.989    507.794    564.015    507.794    507.794    507.794
 75.870    614.632    568.511     46.121    507.870    568.509    507.870    507.870    507.870
 75.970    576.755    575.840      0.915    507.946    575.830    507.946    507.946    507.946
 76.070    623.000    586.252     36.748    508.020    586.234    508.020    508.020    508.020
 76.170    556.396    599.812    -43.416    508.094    599.787    508.094    508.094    508.094
 76.270    557.990    616.315    -58.325    508.166    616.282    508.166    508.166    508.166
 76.370    646.000    635.196     10.804    508.238    635.155    508.238    508.238    508.238
 76.470    706.000    655.463     50.537    508.309    655.414    508.309    508.309    508.309
 76.570    693.000    675.631     17.369    508.379    675.576    508.379    508.379    508.379
 76.670    638.786    693.726    -54.939    508.448    693.666    508.448    508.448    508.448
 76.770    696.000    707.436    -11.436    508.516    707.374    508.516    508.516    508.516
 76.870    705.000    714.577     -9.577    508.583    714.516    508.583    508.583    508.583
 76.970    726.000    713.811     12.189    508.649    713.754    508.649    508.649    508.649
 77.070    654.443    705.214    -50.771    508.714    705.163    508.714    508.714    508.714
 77.170    686.000    690.239     -4.239    508.779    690.195    508.779    508.779    508.779
 77.270    612.654    671.093    -58.440    508.842    671.057    508.842    508.842    508.842
 77.370    651.586    650.038      1.548    508.904    650.009    508.904    508.904    508.904
 77.470    602.357    628.963    -26.606    508.965    628.940    508.965    508.965    508.965
 77.570    615.000    609.248      5.752    509.025    609.231    509.025    509.025    509.025
 77.670    588.000    591.776     -3.776    509.084    591.763    509.084    509.084    509.084
 77.770    546.383    576.991    -30.608    509.142    576.982    509.142    509.142    509.142
 77.870    532.998    564.993    -31.995    509.199    564.986    509.199    509.199    509.199
 77.970    557.000    555.611      1.389    509.255    555.606    509.255    509.255    509.255
 78.070    585.000    548.514     36.486    509.309    548.510    509.309    509.309    509.309
 78.170    497.796    543.293    -45.497    509.363    543.290    509.363    509.363    509.363
 78.270    532.918    539.538     -6.621    509.415    539.536    509.415    509.415    509.415
 78.370    509.000    536.880    -27.880    509.467    536.878    509.467    509.467    509.467
 78.470    537.000    535.016      1.984    509.517    535.014    509.517    509.517    509.517
 78.570    519.000    533.713    -14.713    509.566    533.712    509.566    509.566    509.566
 78.670    550.529    532.808     17.720    509.614    532.807    509.614    509.614    509.614
 78.770    508.000    532.190    -24.190    509.660    532.189    509.660    509.660    509.660
 78.870    565.132    531.789     33.342    509.706    531.788    509.706    509.706    509.706
 78.970    519.000    531.568    -12.568    509.750    531.567    509.750    509.750    509.750
 79.070    564.034    531.511     32.523    509.793    531.510    509.793    509.793    509.793
 79.170    502.000    531.618    -29.618    509.835    531.617    509.835    509.835    509.835
 79.270    566.000    531.902     34.098    509.876    531.901    509.876    509.876    509.876
 79.370    556.000    532.389     23.611    509.915    532.388    509.915    509.915    509.915
 79.470    549.297    533.111     16.187    509.953    533.109    509.953    509.953    509.953
 79.570    543.452    534.112      9.340    509.990    534.110    509.990    509.990    509.990
 79.670    582.000    535.447     46.553    510.025    535.445    510.025    510.025    510.025
 79.770    568.763    537.186     31.577    510.060    537.184    510.060    510.060    510.060
 79.870    591.208    539.418     51.790    510.093    539.416    510.093    510.093    510.093
 79.970    543.346    542.259      1.087    510.124    542.256    510.124    510.124    510.124
 80.070    530.000    545.855    -15.855    510.155    545.851    510.155    510.155    510.155
 80.170    504.653    550.387    -45.734    510.184    550.383    510.184    510.184    510.184
 80.270    546.000    556.072    -10.072    510.212    556.068    510.212    510.212    510.212
 80.370    580.000    563.160     16.840    510.238    563.156    510.238    510.238    510.238
 80.470    575.000    571.930      3.070    510.263    571.927    510.263    510.263    510.263
 80.570    587.000    582.683      4.317    510.287    582.682    510.287    510.287    510.287
 80.670    590.000    595.692     -5.692    510.309    595.694    510.309    510.309    510.309
 80.770    618.714    611.130      7.584    510.330    611.135    510.330    510.330    510.330
 80.870    579.000    628.969    -49.969    510.350    628.978    510.350    510.350    510.350
 80.970    669.304    648.899     20.405    510.368    648.914    510.368    510.368    510.368
 81.070    655.000    670.276    -15.276    510.384    670.297    510.384    510.384    510.384
 81.170    747.982    692.125     55.857    510.400    692.153    510.400    510.400    510.400
 81.270    652.855    713.249    -60.394    510.414    713.284    510.414    510.414    510.414
 81.370    680.877    732.399    -51.523    510.426    732.441    510.426    510.426    510.426
 81.470    736.000    748.458    -12.458    510.437    748.508    510.437    510.437    510.437
 81.570    820.779    760.541     60.238    510.447    760.597    510.447    510.447    510.447
 81.670    777.612    768.062      9.550    510.455    768.124    510.455    510.455    510.455
 81.770    718.000    770.800    -52.800    510.462    770.867    510.462    510.462    510.462
 81.870    794.262    768.878     25.384    510.467    768.949    510.467    510.467    510.467
 81.970    810.020    762.639     47.381    510.471    762.712    510.471    510.471    510.471
 82.070    725.000    752.553    -27.553    510.473    752.627    510.473    510.473    510.473
 82.170    809.000    739.253     69.747    510.474    739.328    510.474    510.474    510.474
 82.270    723.000    723.590     -0.590    510.473    723.664    510.473    510.473    510.473
 82.370    762.008    706.528     55.480    510.471    706.599    510.471    510.471    510.471
 82.470    658.958    688.933    -29.975    510.467    689.001    510.467    510.467    510.467
 82.570    672.000    671.422      0.578    510.462    671.486    510.462    510.462    510.462
 82.670    690.000    654.379     35.621    510.455    654.438    510.455    510.455    510.455
 82.770    601.752    638.085    -36.334    510.446    638.139    510.446    510.446    510.446
 82.870    565.329    622.847    -57.519    510.436    622.894    510.436    510.436    510.436
 82.970    588.748    609.015    -20.268    510.425    609.056    510.425    510.425    510.425
 83.070    609.000    596.930     12.070    510.412    596.963    510.412    510.412    510.412
 83.170    564.000    586.857    -22.857    510.397    586.883    510.397    510.397    510.397
 83.270    558.000    578.966    -20.966    510.381    578.983    510.381    510.381    510.381
 83.370    569.973    573.321     -3.348    510.363    573.331    510.363    510.363    510.363
 83.470    518.000    569.893    -51.893    510.344    569.894    510.344    510.344    510.344
 83.570    612.865    568.560     44.305    510.323    568.553    510.323    510.323    510.323
 83.670    521.233    569.107    -47.874    510.301    569.092    510.301    510.301    510.301
 83.770    616.883    571.225     45.658    510.276    571.202    510.276    510.276    510.276
 83.870    620.215    574.514     45.701    510.251    574.484    510.251    510.251    510.251
 83.970    561.000    578.479    -17.479    510.223    578.443    510.223    510.223    510.223
 84.070    541.532    582.546    -41.014    510.194    582.504    510.194    510.194    510.194
 84.170    571.000    586.078    -15.078    510.164    586.032    510.164    510.164    510.164
 84.270    576.000    588.445    -12.445    510.131    588.396    510.131    510.131    510.131
 84.370    620.856    589.133     31.723    510.098    589.084    510.098    510.098    510.098
 84.470    598.000    587.879     10.121    510.062    587.832    510.062    510.062    510.062
 84.570    528.000    584.746    -56.746    510.025    584.703    510.025    510.025    510.025
 84.670    606.530    580.076     26.453    509.986    580.037    509.986    509.986    509.986
 84.770    520.000    574.362    -54.362    509.945    574.328    509.945    509.945    509.945
 84.870    538.913    568.118    -29.205    509.903    568.089    509.903    509.903    509.903
 84.970    537.214    561.797    -24.583    509.859    561.772    509.859    509.859    509.859
 85.070    534.000    555.758    -21.758    509.814    555.738    509.814    509.814    509.814
 85.170    504.000    550.259    -46.259    509.767    550.242    509.767    509.767    509.767
 85.270    493.249    545.460    -52.210    509.718    545.446    509.718    509.718    509.718
 85.370    549.000    541.400      7.600    509.667    541.389    509.667    509.667    509.667
 85.470    567.000    538.155     28.845    509.615    538.146    509.615    509.615    509.615
 85.570    491.678    535.683    -44.005    509.561    535.675    509.561    509.561    509.561
 85.670    492.000    533.892    -41.892    509.506    533.885    509.506    509.506    509.506
 85.770    552.000    532.700     19.300    509.448    532.693    509.448    509.448    509.448
 85.870    540.981    532.032      8.948    509.389    532.025    509.389    509.389    509.389
 85.970    531.000    531.832     -0.832    509.329    531.824    509.329    509.329    509.329
 86.070    578.000    532.066     45.934    509.266    532.057    509.266    509.266    509.266
 86.170    522.000    532.734    -10.734    509.202    532.724    509.202    509.202    509.202
 86.270    479.524    533.868    -54.344    509.136    533.857    509.136    509.136    509.136
 86.370    567.000    535.533     31.467    509.068    535.519    509.068    509.068    509.068
 86.470    537.000    537.820     -0.820    508.999    537.803    508.999    508.999    508.999
 86.570    554.000    540.842     13.158    508.928    540.821    508.928    508.928    508.928
 86.670    546.000    544.723      1.277    508.855    544.697    508.855    508.855    508.855
 86.770    528.000    549.581    -21.581    508.781    549.550    508.781    508.781    508.781
 86.870    607.000    555.516     51.484    508.705    555.477    508.705    508.705    508.705
 86.970    569.241    562.582      6.658    508.627    562.535    508.627    508.627    508.627
 87.070    572.000    570.768      1.232    508.547    570.711    508.547    508.547    508.547
 87.170    591.000    579.963     11.037    508.465    579.896    508.465    508.465    508.465
 87.270    593.000    589.944      3.056    508.382    589.866    508.382    508.382    508.382
 87.370    612.858    600.349     12.508    508.297    600.261    508.297    508.297    508.297
 87.470    561.195    610.675    -49.480    508.211    610.577    508.211    508.211    508.211
 87.570    646.076    620.275     25.801    508.122    620.168    508.122    508.122    508.122
 87.670    647.902    628.402     19.500    508.032    628.289    508.032    508.032    508.032
 87.770    623.774    634.305    -10.531    507.940    634.190    507.940    507.940    507.940
 87.870    672.000    637.395     34.605    507.846    637.281    507.846    507.846    507.846
 87.970    672.000    637.417     34.583    507.751    637.309    507.751    507.751    507.751
 88.070    619.377    634.539    -15.162    507.654    634.440    507.654    507.654    507.654
 88.170    572.021    629.286    -57.264    507.555    629.198    507.555    507.555    507.555
 88.270    621.000    622.393     -1.393    507.454    622.318    507.454    507.454    507.454
 88.370    609.000    614.658     -5.658    507.352    614.596    507.352    507.352    507.352
 88.470    587.000    606.845    -19.845    507.248    606.797    507.248    507.248    507.248
 88.570    588.000    599.638    -11.638    507.142    599.602    507.142    507.142    507.142
 88.670    607.000    593.599     13.401    507.034    593.575    507.034    507.034    507.034
 88.770    545.708    589.146    -43.437    506.925    589.132    506.925    506.925    506.925
 88.870    630.000    586.534     43.466    506.814    586.530    506.814    506.814    506.814
 88.970    589.000    585.851      3.149    506.701    585.857    506.701    506.701    506.701
 89.070    596.733    587.022      9.712    506.586    587.036    506.586    506.586    506.586
 89.170    615.400    589.815     25.585    506.470    589.838    506.470    506.470    506.470
 89.270    605.000    593.862     11.138    506.352    593.893    506.352    506.352    506.352
 89.370    619.000    598.667     20.333    506.232    598.706    506.232    506.232    506.232
 89.470    567.950    603.634    -35.684    506.110    603.680    506.110    506.110    506.110
 89.570    647.000    608.098     38.902    505.987    608.151    505.987    505.987    505.987
 89.670    609.000    611.387     -2.387    505.862    611.445    505.862    505.862    505.862
 89.770    660.287    612.925     47.362    505.735    612.987    505.735    505.735    505.735
 89.870    620.000    612.347      7.653    505.607    612.411    505.607    505.607    505.607
 89.970    661.422    609.587     51.835    505.476    609.652    505.476    505.476    505.476
 90.070    545.000    604.875    -59.875    505.344    604.938    505.344    505.344    505.344
 90.170    594.000    598.650     -4.650    505.211    598.709    505.211    505.211    505.211
 90.270    553.000    591.438    -38.438    505.075    591.492    505.075    505.075    505.075
 90.370    622.297    583.757     38.539    504.938    583.806    504.938    504.938    504.938
 90.470    593.000    576.057     16.943    504.799    576.099    504.799    504.799    504.799
 90.570    501.000    568.698    -67.698    504.659    568.734    504.659    504.659    504.659
 90.670    569.998    561.946      8.052    504.516    561.976    504.516    504.516    504.516
 90.770    559.000    555.978      3.022    504.372    556.002    504.372    504.372    504.372
 90.870    530.000    550.890    -20.890    504.227    550.909    504.227    504.227    504.227
 90.970    527.000    546.711    -19.711    504.079    546.726    504.079    504.079    504.079
 91.070    508.000    543.418    -35.418    503.930    543.429    503.930    503.930    503.930
 91.170    517.627    540.953    -23.326    503.779    540.961    503.779    503.779    503.779
 91.270    561.544    539.242     22.302    503.627    539.247    503.627    503.627    503.627
 91.370    564.955    538.209     26.746    503.473    538.212    503.473    503.473    503.473
 91.470    527.000    537.790    -10.790    503.317    537.791    503.317    503.317    503.317
 91.570    503.642    537.944    -34.302    503.159    537.943    503.159    503.159    503.159
 91.670    523.000    538.659    -15.659    503.000    538.657    503.000    503.000    503.000
 91.770    544.505    539.957      4.547    502.840    539.953    502.840    502.840    502.840
 91.870    538.406    541.897     -3.491    502.677    541.891    502.677    502.677    502.677
 91.970    520.000    544.569    -24.569    502.513    544.562    502.513    502.513    502.513
 92.070    497.084    548.097    -51.013    502.347    548.087    502.347    502.347    502.347
 92.170    522.563    552.625    -30.062    502.180    552.612    502.180    502.180    502.180
 92.270    595.558    558.314     37.244    502.011    558.298    502.011    502.011    502.011
 92.370    515.000    565.325    -50.325    501.840    565.305    501.840    501.840    501.840
 92.470    610.642    573.807     36.835    501.668    573.783    501.668    501.668    501.668
 92.570    595.000    583.879     11.121    501.494    583.849    501.494    501.494    501.494
 92.670    548.713    595.613    -46.900    501.319    595.578    501.319    501.319    501.319
 92.770    583.796    609.021    -25.225    501.141    608.980    501.141    501.141    501.141
 92.870    651.000    624.033     26.967    500.963    623.985    500.963    500.963    500.963
 92.970    648.000    640.485      7.515    500.783    640.431    500.783    500.783    500.783
 93.070    626.000    658.106    -32.106    500.601    658.046    500.601    500.601    500.601
 93.170    690.000    676.511     13.489    500.417    676.445    500.417    500.417    500.417
 93.270    692.000    695.206     -3.206    500.232    695.136    500.232    500.232    500.232
 93.370    740.000    713.634     26.366    500.046    713.560    500.046    500.046    500.046
 93.470    722.546    731.254     -8.708    499.858    731.177    499.858    499.858    499.858
 93.570    748.000    747.657      0.343    499.668    747.578    499.668    499.668    499.668
 93.670    726.000    762.657    -36.657    499.477    762.578    499.477    499.477    499.477
 93.770    760.000    776.380    -16.380    499.284    776.301    499.284    499.284    499.284
 93.870    786.000    789.067     -3.067    499.090    788.989    499.090    499.090    499.090
 93.970    769.000    801.017    -32.017    498.895    800.941    498.895    498.895    498.895
 94.070    837.000    812.458     24.542    498.698    812.384    498.698    498.698    498.698
 94.170    807.000    823.498    -16.498    498.499    823.426    498.499    498.499    498.499
 94.270    853.281    834.163     19.118    498.299    834.094    498.299    498.299    498.299
 94.370    853.000    844.482      8.518    498.097    844.416    498.097    498.097    498.097
 94.470    897.528    854.538     42.991    497.894    854.474    497.894    497.894    497.894
 94.570    823.000    864.441    -41.441    497.690    864.381    497.690    497.690    497.690
 94.670    864.575    874.228     -9.653    497.484    874.171    497.484    497.484    497.484
 94.770    897.000    883.722     13.278    497.277    883.669    497.277    497.277    497.277
 94.870    927.819    892.442     35.377    497.068    892.393    497.068    497.068    497.068
 94.970    967.910    899.576     68.335    496.858    899.532    496.858    496.858    496.858
 95.070    991.000    904.057     86.943    496.647    904.020    496.647    496.647    496.647
 95.170    910.000    904.736      5.264    496.434    904.706    496.434    496.434    496.434
 95.270    882.000    900.641    -18.641    496.220    900.619    496.220    496.220    496.220
 95.370    964.000    891.267     72.733    496.004    891.253    496.004    496.004    496.004
 95.470    861.000    876.769    -15.769    495.787    876.763    495.787    495.787    495.787
 95.570    897.000    857.967     39.033    495.569    857.967    495.569    495.569    495.569
 95.670    815.000    836.174    -21.174    495.350    836.179    495.350    495.350    495.350
 95.770    837.000    812.960     24.040    495.129    812.967    495.129    495.129    495.129
 95.870    751.518    789.946    -38.428    494.907    789.955    494.907    494.907    494.907
 95.970    713.000    768.684    -55.684    494.683    768.692    494.683    494.683    494.683
 96.070    739.791    750.594    -10.803    494.459    750.601    494.459    494.459    494.459
 96.170    718.000    736.948    -18.948    494.233    736.951    494.233    494.233    494.233
 96.270    720.423    728.857     -8.434    494.006    728.856    494.006    494.006    494.006
 96.370    750.000    727.273     22.727    493.777    727.267    493.777    493.777    493.777
 96.470    785.823    732.979     52.844    493.548    732.967    493.548    493.548    493.548
 96.570    735.000    746.583    -11.583    493.317    746.563    493.317    493.317    493.317
 96.670    744.000    768.501    -24.501    493.085    768.473    493.085    493.085    493.085
 96.770    755.340    798.934    -43.594    492.852    798.898    492.852    492.852    492.852
 96.870    852.000    837.835     14.165    492.618    837.790    492.618    492.618    492.618
 96.970    912.000    884.862     27.138    492.382    884.809    492.382    492.382    492.382
 97.070    978.612    939.330     39.282    492.146    939.269    492.146    492.146    492.146
 97.170    954.000   1000.153    -46.153    491.908   1000.086    491.908    491.908    491.908
 97.270   1051.000   1065.796    -14.796    491.670   1065.723    491.670    491.670    491.670
 97.370   1108.499   1134.231    -25.732    491.430   1134.154    491.430    491.430    491.430
 97.470   1163.000   1202.915    -39.915    491.189   1202.838    491.189    491.189    491.189
 97.570   1261.000   1268.801     -7.801    490.947   1268.726    490.947    490.947    490.947
 97.670   1327.000   1328.426     -1.426    490.704   1328.357    490.704    490.704    490.704
 97.770   1335.000   1378.133    -43.133    490.460   1378.074    490.460    490.460    490.460
 97.870   1396.000   1414.481    -18.481    490.216   1414.436    490.216    490.216    490.216
 97.970   1382.826   1434.802    -51.975    489.970   1434.773    489.970    489.970    489.970
 98.070   1434.000   1437.735     -3.735    489.723   1437.725    489.723    489.723    489.723
 98.170   1490.525   1423.520     67.005    489.475   1423.528    489.475    489.475    489.475
 98.270   1489.000   1393.886     95.114    489.227   1393.911    489.227    489.227    489.227
 98.370   1372.000   1351.645     20.355    488.977   1351.684    488.977    488.977    488.977
 98.470   1277.000   1300.174    -23.174    488.727   1300.224    488.727    488.727    488.727
 98.570   1227.000   1242.986    -15.986    488.476   1243.043    488.476    488.476    488.476
 98.670   1226.000   1183.437     42.563    488.223   1183.497    488.223    488.223    488.223
 98.770   1142.000   1124.570     17.430    487.971   1124.631    487.971    487.971    487.971
 98.870   1046.000   1069.047    -23.047    487.717   1069.105    487.717    487.717    487.717
 98.970   1019.000   1019.136     -0.136    487.462   1019.189    487.462    487.462    487.462
 99.070   1028.559    976.717     51.842    487.207    976.764    487.207    487.207    487.207
 99.170    988.000    943.297     44.703    486.951    943.337    486.951    486.951    486.951
 99.270    906.118    920.162    -14.044    486.694    920.195    486.694    486.694    486.694
 99.370    856.000    908.275    -52.275    486.437    908.300    486.437    486.437    486.437
 99.470    896.000    908.266    -12.266    486.179    908.284    486.179    486.179    486.179
 99.570    928.000    920.526      7.474    485.920    920.538    485.920    485.920    485.920
 99.670    965.000    945.189     19.811    485.660    945.196    485.660    485.660    485.660
 99.770    967.000    982.128    -15.128    485.400    982.132    485.400    485.400    485.400
 99.870    997.000   1030.938    -33.938    485.140   1030.941    485.140    485.140    485.140
 99.970   1126.921   1090.911     36.010    484.878   1090.915    484.878    484.878    484.878
100.070   1072.000   1160.993    -88.993    484.616   1161.000    484.616    484.616    484.616
100.170   1286.000   1239.735     46.265    484.354   1239.749    484.354    484.354    484.354
100.270   1326.000   1325.243      0.757    484.091   1325.265    484.091    484.091    484.091
100.370   1436.000   1415.143     20.857    483.828   1415.178    483.828    483.828    483.828
100.470   1466.196   1506.599    -40.403    483.564   1506.650    483.564    483.564    483.564
100.570   1648.000   1596.423     51.577    483.300   1596.493    483.300    483.300    483.300
100.670   1646.396   1681.311    -34.915    483.035   1681.402    483.035    483.035    483.035
100.770   1785.000   1758.118     26.882    482.770   1758.233    482.770    482.770    482.770
100.870   1921.000   1824.202     96.798    482.504   1824.341    482.504    482.504    482.504
100.970   1943.384   1877.582     65.802    482.239   1877.745    482.239    482.239    482.239
101.070   1973.554   1916.897     56.657    481.973   1917.082    481.973    481.973    481.973
101.170   1965.234   1941.211     24.023    481.706   1941.415    481.706    481.706    481.706
101.270   1988.000   1949.844     38.156    481.439   1950.065    481.439    481.439    481.439
101.370   1965.445   1942.378     23.067    481.172   1942.611    481.172    481.172    481.172
101.470   1934.000   1918.881     15.119    480.905   1919.123    480.905    480.905    480.905
101.570   1953.000   1880.234     72.766    480.638   1880.480    480.638    480.638    480.638
101.670   1741.429   1828.348    -86.919    480.370   1828.594    480.370    480.370    480.370
101.770   1767.335   1766.120      1.216    480.102   1766.361    480.102    480.102    480.102
101.870   1767.000   1697.101     69.899    479.835   1697.334    479.835    479.835    479.835
101.970   1569.000   1625.025    -56.025    479.567   1625.247    479.567    479.567    479.567
102.070   1482.860   1553.367    -70.507    479.299   1553.574    479.299    479.299    479.299
102.170   1446.000   1485.026    -39.026    479.031   1485.219    479.031    479.031    479.031
102.270   1412.000   1422.175    -10.175    478.762   1422.352    478.762    478.762    478.762
102.370   1342.228   1366.203    -23.975    478.494   1366.366    478.494    478.494    478.494
102.470   1358.000   1317.736     40.264    478.226   1317.886    478.226    478.226    478.226
102.570   1271.625   1276.685     -5.061    477.958   1276.823    477.958    477.958    477.958
102.670   1189.000   1242.312    -53.312    477.691   1242.441    477.691    477.691    477.691
102.770   1208.000   1213.325     -5.325    477.423   1213.446    477.423    477.423    477.423
102.870   1164.000   1188.012    -24.012    477.155   1188.127    477.155    477.155    477.155
102.970   1200.391   1164.429     35.963    476.888   1164.541    476.888    476.888    476.888
103.070   1126.000   1140.659    -14.659    476.621   1140.769    476.621    476.621    476.621
103.170   1055.000   1115.085    -60.085    476.354   1115.193    476.354    476.354    476.354
103.270   1126.809   1086.608     40.201    476.087   1086.715    476.087    476.087    476.087
103.370    993.000   1054.762    -61.762    475.820   1054.867    475.820    475.820    475.820
103.470   1029.000   1019.732      9.268    475.554   1019.834    475.554    475.554    475.554
103.570    977.000    982.131     -5.131    475.289    982.228    475.289    475.289    475.289
103.670    909.000    942.814    -33.814    475.023    942.906    475.023    475.023    475.023
103.770    904.000    902.737      1.263    474.758    902.824    474.758    474.758    474.758
103.870    839.000    862.833    -23.833    474.494    862.913    474.494    474.494    474.494
103.970    849.000    823.945     25.055    474.230    824.017    474.230    474.230    474.230
104.070    850.677    786.792     63.885    473.966    786.857    473.966    473.966    473.966
104.170    763.000    751.956     11.044    473.704    752.014    473.704    473.704    473.704
104.270    774.728    719.875     54.852    473.441    719.927    473.441    473.441    473.441
104.370    748.000    690.841     57.159    473.179    690.885    473.179    473.179    473.179
104.470    762.000    665.004     96.996    472.918    665.042    472.918    472.918    472.918
104.570    586.947    642.391    -55.444    472.658    642.424    472.658    472.658    472.658
104.670    672.323    622.920     49.403    472.398    622.947    472.398    472.398    472.398
104.770    665.000    606.422     58.578    472.139    606.445    472.139    472.139    472.139
104.870    626.000    592.672     33.328    471.881    592.690    471.881    471.881    471.881
104.970    624.470    581.404     43.066    471.624    581.419    471.624    471.624    471.624
105.070    621.000    572.343     48.657    471.367    572.355    471.367    471.367    471.367
105.170    574.000    565.219      8.781    471.111    565.227    471.111    471.111    471.111
105.270    639.000    559.780     79.220    470.857    559.786    470.857    470.857    470.857
105.370    564.000    555.808      8.192    470.603    555.812    470.603    470.603    470.603
105.470    625.000    553.121     71.879    470.350    553.123    470.350    470.350    470.350
105.570    612.000    551.577     60.423    470.098    551.577    470.098    470.098    470.098
105.670    542.000    551.074     -9.074    469.848    551.072    469.848    469.848    469.848
105.770    586.000    551.547     34.453    469.598    551.542    469.598    469.598    469.598
105.870    571.000    552.961     18.039    469.349    552.954    469.349    469.349    469.349
105.970    507.115    555.310    -48.195    469.102    555.301    469.102    469.102    469.102
106.070    571.112    558.608     12.504    468.856    558.598    468.856    468.856    468.856
106.170    528.000    562.884    -34.884    468.611    562.871    468.611    468.611    468.611
106.270    581.000    568.172     12.828    468.367    568.156    468.367    468.367    468.367
106.370    574.000    574.502     -0.502    468.125    574.484    468.125    468.125    468.125
106.470    550.735    581.894    -31.159    467.884    581.872    467.884    467.884    467.884
106.570    546.000    590.341    -44.341    467.644    590.317    467.644    467.644    467.644
106.670    570.000    599.806    -29.806    467.406    599.778    467.406    467.406    467.406
106.770    594.000    610.208    -16.208    467.170    610.177    467.170    467.170    467.170
106.870    655.000    621.421     33.579    466.934    621.387    466.934    466.934    466.934
106.970    645.137    633.268     11.869    466.701    633.231    466.701    466.701    466.701
107.070    592.348    645.520    -53.171    466.469    645.480    466.469    466.469    466.469
107.170    669.000    657.885     11.115    466.238    657.844    466.238    466.238    466.238
107.270    640.000    670.042    -30.042    466.009    669.999    466.009    466.009    466.009
107.370    663.000    681.649    -18.649    465.782    681.605    465.782    465.782    465.782
107.470    715.050    692.303     22.747    465.557    692.259    465.557    465.557    465.557
107.570    714.000    701.626     12.374    465.334    701.582    465.334    465.334    465.334
107.670    745.000    709.294     35.706    465.112    709.251    465.112    465.112    465.112
107.770    688.000    715.087    -27.087    464.892    715.047    464.892    464.892    464.892
107.870    687.000    718.932    -31.932    464.674    718.895    464.674    464.674    464.674
107.970    692.000    720.926    -28.926    464.458    720.892    464.458    464.458    464.458
108.070    683.921    721.321    -37.400    464.244    721.291    464.244    464.244    464.244
108.170    700.000    720.486    -20.486    464.032    720.461    464.032    464.032    464.032
108.270    736.000    718.851     17.149    463.823    718.830    463.823    463.823    463.823
108.370    684.000    716.846    -32.846    463.615    716.828    463.615    463.615    463.615
108.470    688.248    714.855    -26.607    463.409    714.842    463.409    463.409    463.409
108.570    679.000    713.188    -34.188    463.206    713.179    463.206    463.206    463.206
108.670    673.202    712.062    -38.860    463.005    712.057    463.005    463.005    463.005
108.770    698.000    711.589    -13.589    462.806    711.587    462.806    462.806    462.806
108.870    690.000    711.774    -21.774    462.610    711.775    462.610    462.610    462.610
108.970    675.000    712.515    -37.515    462.416    712.520    462.416    462.416    462.416
109.070    683.000    713.612    -30.612    462.224    713.620    462.224    462.224    462.224
109.170    653.731    714.776    -61.045    462.035    714.787    462.035    462.035    462.035
109.270    715.000    715.650     -0.650    461.849    715.664    461.849    461.849    461.849
109.370    726.210    715.841     10.369    461.665    715.858    461.665    461.665    461.665
109.470    706.000    714.962     -8.962    461.483    714.981    461.483    461.483    461.483
109.570    742.722    712.682     30.040    461.305    712.703    461.305    461.305    461.305
109.670    715.810    708.775      7.035    461.129    708.798    461.129    461.129    461.129
109.770    739.000    703.153     35.847    460.955    703.178    460.955    460.955    460.955
109.870    716.630    695.874     20.756    460.785    695.900    460.785    460.785    460.785
109.970    711.000    687.121     23.879    460.617    687.147    460.617    460.617    460.617
110.070    683.657    677.169      6.488    460.453    677.195    460.453    460.453    460.453
110.170    663.792    666.344     -2.552    460.291    666.369    460.291    460.291    460.291
110.270    653.000    654.984     -1.984    460.133    655.008    460.133    460.133    460.133
110.370    689.000    643.416     45.584    459.977    643.438    459.977    459.977    459.977
110.470    631.889    631.936     -0.047    459.824    631.957    459.824    459.824    459.824
110.570    643.000    620.808     22.192    459.675    620.826    459.675    459.675    459.675
110.670    588.697    610.250    -21.553    459.529    610.266    459.529    459.529    459.529
110.770    586.522    600.439    -13.917    459.386    600.454    459.386    459.386    459.386
110.870    638.000    591.511     46.489    459.247    591.523    459.247    459.247    459.247
110.970    615.000    583.556     31.444    459.110    583.566    459.110    459.110    459.110
111.070    601.000    576.629     24.371    458.978    576.637    458.978    458.978    458.978
111.170    544.358    570.747    -26.390    458.848    570.753    458.848    458.848    458.848
111.270    593.000    565.898     27.102    458.722    565.902    458.722    458.722    458.722
111.370    525.711    562.042    -36.331    458.600    562.045    458.600    458.600    458.600
111.470    579.434    559.123     20.311    458.482    559.124    458.482    458.482    458.482
111.570    546.613    557.069    -10.455    458.367    557.068    458.367    458.367    458.367
111.670    554.000    555.799     -1.799    458.255    555.797    458.255    458.255    458.255
111.770    538.000    555.232    -17.232    458.148    555.228    458.148    458.148    458.148
111.870    557.000    555.283      1.717    458.044    555.279    458.044    458.044    458.044
111.970    509.403    555.875    -46.472    457.944    555.870    457.944    457.944    457.944
112.070    580.000    556.934     23.066    457.849    556.928    457.849    457.849    457.849
112.170    573.000    558.391     14.609    457.757    558.384    457.757    457.757    457.757
112.270    549.000    560.198    -11.198    457.669    560.191    457.669    457.669    457.669
112.370    576.000    562.304     13.696    457.586    562.296    457.586    457.586    457.586
112.470    512.330    564.694    -52.365    457.506    564.686    457.506    457.506    457.506
112.570    563.000    567.342     -4.342    457.431    567.333    457.431    457.431    457.431
112.670    646.000    570.243     75.757    457.360    570.234    457.360    457.360    457.360
112.770    547.000    573.406    -26.406    457.293    573.396    457.293    457.293    457.293
112.870    599.000    576.854     22.146    457.231    576.845    457.231    457.231    457.231
112.970    635.000    580.624     54.376    457.173    580.615    457.173    457.173    457.173
113.070    588.105    584.767      3.338    457.120    584.757    457.120    457.120    457.120
113.170    612.334    589.348     22.986    457.071    589.338    457.071    457.071    457.071
113.270    589.000    594.454     -5.454    457.027    594.443    457.027    457.027    457.027
113.370    552.000    600.192    -48.192    456.987    600.180    456.987    456.987    456.987
113.470    570.441    606.700    -36.259    456.953    606.688    456.953    456.953    456.953
113.570    636.000    614.155     21.845    456.923    614.142    456.923    456.923    456.923
113.670    648.000    622.780     25.220    456.898    622.766    456.898    456.898    456.898
113.770    670.000    632.859     37.141    456.878    632.843    456.878    456.878    456.878
113.870    649.047    644.751      4.296    456.862    644.732    456.862    456.862    456.862
113.970    686.000    658.902     27.098    456.852    658.880    456.852    456.852    456.852
114.070    719.000    675.869     43.131    456.847    675.844    456.847    456.847    456.847
114.170    737.000    696.334     40.666    456.847    696.305    456.847    456.847    456.847
114.270    743.000    721.125     21.875    456.853    721.090    456.853    456.853    456.853
114.370    747.000    751.232     -4.232    456.863    751.189    456.863    456.863    456.863
114.470    827.338    787.819     39.518    456.879    787.767    456.879    456.879    456.879
114.570    845.795    832.241     13.553    456.901    832.178    456.901    456.901    456.901
114.670    920.000    886.038     33.962    456.928    885.961    456.928    456.928    456.928
114.770    991.191    950.931     40.259    456.960    950.839    456.960    456.960    456.960
114.870   1084.000   1028.806     55.194    456.998   1028.695    456.998    456.998    456.998
114.970   1179.730   1121.671     58.059    457.042   1121.539    457.042    457.042    457.042
115.070   1243.000   1231.616     11.384    457.091   1231.459    457.091    457.091    457.091
115.170   1396.664   1360.736     35.928    457.146   1360.551    457.146    457.146    457.146
115.270   1544.000   1511.052     32.948    457.208   1510.837    457.208    457.208    457.208
115.370   1806.000   1684.404    121.596    457.275   1684.155    457.275    457.275    457.275
115.470   1847.102   1882.336    -35.234    457.347   1882.050    457.347    457.347    457.347
115.570   2191.000   2105.969     85.031    457.427   2105.646    457.427    457.427    457.427
115.670   2521.000   2355.875    165.125    457.512   2355.513    457.512    457.512    457.512
115.770   2729.000   2631.939     97.061    457.603   2631.538    457.603    457.603    457.603
115.870   2916.000   2933.246    -17.246    457.701   2932.808    457.701    457.701    457.701
115.970   3362.000   3257.975    104.025    457.804   3257.502    457.804    457.804    457.804
116.070   3647.000   3603.312     43.688    457.915   3602.809    457.915    457.915    457.915
116.170   4039.000   3965.396     73.604    458.032   3964.868    458.032    458.032    458.032
116.270   4273.007   4339.285    -66.278    458.155   4338.739    458.155    458.155    458.155
116.370   4747.000   4718.958     28.042    458.285   4718.403    458.285    458.285    458.285
116.470   5016.676   5097.342    -80.665    458.421   5096.788    458.421    458.421    458.421
116.570   5502.096   5466.382     35.714    458.565   5465.842    458.565    458.565    458.565
116.670   5919.028   5817.170    101.858    458.715   5816.657    458.715    458.715    458.715
116.770   6186.000   6140.151     45.849    458.872   6139.679    458.872    458.872    458.872
116.870   6399.000   6425.456    -26.456    459.035   6425.039    459.035    459.035    459.035
116.970   6707.188   6663.392     43.797    459.206   6663.045    459.206    459.206    459.206
117.070   6879.926   6845.100     34.826    459.384   6844.837    459.384    459.384    459.384
117.170   7026.000   6963.327     62.673    459.569   6963.158    459.569    459.569    459.569
117.270   7094.000   7013.190     80.810    459.762   7013.122    459.762    459.762    459.762
117.370   7055.000   6992.764     62.236    459.962   6992.799    459.962    459.962    459.962
117.470   6950.000   6903.320     46.680    460.169   6903.455    460.169    460.169    460.169
117.570   6672.618   6749.155    -76.537    460.383   6749.384    460.383    460.383    460.383
117.670   6594.711   6537.056     57.655    460.605   6537.368    460.605    460.605    460.605
117.770   6128.366   6275.548   -147.181    460.835   6275.930    460.835    460.835    460.835
117.870   6026.145   5974.114     52.031    461.072   5974.551    461.072    461.072    461.072
117.970   5537.000   5642.509   -105.509    461.317   5642.985    461.317    461.317    461.317
118.070   5421.177   5290.234    130.943    461.570   5290.734    461.570    461.570    461.570
118.170   4932.000   4926.142      5.858    461.831   4926.654    461.831    461.831    461.831
118.270   4593.343   4558.375     34.968    462.099   4558.885    462.099    462.099    462.099
118.370   4230.429   4194.001     36.428    462.376   4194.499    462.376    462.376    462.376
118.470   3846.000   3839.039      6.961    462.661   3839.515    462.661    462.661    462.661
118.570   3512.731   3498.444     14.287    462.954   3498.892    462.954    462.954    462.954
118.670   3238.000   3176.104     61.896    463.255   3176.519    463.255    463.255    463.255
118.770   2803.000   2874.879    -71.879    463.565   2875.256    463.565    463.565    463.565
118.870   2540.000   2596.672    -56.672    463.883   2597.009    463.883    463.883    463.883
118.970   2258.000   2342.521    -84.521    464.210   2342.819    464.210    464.210    464.210
119.070   2032.000   2112.717    -80.717    464.545   2112.976    464.545    464.545    464.545
119.170   1851.000   1906.916    -55.916    464.889   1907.137    464.889    464.889    464.889
119.270   1800.552   1724.258     76.294    465.242   1724.444    465.242    465.242    465.242
119.370   1529.000   1563.488    -34.488    465.603   1563.642    465.603    465.603    465.603
119.470   1374.669   1423.062    -48.393    465.973   1423.188    465.973    465.973    465.973
119.570   1306.000   1301.248      4.752    466.353   1301.349    466.353    466.353    466.353
119.670   1254.000   1196.218     57.782    466.741   1196.298    466.741    466.741    466.741
119.770   1122.000   1106.126     15.874    467.138   1106.187    467.138    467.138    467.138
119.870   1025.000   1029.170     -4.170    467.545   1029.217    467.545    467.545    467.545
119.970    934.000    963.648    -29.648    467.961    963.683    467.961    467.961    467.961
120.070    949.863    907.986     41.877    468.387    908.012    468.387    468.387    468.387
120.170    810.000    860.764    -50.764    468.822    860.783    468.822    468.822    468.822
120.270    766.000    820.725    -54.725    469.266    820.738    469.266    469.266    469.266
120.370    855.000    786.773     68.227    469.720    786.783    469.720    469.720    469.720
120.470    764.000    757.970      6.030    470.184    757.978    470.184    470.184    470.184
120.570    684.000    733.521    -49.521    470.658    733.527    470.658    470.658    470.658
120.670    681.000    712.759    -31.759    471.141    712.765    471.141    471.141    471.141
120.770    687.150    695.132     -7.982    471.635    695.138    471.635    471.635    471.635
120.870    697.000    680.185     16.815    472.138    680.191    472.138    472.138    472.138
120.970    635.000    667.544    -32.544    472.652    667.550    472.652    472.652    472.652
121.070    629.000    656.905    -27.905    473.176    656.911    473.176    473.176    473.176
121.170    634.000    648.018    -14.018    473.710    648.025    473.710    473.710    473.710
121.270    601.206    640.679    -39.473    474.255    640.687    474.255    474.255    474.255
121.370    600.000    634.720    -34.720    474.810    634.729    474.810    474.810    474.810
121.470    616.000    630.002    -14.002    475.376    630.012    475.376    475.376    475.376
121.570    626.000    626.405     -0.405    475.952    626.417    475.952    475.952    475.952
121.670    585.000    623.830    -38.830    476.539    623.842    476.539    476.539    476.539
121.770    633.880    622.186     11.694    477.137    622.199    477.137    477.137    477.137
121.870    599.000    621.392    -22.392    477.746    621.407    477.746    477.746    477.746
121.970    637.000    621.372     15.628    478.366    621.389    478.366    478.366    478.366
122.070    601.000    622.052    -21.052    478.997    622.071    478.997    478.997    478.997
122.170    611.721    623.359    -11.639    479.639    623.380    479.639    479.639    479.639
122.270    627.000    625.217      1.783    480.292    625.240    480.292    480.292    480.292
122.370    579.735    627.547    -47.812    480.957    627.573    480.957    480.957    480.957
122.470    633.278    630.265      3.013    481.634    630.293    481.634    481.634    481.634
122.570    634.037    633.282      0.755    482.322    633.313    482.322    482.322    482.322
122.670    587.370    636.503    -49.133    483.021    636.536    483.021    483.021    483.021
122.770    592.000    639.826    -47.826    483.732    639.862    483.732    483.732    483.732
122.870    597.000    643.144    -46.144    484.456    643.183    484.456    484.456    484.456
122.970    656.000    646.345      9.655    485.191    646.387    485.191    485.191    485.191
123.070    682.361    649.314     33.047    485.938    649.359    485.938    485.938    485.938
123.170    604.195    651.936    -47.741    486.697    651.984    486.697    486.697    486.697
123.270    660.912    654.101      6.811    487.468    654.151    487.468    487.468    487.468
123.370    645.000    655.708    -10.708    488.252    655.761    488.252    488.252    488.252
123.470    658.000    656.674      1.326    489.048    656.728    489.048    489.048    489.048
123.570    669.578    656.936     12.642    489.857    656.992    489.857    489.857    489.857
123.670    679.000    656.458     22.542    490.678    656.516    490.678    490.678    490.678
123.770    653.000    655.233     -2.233    491.512    655.291    491.512    491.512    491.512
123.870    698.000    653.278     44.722    492.359    653.337    492.359    492.359    492.359
123.970    655.965    650.639      5.326    493.219    650.697    493.219    493.219    493.219
124.070    670.384    647.376     23.008    494.091    647.433    494.091    494.091    494.091
124.170    638.000    643.566     -5.566    494.977    643.622    494.977    494.977    494.977
124.270    691.000    639.292     51.708    495.876    639.347    495.876    495.876    495.876
124.370    588.058    634.643    -46.584    496.788    634.695    496.788    496.788    496.788
124.470    667.000    629.704     37.296    497.713    629.754    497.713    497.713    497.713
124.570    585.192    624.564    -39.372    498.652    624.612    498.652    498.652    498.652
124.670    613.476    619.304     -5.828    499.605    619.349    499.605    499.605    499.605
124.770    589.000    614.002    -25.002    500.571    614.044    500.571    500.571    500.571
124.870    565.979    608.730    -42.751    501.551    608.769    501.551    501.551    501.551
124.970    648.000    603.553     44.447    502.545    603.590    502.545    502.545    502.545
