neutron_powder_diffraction_0149
R_wp: 3.975
Temperature (K): 1074.000
Counts: 82962.00
Wavelength (Ã…): 2.52098
COMMENTS
Test file for demonstrating the .xyy file format in Reel1.0
END OF HEADER
   tth       Y_obs     Y_calc      Y_res    Background    Phase_1_Nuc    Phase_1_Mag    Phase_2_Nuc    Phase_2_Mag
  9.970    602.000    573.393     28.607    572.620    573.343    572.620    572.670    572.620
 10.070    576.000    573.412      2.588    572.576    573.361    572.576    572.626    572.576
 10.170    592.000    573.436     18.564    572.527    573.384    572.527    572.578    572.527
 10.270    567.165    573.466     -6.301    572.474    573.414    572.474    572.525    572.474
 10.370    526.530    573.506    -46.976    572.417    573.453    572.417    572.469    572.417
 10.470    604.000    573.557     30.443    572.355    573.504    572.355    572.408    572.355
 10.570    570.625    573.624     -2.999    572.288    573.570    572.288    572.342    572.288
 10.670    538.430    573.713    -35.283    572.218    573.659    572.218    572.271    572.218
 10.770    563.466    573.832    -10.365    572.143    573.777    572.143    572.197    572.143
 10.870    557.699    573.988    -16.289    572.064    573.933    572.064    572.118    572.064
 10.970    528.932    574.195    -45.264    571.981    574.140    571.981    572.035    571.981
 11.070    577.000    574.474      2.526    571.894    574.418    571.894    571.948    571.894
 11.170    577.495    574.852      2.643    571.802    574.796    571.802    571.857    571.802
 11.270    604.000    575.373     28.627    571.707    575.316    571.707    571.762    571.707
 11.370    577.000    576.115      0.885    571.608    576.057    571.608    571.663    571.608
 11.470    530.143    577.249    -47.106    571.504    577.191    571.504    571.560    571.504
 11.570    575.000    579.241     -4.241    571.397    579.181    571.397    571.453    571.397
 11.670    592.000    583.309      8.691    571.286    583.247    571.286    571.342    571.286
 11.770    624.000    592.050     31.950    571.171    591.982    571.171    571.227    571.171
 11.870    646.470    609.291     37.180    571.053    609.214    571.053    571.109    571.053
 11.970    606.762    637.607    -30.845    570.930    637.513    570.930    570.987    570.930
 12.070    662.473    673.049    -10.577    570.804    672.936    570.804    570.861    570.804
 12.170    709.077    700.480      8.597    570.675    700.350    570.675    570.732    570.675
 12.270    673.000    701.239    -28.239    570.542    701.109    570.542    570.599    570.542
 12.370    640.000    674.544    -34.544    570.405    674.429    570.405    570.462    570.405
 12.470    629.139    638.719     -9.580    570.264    638.624    570.264    570.322    570.264
 12.570    595.450    609.550    -14.100    570.121    609.470    570.121    570.179    570.121
 12.670    609.000    591.494     17.506    569.973    591.424    569.973    570.032    569.973
 12.770    578.000    582.157     -4.157    569.823    582.092    569.823    569.881    569.823
 12.870    581.030    577.673      3.357    569.669    577.609    569.669    569.728    569.669
 12.970    564.031    575.356    -11.325    569.512    575.294    569.512    569.571    569.512
 13.070    555.000    573.933    -18.933    569.351    573.871    569.351    569.411    569.351
 13.170    548.000    572.917    -24.917    569.187    572.855    569.187    569.247    569.187
 13.270    558.424    572.127    -13.703    569.020    572.065    569.020    569.081    569.020
 13.370    615.980    571.484     44.496    568.850    571.422    568.850    568.911    568.850
 13.470    563.000    570.943     -7.943    568.677    570.881    568.677    568.738    568.677
 13.570    564.000    570.475     -6.475    568.501    570.414    568.501    568.562    568.501
 13.670    569.000    570.062     -1.062    568.322    570.000    568.322    568.383    568.322
 13.770    620.000    569.692     50.308    568.139    569.629    568.139    568.201    568.139
 13.870    568.224    569.354     -1.130    567.954    569.287    567.954    568.020    567.954
 13.970    615.330    569.035     46.295    567.766    568.967    567.766    567.834    567.766
 14.070    597.000    568.733     28.267    567.575    568.665    567.575    567.643    567.575
 14.170    532.000    568.445    -36.445    567.381    568.376    567.381    567.450    567.381
 14.270    568.000    568.167     -0.167    567.185    568.098    567.185    567.253    567.185
 14.370    552.955    567.898    -14.943    566.985    567.829    566.985    567.054    566.985
 14.470    557.154    567.636    -10.482    566.783    567.566    566.783    566.853    566.783
 14.570    557.000    567.378    -10.378    566.579    567.308    566.579    566.648    566.579
 14.670    547.801    567.125    -19.324    566.371    567.055    566.371    566.441    566.371
 14.770    588.000    566.874     21.126    566.161    566.804    566.161    566.232    566.161
 14.870    572.000    566.626      5.374    565.949    566.555    565.949    566.019    565.949
 14.970    561.653    566.379     -4.726    565.734    566.308    565.734    565.805    565.734
 15.070    528.000    566.133    -38.133    565.516    566.061    565.516    565.588    565.516
 15.170    558.000    565.888     -7.888    565.296    565.816    565.296    565.368    565.296
 15.270    557.000    565.643     -8.643    565.073    565.570    565.073    565.146    565.073
 15.370    589.000    565.398     23.602    564.849    565.325    564.849    564.921    564.849
 15.470    557.914    565.153     -7.239    564.621    565.079    564.621    564.695    564.621
 15.570    547.140    564.907    -17.767    564.392    564.833    564.392    564.465    564.392
 15.670    566.352    564.661      1.691    564.160    564.587    564.160    564.234    564.160
 15.770    547.000    564.414    -17.414    563.926    564.339    563.926    564.000    563.926
 15.870    559.000    564.166     -5.166    563.690    564.091    563.690    563.765    563.690
 15.970    529.000    563.917    -34.917    563.451    563.841    563.451    563.527    563.451
 16.070    582.000    563.667     18.333    563.211    563.591    563.211    563.286    563.211
 16.170    533.000    563.416    -30.416    562.968    563.339    562.968    563.044    562.968
 16.270    561.000    563.166     -2.166    562.723    563.089    562.723    562.800    562.723
 16.370    553.000    562.912     -9.912    562.477    562.835    562.477    562.554    562.477
 16.470    571.343    562.658      8.686    562.228    562.580    562.228    562.305    562.228
 16.570    532.741    562.402    -29.661    561.977    562.323    561.977    562.055    561.977
 16.670    586.000    562.144     23.856    561.724    562.066    561.724    561.803    561.724
 16.770    589.563    561.885     27.677    561.470    561.806    561.470    561.549    561.470
 16.870    576.000    561.625     14.375    561.213    561.546    561.213    561.293    561.213
 16.970    529.000    561.364    -32.364    560.955    561.284    560.955    561.035    560.955
 17.070    558.103    561.103     -3.000    560.695    561.022    560.695    560.775    560.695
 17.170    554.000    560.840     -6.840    560.433    560.759    560.433    560.514    560.433
 17.270    558.000    560.574     -2.574    560.169    560.493    560.169    560.251    560.169
 17.370    562.101    560.308      1.793    559.904    560.226    559.904    559.986    559.904
 17.470    559.986    560.040     -0.054    559.637    559.957    559.637    559.720    559.637
 17.570    520.000    559.771    -39.771    559.369    559.688    559.369    559.452    559.369
 17.670    564.000    559.501      4.499    559.098    559.417    559.098    559.182    559.098
 17.770    532.000    559.229    -27.229    558.827    559.145    558.827    558.911    558.827
 17.870    563.000    558.957      4.043    558.553    558.872    558.553    558.638    558.553
 17.970    515.418    558.683    -43.265    558.278    558.598    558.278    558.364    558.278
 18.070    594.000    558.408     35.592    558.002    558.322    558.002    558.088    558.002
 18.170    548.445    558.131     -9.687    557.724    558.045    557.724    557.811    557.724
 18.270    592.000    557.854     34.146    557.445    557.767    557.445    557.532    557.445
 18.370    583.000    557.576     25.424    557.164    557.488    557.164    557.252    557.164
 18.470    601.000    557.296     43.704    556.882    557.208    556.882    556.971    556.882
 18.570    577.000    557.017     19.983    556.599    556.928    556.599    556.688    556.599
 18.670    602.992    556.749     46.242    556.315    556.659    556.315    556.404    556.315
 18.770    547.000    556.477     -9.477    556.029    556.386    556.029    556.119    556.029
 18.870    513.358    556.195    -42.837    555.742    556.103    555.742    555.833    555.742
 18.970    520.979    555.912    -34.933    555.453    555.818    555.453    555.547    555.453
 19.070    496.000    555.628    -59.628    555.164    555.533    555.164    555.259    555.164
 19.170    515.558    555.342    -39.784    554.873    555.246    554.873    554.969    554.873
 19.270    565.000    555.055      9.945    554.581    554.959    554.581    554.678    554.581
 19.370    558.000    554.768      3.232    554.288    554.670    554.288    554.386    554.288
 19.470    526.564    554.480    -27.915    553.994    554.381    553.994    554.093    553.994
 19.570    512.000    554.191    -42.191    553.699    554.092    553.699    553.798    553.699
 19.670    535.000    553.902    -18.902    553.403    553.802    553.403    553.503    553.403
 19.770    518.286    553.612    -35.325    553.106    553.511    553.106    553.207    553.106
 19.870    519.713    553.321    -33.608    552.808    553.219    552.808    552.910    552.808
 19.970    535.000    553.030    -18.030    552.509    552.928    552.509    552.612    552.509
 20.070    560.866    552.739      8.128    552.210    552.635    552.210    552.313    552.210
 20.170    556.433    552.447      3.986    551.909    552.342    551.909    552.013    551.909
 20.270    560.000    552.155      7.845    551.607    552.049    551.607    551.713    551.607
 20.370    523.000    551.862    -28.862    551.305    551.756    551.305    551.411    551.305
 20.470    542.000    551.570     -9.570    551.002    551.462    551.002    551.109    551.002
 20.570    530.000    551.277    -21.277    550.698    551.169    550.698    550.806    550.698
 20.670    542.110    550.984     -8.874    550.393    550.875    550.393    550.503    550.393
 20.770    557.000    550.692      6.308    550.088    550.581    550.088    550.198    550.088
 20.870    528.182    550.410    -22.228    549.782    550.299    549.782    549.894    549.782
 20.970    574.000    550.208     23.792    549.475    550.096    549.475    549.588    549.475
 21.070    519.000    549.939    -30.939    549.168    549.825    549.168    549.282    549.168
 21.170    531.000    549.648    -18.648    548.860    549.534    548.860    548.975    548.860
 21.270    551.000    549.358      1.642    548.551    549.242    548.551    548.668    548.551
 21.370    593.146    549.067     44.079    548.242    548.950    548.242    548.360    548.242
 21.470    545.000    548.778     -3.778    547.933    548.659    547.933    548.051    547.933
 21.570    516.226    548.489    -32.264    547.623    548.370    547.623    547.743    547.623
 21.670    559.248    548.202     11.046    547.312    548.081    547.312    547.433    547.312
 21.770    550.000    547.916      2.084    547.001    547.794    547.001    547.124    547.001
 21.870    563.250    547.632     15.618    546.689    547.508    546.689    546.813    546.689
 21.970    549.000    547.354      1.646    546.377    547.228    546.377    546.503    546.377
 22.070    574.000    547.121     26.879    546.065    546.994    546.065    546.192    546.065
 22.170    563.000    546.883     16.117    545.752    546.754    545.752    545.881    545.752
 22.270    579.000    546.638     32.362    545.439    546.507    545.439    545.570    545.439
 22.370    516.499    546.370    -29.871    545.126    546.238    545.126    545.258    545.126
 22.470    561.000    546.105     14.895    544.812    545.971    544.812    544.946    544.812
 22.570    558.000    545.845     12.155    544.498    545.710    544.498    544.634    544.498
 22.670    563.354    545.591     17.763    544.184    545.453    544.184    544.322    544.184
 22.770    553.000    545.343      7.657    543.870    545.204    543.870    544.009    543.870
 22.870    535.000    545.104    -10.104    543.555    544.963    543.555    543.697    543.555
 22.970    547.987    544.876      3.112    543.240    544.732    543.240    543.384    543.240
 23.070    535.000    544.660     -9.660    542.925    544.514    542.925    543.071    542.925
 23.170    580.000    544.460     35.540    542.610    544.313    542.610    542.758    542.610
 23.270    536.697    544.280     -7.583    542.295    544.130    542.295    542.445    542.295
 23.370    532.000    544.126    -12.126    541.979    543.974    541.979    542.132    541.979
 23.470    548.000    544.004      3.996    541.664    543.849    541.664    541.820    541.664
 23.570    558.000    543.926     14.074    541.349    543.768    541.349    541.507    541.349
 23.670    542.000    543.904     -1.904    541.033    543.745    541.033    541.194    541.033
 23.770    552.000    543.963      8.037    540.718    543.800    540.718    540.882    540.718
 23.870    524.000    544.135    -20.135    540.402    543.969    540.402    540.569    540.402
 23.970    578.759    544.487     34.271    540.087    544.319    540.087    540.257    540.087
 24.070    579.354    545.181     34.173    539.771    545.011    539.771    539.945    539.771
 24.170    579.915    546.646     33.269    539.456    546.473    539.456    539.633    539.456
 24.270    522.000    549.872    -27.872    539.141    549.698    539.141    539.322    539.141
 24.370    510.266    556.737    -46.471    538.826    556.564    538.826    539.010    538.826
 24.470    530.000    569.526    -39.526    538.511    569.358    538.511    538.699    538.511
 24.570    601.000    589.005     11.995    538.196    588.847    538.196    538.389    538.196
 24.670    559.867    611.251    -51.384    537.881    611.105    537.881    538.079    537.881
 24.770    581.000    625.718    -44.718    537.567    625.579    537.567    537.769    537.567
 24.870    593.731    622.174    -28.443    537.253    622.027    537.253    537.460    537.253
 24.970    574.571    603.364    -28.793    536.939    603.198    536.939    537.151    536.939
 25.070    593.000    580.833     12.167    536.625    580.646    536.625    536.843    536.625
 25.170    548.000    562.925    -14.925    536.312    562.719    536.312    536.536    536.312
 25.270    591.000    551.719     39.281    535.998    551.498    535.998    536.229    535.998
 25.370    563.334    545.707     17.627    535.686    545.475    535.686    535.923    535.686
 25.470    557.000    542.653     14.347    535.373    542.412    535.373    535.618    535.373
 25.570    528.000    540.984    -12.984    535.061    540.733    535.061    535.314    535.061
 25.670    522.048    539.920    -17.872    534.749    539.661    534.749    535.010    534.749
 25.770    580.000    539.162     40.838    534.438    538.894    534.438    534.708    534.438
 25.870    575.000    538.566     36.434    534.127    538.288    534.127    534.406    534.127
 25.970    511.412    538.058    -26.646    533.816    537.769    533.816    534.106    533.816
 26.070    558.512    537.632     20.880    533.506    537.331    533.506    533.807    533.506
 26.170    524.756    537.274    -12.519    533.196    536.962    533.196    533.509    533.196
 26.270    551.893    536.976     14.918    532.887    536.650    532.887    533.213    532.887
 26.370    562.682    536.731     25.951    532.578    536.391    532.578    532.919    532.578
 26.470    554.000    536.549     17.451    532.270    536.193    532.270    532.626    532.270
 26.570    545.000    536.431      8.569    531.962    536.058    531.962    532.335    531.962
 26.670    505.000    536.348    -31.348    531.655    535.957    531.655    532.047    531.655
 26.770    531.050    536.327     -5.277    531.348    535.915    531.348    531.760    531.348
 26.870    563.000    536.382     26.618    531.042    535.948    531.042    531.477    531.042
 26.970    561.000    536.530     24.470    530.737    536.070    530.737    531.196    530.737
 27.070    565.000    536.793     28.207    530.432    536.305    530.432    530.919    530.432
 27.170    517.000    537.211    -20.211    530.128    536.692    530.128    530.646    530.128
 27.270    511.000    537.830    -26.830    529.824    537.275    529.824    530.377    529.824
 27.370    578.705    538.742     39.964    529.521    538.148    529.521    530.114    529.521
 27.470    504.000    540.086    -36.086    529.219    539.447    529.219    529.856    529.219
 27.570    553.000    542.245     10.755    528.917    541.556    528.917    529.604    528.917
 27.670    544.000    546.611     -2.611    528.616    545.863    528.616    529.361    528.616
 27.770    536.000    557.884    -21.884    528.316    557.065    528.316    529.127    528.316
 27.870    570.501    587.941    -17.440    528.017    587.035    528.017    528.905    528.017
 27.970    703.961    655.138     48.822    527.718    654.121    527.718    528.696    527.718
 28.070    774.000    767.379      6.621    527.420    766.223    527.420    528.504    527.420
 28.170    863.000    892.649    -29.649    527.123    891.340    527.123    528.333    527.123
 28.270    930.000    954.326    -24.326    526.826    952.868    526.826    528.188    526.826
 28.370    934.000    902.188     31.812    526.531    900.581    526.531    528.077    526.531
 28.470    794.163    789.719      4.443    526.236    787.919    526.236    528.011    526.236
 28.570    642.000    702.601    -60.601    525.942    700.521    525.942    528.011    525.942
 28.670    646.153    684.859    -38.706    525.649    682.389    525.649    528.105    525.649
 28.770    781.280    731.091     50.189    525.357    728.084    525.357    528.344    525.357
 28.870    759.000    800.448    -41.448    525.065    796.696    525.065    528.804    525.065
 28.970    767.000    833.102    -66.102    524.775    828.288    524.775    529.590    524.775
 29.070    796.000    793.917      2.083    524.485    787.580    524.485    530.834    524.485
 29.170    660.161    713.425    -53.264    524.197    704.964    524.197    532.670    524.197
 29.270    669.000    639.027     29.973    523.909    627.755    523.909    535.189    523.909
 29.370    606.000    592.335     13.665    523.622    577.610    523.622    538.350    523.622
 29.470    592.375    570.821     21.554    523.336    552.344    523.336    541.813    523.336
 29.570    621.000    563.087     57.913    523.051    541.403    523.051    544.733    523.051
 29.670    532.946    559.712    -26.766    522.767    536.585    522.767    545.891    522.767
 29.770    585.000    556.113     28.887    522.484    534.022    522.484    544.573    522.484
 29.870    580.000    551.483     28.517    522.203    532.367    522.203    541.316    522.203
 29.970    598.000    546.612     51.388    521.922    531.210    521.922    537.321    521.922
 30.070    512.777    542.293    -29.516    521.642    530.421    521.642    533.512    521.642
 30.170    550.000    538.923     11.077    521.363    529.978    521.363    530.306    521.363
 30.270    558.000    536.703     21.297    521.085    529.999    521.085    527.787    521.085
 30.370    490.824    536.012    -45.188    520.808    530.936    520.808    525.879    520.808
 30.470    536.000    537.894     -1.894    520.533    533.965    520.533    524.455    520.533
 30.570    556.000    544.350     11.650    520.258    541.216    520.258    523.379    520.258
 30.670    570.000    557.543     12.457    519.984    554.963    519.984    522.541    519.984
 30.770    622.000    577.227     44.773    519.712    575.042    519.712    521.860    519.712
 30.870    611.000    597.542     13.458    519.441    595.650    519.441    521.282    519.441
 30.970    610.000    606.790      3.210    519.171    605.132    519.171    520.774    519.171
 31.070    595.496    597.265     -1.769    518.902    595.807    518.902    520.314    518.902
 31.170    544.000    576.110    -32.110    518.634    574.823    518.634    519.891    518.634
 31.270    508.395    555.018    -46.623    518.367    553.873    518.367    519.496    518.367
 31.370    516.000    540.095    -24.095    518.101    539.066    518.101    519.122    518.101
 31.470    576.000    531.717     44.283    517.837    530.783    517.837    518.767    517.837
 31.570    522.848    527.659     -4.811    517.574    526.804    517.574    518.426    517.574
 31.670    562.000    525.741     36.259    517.312    524.953    517.312    518.097    517.312
 31.770    481.000    524.716    -43.716    517.051    523.986    517.051    517.779    517.051
 31.870    533.000    524.067      8.933    516.791    523.388    516.791    517.469    516.791
 31.970    508.000    523.620    -15.620    516.533    522.985    516.533    517.167    516.533
 32.070    558.000    523.313     34.687    516.276    522.717    516.276    516.871    516.276
 32.170    563.000    523.125     39.875    516.020    522.563    516.020    516.581    516.020
 32.270    562.942    523.048     39.894    515.765    522.516    515.765    516.297    515.765
 32.370    543.504    523.082     20.422    515.512    522.576    515.512    516.016    515.512
 32.470    537.122    523.236     13.886    515.260    522.754    515.260    515.740    515.260
 32.570    528.000    523.526      4.474    515.009    523.067    515.009    515.468    515.009
 32.670    548.246    523.981     24.265    514.760    523.540    514.760    515.199    514.760
 32.770    552.145    524.638     27.507    514.512    524.215    514.512    514.934    514.512
 32.870    560.095    525.555     34.539    514.265    525.148    514.265    514.671    514.265
 32.970    488.164    526.817    -38.653    514.019    526.424    514.019    514.411    514.019
 33.070    511.000    528.556    -17.556    513.775    528.175    513.775    514.154    513.775
 33.170    541.000    531.016      9.984    513.532    530.647    513.532    513.900    513.532
 33.270    512.000    534.764    -22.764    513.290    534.405    513.290    513.647    513.290
 33.370    564.582    541.328     23.254    513.050    540.977    513.050    513.397    513.050
 33.470    537.000    554.621    -17.621    512.811    554.276    512.811    513.150    512.811
 33.570    548.538    582.871    -34.334    512.574    582.530    512.574    512.904    512.574
 33.670    675.000    638.691     36.309    512.337    638.347    512.337    512.660    512.337
 33.770    767.726    733.009     34.717    512.103    732.657    512.103    512.419    512.103
 33.870    891.169    861.433     29.737    511.869    861.071    511.869    512.179    511.869
 33.970    980.000    989.214     -9.214    511.637    988.848    511.637    511.942    511.637
 34.070   1039.000   1051.570    -12.570    511.406   1051.219    511.406    511.706    511.406
 34.170   1059.816   1004.769     55.048    511.177   1004.448    511.177    511.472    511.177
 34.270    863.000    883.051    -20.051    510.949    882.758    510.949    511.240    510.949
 34.370    781.000    751.544     29.456    510.723    751.266    510.723    511.009    510.723
 34.470    617.000    650.364    -33.364    510.498    650.090    510.498    510.781    510.498
 34.570    611.411    588.106     23.305    510.275    587.832    510.275    510.554    510.275
 34.670    520.597    555.484    -34.887    510.052    555.210    510.052    510.329    510.052
 34.770    541.000    539.702      1.298    509.832    539.429    509.832    510.105    509.832
 34.870    505.368    531.757    -26.389    509.613    531.486    509.613    509.883    509.613
 34.970    488.907    527.125    -38.218    509.395    526.856    509.395    509.663    509.395
 35.070    531.421    523.969      7.452    509.179    523.702    509.179    509.445    509.179
 35.170    490.774    521.600    -30.826    508.964    521.335    508.964    509.228    508.964
 35.270    543.000    519.735     23.265    508.750    519.472    508.750    509.013    508.750
 35.370    540.794    518.229     22.565    508.538    517.967    508.538    508.800    508.538
 35.470    539.605    516.985     22.620    508.328    516.724    508.328    508.588    508.328
 35.570    550.000    515.940     34.060    508.119    515.680    508.119    508.378    508.119
 35.670    509.000    515.048     -6.048    507.912    514.790    507.912    508.170    507.912
 35.770    496.000    514.277    -18.277    507.706    514.020    507.706    507.963    507.706
 35.870    525.631    513.603     12.028    507.501    513.347    507.501    507.758    507.501
 35.970    520.000    513.008      6.992    507.299    512.752    507.299    507.555    507.299
 36.070    519.000    512.479      6.521    507.097    512.223    507.097    507.353    507.097
 36.170    484.000    512.005    -28.005    506.897    511.749    506.897    507.153    506.897
 36.270    471.381    511.579    -40.198    506.699    511.324    506.699    506.954    506.699
 36.370    499.330    511.197    -11.867    506.502    510.941    506.502    506.757    506.502
 36.470    517.000    510.854      6.146    506.307    510.599    506.307    506.562    506.307
 36.570    478.000    510.550    -32.550    506.113    510.295    506.113    506.368    506.113
 36.670    539.852    510.288     29.564    505.921    510.032    505.921    506.176    505.921
 36.770    504.000    510.075     -6.075    505.730    509.819    505.730    505.986    505.730
 36.870    504.000    509.935     -5.935    505.541    509.678    505.541    505.797    505.541
 36.970    494.831    509.927    -15.096    505.353    509.670    505.353    505.610    505.353
 37.070    532.411    510.179     22.231    505.167    509.922    505.167    505.425    505.167
 37.170    473.000    510.910    -37.910    504.983    510.652    504.983    505.241    504.983
 37.270    505.180    512.399     -7.218    504.800    512.140    504.800    505.059    504.800
 37.370    470.004    514.839    -44.836    504.618    514.580    504.618    504.878    504.618
 37.470    509.000    518.095     -9.095    504.439    517.836    504.439    504.700    504.439
 37.570    524.000    521.434      2.566    504.260    521.175    504.260    504.522    504.260
 37.670    532.000    523.514      8.486    504.084    523.255    504.084    504.347    504.084
 37.770    520.000    523.227     -3.227    503.909    522.969    503.909    504.173    503.909
 37.870    542.000    520.846     21.154    503.735    520.589    503.735    504.001    503.735
 37.970    533.000    517.568     15.432    503.563    517.311    503.563    503.830    503.563
 38.070    518.536    514.350      4.186    503.393    514.092    503.393    503.661    503.393
 38.170    541.968    511.619     30.349    503.224    511.358    503.224    503.494    503.224
 38.270    522.000    509.529     12.471    503.057    509.265    503.057    503.329    503.057
 38.370    469.000    508.062    -39.062    502.891    507.793    502.891    503.165    502.891
 38.470    513.149    507.084      6.065    502.727    506.812    502.727    503.003    502.727
 38.570    468.000    506.440    -38.440    502.565    506.164    502.565    502.842    502.565
 38.670    523.000    506.001     16.999    502.404    505.723    502.404    502.683    502.404
 38.770    545.000    505.679     39.321    502.245    505.398    502.245    502.526    502.245
 38.870    482.000    505.419    -23.419    502.087    505.137    502.087    502.370    502.087
 38.970    495.000    505.196    -10.196    501.931    504.911    501.931    502.217    501.931
 39.070    480.529    504.995    -24.466    501.777    504.708    501.777    502.064    501.777
 39.170    515.000    504.812     10.188    501.624    504.522    501.624    501.914    501.624
 39.270    497.405    504.641     -7.236    501.473    504.349    501.473    501.765    501.473
 39.370    499.000    504.482     -5.482    501.323    504.187    501.323    501.618    501.323
 39.470    503.000    504.333     -1.333    501.175    504.036    501.175    501.473    501.175
 39.570    511.713    504.193      7.520    501.029    503.893    501.029    501.329    501.029
 39.670    508.000    504.063      3.937    500.884    503.760    500.884    501.187    500.884
 39.770    509.000    503.940      5.060    500.741    503.634    500.741    501.047    500.741
 39.870    472.996    503.826    -30.829    500.599    503.517    500.599    500.908    500.599
 39.970    506.476    503.720      2.756    500.459    503.408    500.459    500.772    500.459
 40.070    518.000    503.623     14.377    500.321    503.308    500.321    500.636    500.321
 40.170    495.000    503.535     -8.535    500.184    503.217    500.184    500.503    500.184
 40.270    499.000    503.457     -4.457    500.049    503.135    500.049    500.371    500.049
 40.370    508.000    503.389      4.611    499.916    503.064    499.916    500.241    499.916
 40.470    495.000    503.332     -8.332    499.784    503.004    499.784    500.113    499.784
 40.570    478.669    503.289    -24.620    499.654    502.957    499.654    499.987    499.654
 40.670    522.000    503.261     18.739    499.525    502.924    499.525    499.862    499.525
 40.770    470.000    503.249    -33.249    499.398    502.909    499.398    499.739    499.398
 40.870    524.988    503.257     21.731    499.273    502.913    499.273    499.617    499.273
 40.970    518.000    503.289     14.711    499.149    502.941    499.149    499.498    499.149
 41.070    460.000    503.349    -43.349    499.027    502.997    499.027    499.380    499.027
 41.170    531.616    503.445     28.171    498.906    503.088    498.906    499.264    498.906
 41.270    462.439    503.584    -41.144    498.787    503.222    498.787    499.150    498.787
 41.370    534.494    503.778     30.716    498.670    503.411    498.670    499.037    498.670
 41.470    544.000    504.044     39.956    498.554    503.673    498.554    498.927    498.554
 41.570    487.329    504.409    -17.081    498.440    504.033    498.440    498.818    498.440
 41.670    524.000    504.924     19.076    498.328    504.543    498.328    498.711    498.328
 41.770    525.435    505.699     19.736    498.217    505.313    498.217    498.605    498.217
 41.870    508.741    506.996      1.745    498.107    506.605    498.107    498.502    498.107
 41.970    466.233    509.390    -43.157    498.000    508.994    498.000    498.400    498.000
 42.070    551.000    513.978     37.022    497.894    513.578    497.894    498.300    497.894
 42.170    510.938    522.423    -11.485    497.789    522.021    497.789    498.202    497.789
 42.270    574.504    536.531     37.972    497.686    536.129    497.686    498.105    497.686
 42.370    540.000    557.107    -17.107    497.585    556.708    497.585    498.011    497.585
 42.470    582.000    582.349     -0.349    497.485    581.956    497.485    497.918    497.485
 42.570    622.482    606.457     16.024    497.387    606.071    497.387    497.828    497.387
 42.670    630.000    620.172      9.828    497.291    619.787    497.291    497.739    497.291
 42.770    575.000    616.474    -41.474    497.196    616.082    497.196    497.652    497.196
 42.870    590.000    597.493     -7.493    497.103    597.086    497.103    497.567    497.103
 42.970    545.000    572.008    -27.008    497.011    571.579    497.011    497.484    497.011
 43.070    521.755    548.116    -26.361    496.921    547.664    496.921    497.402    496.921
 43.170    520.000    529.947     -9.947    496.833    529.475    496.833    497.323    496.833
 43.270    478.000    518.108    -40.108    496.746    517.619    496.746    497.246    496.746
 43.370    539.292    511.251     28.041    496.660    510.747    496.660    497.170    496.660
 43.470    519.827    507.552     12.275    496.577    507.035    496.577    497.097    496.577
 43.570    521.000    505.560     15.440    496.494    505.032    496.494    497.026    496.494
 43.670    478.649    504.405    -25.755    496.414    503.864    496.414    496.956    496.414
 43.770    504.000    503.651      0.349    496.335    503.098    496.335    496.889    496.335
 43.870    490.000    503.108    -13.108    496.257    502.542    496.257    496.824    496.257
 43.970    499.000    502.694     -3.694    496.181    502.115    496.181    496.761    496.181
 44.070    469.581    502.369    -32.788    496.107    501.777    496.107    496.700    496.107
 44.170    477.000    502.112    -25.112    496.034    501.505    496.034    496.642    496.034
 44.270    498.000    501.908     -3.908    495.963    501.286    495.963    496.586    495.963
 44.370    487.983    501.747    -13.764    495.893    501.109    495.893    496.532    495.893
 44.470    543.726    501.622     42.104    495.825    500.967    495.825    496.480    495.825
 44.570    479.000    501.527    -22.527    495.759    500.855    495.759    496.431    495.759
 44.670    518.000    501.457     16.543    495.694    500.767    495.694    496.384    495.694
 44.770    481.000    501.411    -20.411    495.630    500.702    495.630    496.340    495.630
 44.870    528.778    501.386     27.392    495.569    500.656    495.569    496.299    495.569
 44.970    483.000    501.380    -18.380    495.508    500.628    495.508    496.260    495.508
 45.070    478.912    501.393    -22.481    495.449    500.618    495.449    496.224    495.449
 45.170    485.728    501.423    -15.695    495.392    500.623    495.392    496.191    495.392
 45.270    532.742    501.470     31.272    495.336    500.645    495.336    496.161    495.336
 45.370    494.000    501.535     -7.535    495.282    500.683    495.282    496.135    495.282
 45.470    478.000    501.618    -23.618    495.229    500.736    495.229    496.111    495.229
 45.570    531.000    501.720     29.280    495.178    500.806    495.178    496.091    495.178
 45.670    469.000    501.841    -32.841    495.128    500.894    495.128    496.075    495.128
 45.770    484.000    501.983    -17.983    495.080    501.000    495.080    496.063    495.080
 45.870    494.000    502.148     -8.148    495.033    501.126    495.033    496.054    495.033
 45.970    546.735    502.338     44.397    494.988    501.275    494.988    496.051    494.988
 46.070    472.000    502.556    -30.556    494.945    501.449    494.945    496.052    494.945
 46.170    542.740    502.806     39.934    494.902    501.650    494.902    496.058    494.902
 46.270    527.086    503.093     23.993    494.862    501.885    494.862    496.069    494.862
 46.370    485.000    503.423    -18.423    494.822    502.157    494.822    496.087    494.822
 46.470    530.921    503.804     27.117    494.785    502.476    494.785    496.111    494.785
 46.570    516.000    504.246     11.754    494.748    502.851    494.748    496.142    494.748
 46.670    504.000    504.768     -0.768    494.713    503.299    494.713    496.182    494.713
 46.770    482.000    505.400    -23.400    494.680    503.849    494.680    496.230    494.680
 46.870    531.254    506.205     25.049    494.648    504.563    494.648    496.288    494.648
 46.970    513.000    507.318      5.682    494.618    505.576    494.618    496.357    494.618
 47.070    483.000    509.021    -26.021    494.589    507.168    494.589    496.438    494.589
 47.170    504.000    511.830     -7.830    494.561    509.852    494.561    496.534    494.561
 47.270    523.000    516.534      6.466    494.535    514.414    494.535    496.646    494.535
 47.370    543.209    524.072     19.137    494.510    521.791    494.510    496.777    494.510
 47.470    548.000    535.133     12.867    494.487    532.668    494.487    496.930    494.487
 47.570    541.000    549.521     -8.521    494.465    546.845    494.465    497.108    494.465
 47.670    559.000    565.489     -6.489    494.445    562.573    494.445    497.317    494.445
 47.770    633.000    579.394     53.606    494.426    576.204    494.426    497.563    494.426
 47.870    600.882    586.398     14.484    494.408    582.898    494.408    497.853    494.408
 47.970    608.000    583.664     24.336    494.392    579.806    494.392    498.199    494.392
 48.070    599.000    573.127     25.873    494.377    568.847    494.377    498.615    494.377
 48.170    552.673    559.500     -6.827    494.364    554.706    494.364    499.126    494.364
 48.270    549.000    546.901      2.099    494.352    541.463    494.352    499.769    494.352
 48.370    575.200    537.622     37.578    494.341    531.348    494.341    500.602    494.341
 48.470    577.541    532.325     45.216    494.332    524.930    494.332    501.718    494.332
 48.570    542.924    530.674     12.250    494.324    521.736    494.324    503.256    494.324
 48.670    561.000    532.017     28.983    494.317    520.914    494.317    505.415    494.317
 48.770    532.000    535.849     -3.849    494.312    521.706    494.312    508.450    494.312
 48.870    502.530    542.000    -39.470    494.308    523.650    494.308    512.653    494.308
 48.970    554.000    550.591      3.409    494.306    526.588    494.306    518.304    494.306
 49.070    580.000    561.958     18.042    494.304    530.672    494.304    525.585    494.304
 49.170    575.000    576.713     -1.713    494.305    536.551    494.305    534.459    494.305
 49.270    630.518    596.231     34.288    494.306    546.028    494.306    544.497    494.306
 49.370    580.000    623.980    -43.980    494.309    563.633    494.309    554.640    494.309
 49.470    704.000    668.107     35.893    494.313    599.350    494.313    563.042    494.313
 49.570    731.000    744.855    -13.855    494.318    671.690    494.318    567.435    494.318
 49.670    862.000    880.041    -18.041    494.325    807.942    494.325    566.342    494.325
 49.770   1085.000   1102.574    -17.574    494.333   1036.605    494.333    560.179    494.333
 49.870   1481.193   1425.908     55.284    494.342   1369.187    494.342    550.900    494.342
 49.970   1810.573   1823.241    -12.668    494.353   1776.736    494.353    540.681    494.353
 50.070   2187.000   2212.275    -25.275    494.365   2175.446    494.365    531.053    494.365
 50.170   2434.000   2468.751    -34.751    494.378   2440.274    494.378    522.806    494.378
 50.270   2464.000   2485.861    -21.861    494.392   2464.126    494.392    516.197    494.392
 50.370   2228.000   2253.175    -25.175    494.408   2236.580    494.408    511.165    494.408
 50.470   1798.000   1866.932    -68.932    494.425   1854.074    494.425    507.477    494.425
 50.570   1422.000   1455.708    -33.708    494.443   1445.486    494.443    504.843    494.443
 50.670    988.000   1112.557   -124.557    494.462   1104.175    494.462    502.981    494.462
 50.770    820.000    874.744    -54.744    494.483    867.665    494.483    501.656    494.483
 50.870    772.210    734.706     37.505    494.504    728.579    494.504    500.696    494.504
 50.970    702.064    663.074     38.990    494.527    657.670    494.527    499.978    494.527
 51.070    637.000    628.755      8.245    494.552    623.919    494.552    499.427    494.552
 51.170    630.564    609.462     21.101    494.577    605.083    494.577    498.991    494.577
 51.270    621.000    593.943     27.057    494.604    589.937    494.604    498.639    494.604
 51.370    587.643    579.077      8.565    494.631    575.379    494.631    498.353    494.631
 51.470    552.846    565.360    -12.513    494.660    561.920    494.660    498.117    494.660
 51.570    538.000    553.870    -15.870    494.690    550.649    494.690    497.923    494.690
 51.670    560.616    545.185     15.432    494.722    542.151    494.722    497.764    494.722
 51.770    544.000    539.263      4.737    494.754    536.389    494.754    497.634    494.754
 51.870    502.632    535.661    -33.029    494.788    532.925    494.788    497.528    494.788
 51.970    569.000    533.817     35.183    494.822    531.199    494.822    497.444    494.822
 52.070    534.000    533.265      0.735    494.858    530.748    494.858    497.378    494.858
 52.170    547.715    533.739     13.976    494.895    531.308    494.895    497.328    494.895
 52.270    572.858    535.210     37.649    494.933    532.852    494.933    497.292    494.933
 52.370    587.000    537.940     49.060    494.972    535.645    494.972    497.269    494.972
 52.470    526.000    542.660    -16.660    495.013    540.416    495.013    497.258    495.013
 52.570    564.000    550.906     13.094    495.054    548.704    495.054    497.256    495.054
 52.670    555.656    565.485     -9.829    495.096    563.317    495.096    497.265    495.096
 52.770    633.824    590.830     42.994    495.140    588.688    495.140    497.281    495.140
 52.870    656.000    632.773     23.227    495.185    630.649    495.185    497.306    495.185
 52.970    748.913    697.166     51.747    495.230    695.054    495.230    497.339    495.230
 53.070    839.000    787.143     51.857    495.277    785.038    495.277    497.378    495.277
 53.170    887.344    899.520    -12.176    495.325    897.418    495.325    497.425    495.325
 53.270   1063.000   1021.444     41.556    495.373   1019.342    495.373    497.478    495.373
 53.370   1085.000   1128.834    -43.834    495.423   1126.732    495.423    497.537    495.423
 53.470   1158.000   1190.628    -32.628    495.474   1188.523    495.474    497.602    495.474
 53.570   1165.000   1184.183    -19.183    495.526   1182.069    495.526    497.674    495.526
 53.670   1127.000   1112.342     14.658    495.579   1110.210    495.579    497.751    495.579
 53.770    953.730   1000.817    -47.087    495.632    998.655    495.632    497.835    495.632
 53.870    845.980    879.970    -33.990    495.687    877.768    495.687    497.925    495.687
 53.970    743.938    771.817    -27.879    495.743    769.567    495.743    498.021    495.743
 54.070    667.000    687.236    -20.236    495.800    684.932    495.800    498.123    495.800
 54.170    620.000    627.986     -7.986    495.857    625.625    495.857    498.232    495.857
 54.270    585.000    590.201     -5.201    495.916    587.778    495.916    498.347    495.916
 54.370    591.000    567.887     23.113    495.976    565.398    495.976    498.469    495.976
 54.470    548.215    555.424     -7.209    496.036    552.864    496.036    498.599    496.036
 54.570    586.000    548.688     37.312    496.098    546.052    496.098    498.736    496.098
 54.670    551.000    545.135      5.865    496.160    542.415    496.160    498.882    496.160
 54.770    562.000    543.388     18.612    496.223    540.577    496.223    499.036    496.223
 54.870    512.000    542.783    -30.783    496.288    539.872    496.288    499.199    496.288
 54.970    566.784    543.024     23.760    496.353    540.005    496.353    499.373    496.353
 55.070    534.752    543.998     -9.246    496.419    540.861    496.419    499.557    496.419
 55.170    562.000    545.683     16.317    496.485    542.418    496.485    499.752    496.485
 55.270    573.041    548.116     24.925    496.553    544.710    496.553    499.960    496.553
 55.370    540.000    551.389    -11.389    496.622    547.830    496.622    500.182    496.622
 55.470    592.950    555.678     37.272    496.691    551.951    496.691    500.419    496.691
 55.570    562.018    561.327      0.691    496.761    557.417    496.761    500.672    496.761
 55.670    543.000    569.051    -26.051    496.832    564.940    496.832    500.943    496.832
 55.770    552.000    580.389    -28.389    496.904    576.058    496.904    501.235    496.904
 55.870    603.000    598.535      4.465    496.977    593.960    496.977    501.550    496.977
 55.970    641.000    629.615     11.385    497.050    624.769    497.050    501.890    497.050
 56.070    728.472    684.084     44.387    497.125    678.938    497.125    502.259    497.125
 56.170    722.034    777.306    -55.272    497.200    771.824    497.200    502.660    497.200
 56.270    894.000    927.724    -33.724    497.276    921.866    497.276    503.098    497.276
 56.370   1146.000   1151.231     -5.231    497.352   1144.957    497.352    503.578    497.352
 56.470   1527.057   1451.875     75.182    497.429   1445.141    497.429    504.107    497.429
 56.570   1801.000   1811.475    -10.475    497.508   1804.241    497.508    504.690    497.508
 56.670   2198.000   2182.217     15.783    497.586   2174.441    497.586    505.339    497.586
 56.770   2513.000   2487.057     25.943    497.666   2478.693    497.666    506.063    497.666
 56.870   2668.000   2638.351     29.649    497.746   2629.335    497.746    506.875    497.746
 56.970   2560.000   2583.637    -23.637    497.827   2573.865    497.827    507.794    497.827
 57.070   2332.000   2344.309    -12.309    497.909   2333.623    497.909    508.841    497.909
 57.170   1994.126   1997.799     -3.673    497.991   1985.998    497.991    510.047    497.991
 57.270   1649.091   1629.279     19.812    498.075   1616.126    498.075    511.456    498.075
 57.370   1337.000   1301.016     35.984    498.158   1286.224    498.158    513.132    498.158
 57.470   1057.226   1044.776     12.450    498.243   1027.972    498.243    515.178    498.243
 57.570    900.000    866.174     33.826    498.328    846.837    498.328    517.752    498.328
 57.670    728.000    754.273    -26.273    498.413    731.647    498.413    521.092    498.413
 57.770    708.308    691.981     16.327    498.500    664.958    498.500    525.551    498.500
 57.870    657.972    663.760     -5.788    498.587    630.741    498.587    531.618    498.587
 57.970    718.000    659.343     58.657    498.674    618.094    498.674    539.923    498.674
 58.070    653.000    674.169    -21.169    498.763    621.712    498.763    551.209    498.763
 58.170    722.000    707.932     14.068    498.851    640.514    498.851    566.248    498.851
 58.270    726.630    762.356    -35.726    498.941    675.558    498.941    585.706    498.941
 58.370    815.000    838.840    -23.840    499.031    727.882    499.031    609.944    499.031
 58.470    876.000    936.326    -60.326    499.121    796.618    499.121    638.775    499.121
 58.570    987.058   1049.651    -62.593    499.212    877.654    499.212    671.150    499.212
 58.670   1226.298   1168.860     57.438    499.304    963.358    499.304    704.749    499.304
 58.770   1309.898   1280.501     29.397    499.396   1044.283    499.396    735.567    499.396
 58.870   1407.000   1370.745     36.255    499.489   1112.163    499.489    758.040    499.489
 58.970   1423.156   1427.563     -4.407    499.582   1160.458    499.582    766.674    499.582
 59.070   1428.397   1442.194    -13.796    499.676   1182.869    499.676    759.008    499.676
 59.170   1481.000   1412.918     68.082    499.770   1175.408    499.770    737.302    499.770
 59.270   1444.000   1348.902     95.098    499.865   1141.822    499.865    706.972    499.865
 59.370   1195.581   1267.912    -72.330    499.960   1094.273    499.960    673.614    499.960
 59.470   1211.000   1189.273     21.727    500.055   1048.001    500.055    641.319    500.055
 59.570   1194.000   1129.753     64.247    500.152   1017.381    500.152    612.482    500.152
 59.670   1143.000   1103.617     39.383    500.248   1015.574    500.248    588.206    500.248
 59.770   1176.291   1121.517     54.773    500.345   1053.011    500.345    568.715    500.345
 59.870   1209.000   1186.033     22.967    500.443   1132.614    500.443    553.670    500.443
 59.970   1316.000   1287.360     28.640    500.541   1245.241    500.541    542.417    500.541
 60.070   1478.000   1402.110     75.890    500.639   1368.283    500.639    534.185    500.639
 60.170   1510.000   1496.006     13.994    500.738   1468.221    500.738    528.230    500.738
 60.270   1611.758   1532.962     78.796    500.837   1509.614    500.837    523.915    500.837
 60.370   1530.772   1492.110     38.661    500.936   1472.081    500.936    520.747    500.936
 60.470   1424.000   1380.476     43.524    501.036   1362.987    501.036    518.370    501.036
 60.570   1276.000   1226.305     49.695    501.136   1210.802    501.136    516.543    501.136
 60.670   1042.949   1062.217    -19.268    501.237   1048.291    501.237    515.111    501.237
 60.770    910.272    913.722     -3.449    501.338    901.059    501.338    513.976    501.338
 60.870    833.267    795.324     37.943    501.439    783.673    501.439    513.080    501.439
 60.970    736.009    711.282     24.727    501.540    700.430    501.540    512.387    501.540
 61.070    657.000    658.968     -1.968    501.642    648.729    501.642    511.875    501.642
 61.170    620.000    633.149    -13.149    501.744    623.354    501.744    511.527    501.744
 61.270    579.641    629.597    -49.956    501.847    620.096    501.847    511.328    501.847
 61.370    655.000    647.109      7.891    501.949    637.767    501.949    511.259    501.949
 61.470    728.000    687.668     40.332    502.052    678.374    502.052    511.296    502.052
 61.570    741.000    754.925    -13.925    502.156    745.609    502.156    511.397    502.156
 61.670    859.686    851.381      8.304    502.259    842.031    502.259    511.507    502.259
 61.770    974.000    974.971     -0.971    502.363    965.649    502.363    511.552    502.363
 61.870   1112.000   1116.081     -4.081    502.467   1106.924    502.467    511.463    502.467
 61.970   1267.000   1256.075     10.925    502.571   1247.267    502.571    511.202    502.571
 62.070   1403.933   1368.496     35.437    502.676   1360.213    502.676    510.781    502.676
 62.170   1392.357   1425.325    -32.969    502.780   1417.695    502.780    510.257    502.780
 62.270   1355.000   1409.595    -54.595    502.885   1402.674    502.885    509.693    502.885
 62.370   1317.000   1325.918     -8.918    502.990   1319.695    502.990    509.144    502.990
 62.470   1176.000   1197.197    -21.197    503.095   1191.618    503.095    508.643    503.095
 62.570   1083.450   1051.812     31.638    503.201   1046.798    503.201    508.210    503.201
 62.670    895.599    913.426    -17.827    503.306    908.891    503.306    507.849    503.306
 62.770    732.000    796.933    -64.933    503.412    792.797    503.412    507.561    503.412
 62.870    704.000    708.337     -4.337    503.518    704.528    503.518    507.337    503.518
 62.970    661.000    646.731     14.269    503.624    643.191    503.624    507.171    503.624
 63.070    651.013    607.224     43.789    503.730    603.907    503.730    507.050    503.730
 63.170    593.569    583.724      9.844    503.836    580.593    503.836    506.966    503.836
 63.270    570.000    570.846     -0.846    503.942    567.873    503.942    506.912    503.942
 63.370    558.000    564.796     -6.796    504.048    561.960    504.048    506.879    504.048
 63.470    591.000    563.515     27.485    504.155    560.798    504.155    506.864    504.155
 63.570    579.000    566.479     12.521    504.261    563.869    504.261    506.862    504.261
 63.670    649.000    574.425     74.575    504.368    571.907    504.368    506.871    504.368
 63.770    597.000    589.057      7.943    504.474    586.621    504.474    506.889    504.474
 63.870    642.000    612.668     29.332    504.581    610.303    504.581    506.915    504.581
 63.970    685.000    647.535     37.465    504.687    645.230    504.687    506.948    504.687
 64.070    698.533    695.055      3.477    504.794    692.802    504.794    506.987    504.794
 64.170    784.000    754.728     29.272    504.900    752.517    504.900    507.031    504.900
 64.270    854.000    823.190     30.810    505.007    821.017    505.007    507.080    505.007
 64.370    926.000    893.586     32.414    505.114    891.450    505.114    507.133    505.114
 64.470    989.000    955.777     33.223    505.220    953.681    505.220    507.190    505.220
 64.570    970.903    998.433    -27.529    505.327    996.384    505.327    507.251    505.327
 64.670   1012.000   1013.373     -1.373    505.433   1011.380    505.433    507.316    505.433
 64.770   1049.000    999.150     49.850    505.540    997.218    505.540    507.383    505.540
 64.870    935.000    960.705    -25.705    505.646    958.837    505.646    507.454    505.646
 64.970    903.000    906.698     -3.698    505.752    904.889    505.752    507.528    505.752
 65.070    829.000    846.677    -17.677    505.858    844.921    505.858    507.604    505.858
 65.170    842.613    788.520     54.093    505.964    786.809    505.964    507.682    505.964
 65.270    707.000    736.938    -29.938    506.070    735.264    506.070    507.763    506.070
 65.370    666.000    693.620    -27.620    506.176    691.975    506.176    507.846    506.176
 65.470    670.000    658.424     11.576    506.282    656.800    506.282    507.931    506.282
 65.570    617.000    630.534    -13.534    506.388    628.926    506.388    508.018    506.388
 65.670    632.012    608.963     23.049    506.493    607.367    506.493    508.107    506.493
 65.770    573.000    592.684    -19.684    506.598    591.097    506.598    508.198    506.598
 65.870    629.633    580.730     48.903    506.703    579.152    506.703    508.290    506.703
 65.970    562.000    572.282    -10.282    506.808    570.711    506.808    508.384    506.808
 66.070    531.000    566.684    -35.684    506.913    565.119    506.913    508.480    506.913
 66.170    609.832    563.414     46.418    507.018    561.855    507.018    508.578    507.018
 66.270    527.000    562.065    -35.065    507.122    560.511    507.122    508.677    507.122
 66.370    532.000    562.342    -30.342    507.226    560.792    507.226    508.777    507.226
 66.470    520.000    564.095    -44.095    507.330    562.546    507.330    508.879    507.330
 66.570    589.000    567.387     21.613    507.434    565.839    507.434    508.983    507.434
 66.670    543.000    572.625    -29.625    507.537    571.075    507.537    509.088    507.537
 66.770    561.000    580.771    -19.771    507.641    579.218    507.641    509.195    507.641
 66.870    557.000    593.685    -36.685    507.744    592.125    507.744    509.303    507.744
 66.970    599.000    614.576    -15.576    507.846    613.007    507.846    509.413    507.846
 67.070    650.772    648.466      2.306    507.949    646.886    507.949    509.525    507.949
 67.170    670.000    702.425    -32.425    508.051    700.830    508.051    509.638    508.051
 67.270    757.000    785.218    -28.218    508.152    783.605    508.152    509.753    508.152
 67.370    865.706    905.987    -40.281    508.254    904.355    508.254    509.870    508.254
 67.470   1096.000   1071.787     24.213    508.355   1070.137    508.355    509.989    508.355
 67.570   1235.539   1284.242    -48.703    508.456   1282.580    508.456    510.109    508.456
 67.670   1581.000   1536.068     44.932    508.556   1534.401    508.556    510.232    508.556
 67.770   1854.000   1808.462     45.538    508.657   1806.803    508.657    510.357    508.657
 67.870   1994.000   2070.311    -76.311    508.756   2068.673    508.756    510.484    508.756
 67.970   2271.000   2280.603     -9.603    508.856   2278.998    508.856    510.613    508.856
 68.070   2373.472   2397.002    -23.530    508.955   2395.434    508.955    510.745    508.955
 68.170   2301.236   2391.814    -90.578    509.053   2390.271    509.053    510.880    509.053
 68.270   2309.000   2266.448     42.552    509.152   2264.903    509.152    511.018    509.152
 68.370   2109.075   2050.547     58.528    509.250   2048.965    509.250    511.159    509.250
 68.470   1807.039   1786.804     20.235    509.347   1785.151    509.347    511.304    509.347
 68.570   1521.000   1515.570      5.430    509.444   1513.825    509.444    511.453    509.444
 68.670   1311.000   1266.944     44.056    509.541   1265.093    509.541    511.605    509.541
 68.770   1063.000   1058.696      4.304    509.637   1056.733    509.637    511.762    509.637
 68.870    943.561    897.242     46.319    509.732    895.167    509.732    511.925    509.732
 68.970    801.718    780.367     21.351    509.828    778.184    509.828    512.092    509.828
 69.070    693.168    700.726     -7.558    509.922    698.437    509.922    512.266    509.922
 69.170    620.302    649.135    -28.833    510.017    646.741    510.017    512.446    510.017
 69.270    649.005    616.935     32.070    510.110    614.435    510.110    512.634    510.110
 69.370    598.000    597.216      0.784    510.204    594.605    510.204    512.829    510.204
 69.470    621.057    585.099     35.958    510.296    582.372    510.296    513.034    510.296
 69.570    588.110    577.468     10.642    510.389    574.615    510.389    513.249    510.389
 69.670    561.000    572.488    -11.488    510.480    569.498    510.480    513.476    510.480
 69.770    546.011    569.151    -23.140    510.572    566.011    510.572    513.715    510.572
 69.870    550.000    566.929    -16.929    510.662    563.625    510.662    513.969    510.662
 69.970    566.000    565.559      0.441    510.752    562.074    510.752    514.239    510.752
 70.070    575.000    564.921     10.079    510.842    561.235    510.842    514.528    510.842
 70.170    607.000    564.977     42.023    510.931    561.069    510.931    514.838    510.931
 70.270    547.583    565.763    -18.180    511.019    561.608    511.019    515.173    511.019
 70.370    526.675    567.406    -40.731    511.107    562.975    511.107    515.536    511.107
 70.470    548.000    570.182    -22.182    511.194    565.442    511.194    515.931    511.194
 70.570    594.000    574.625     19.375    511.281    569.535    511.281    516.365    511.281
 70.670    576.000    581.684     -5.684    511.367    576.198    511.367    516.844    511.367
 70.770    569.000    592.951    -23.951    511.452    587.011    511.452    517.379    511.452
 70.870    593.159    610.901    -17.742    511.537    604.436    511.537    517.983    511.537
 70.970    634.000    639.077     -5.077    511.621    631.993    511.621    518.677    511.621
 71.070    676.103    682.076     -5.974    511.704    674.247    511.704    519.491    511.704
 71.170    704.000    745.166    -41.166    511.787    736.417    511.787    520.474    511.787
 71.270    835.000    833.395      1.605    511.869    823.483    511.869    521.696    511.869
 71.370    958.034    950.206      7.829    511.951    938.773    511.951    523.270    511.951
 71.470   1050.000   1095.702    -45.702    512.031   1082.237    512.031    525.353    512.031
 71.570   1261.202   1264.999     -3.797    512.111   1248.774    512.111    528.164    512.111
 71.670   1452.000   1447.053      4.947    512.191   1427.060    512.191    531.989    512.191
 71.770   1657.000   1624.376     32.624    512.269   1599.260    512.269    537.179    512.269
 71.870   1853.056   1774.173     78.883    512.347   1742.193    512.347    544.126    512.347
 71.970   1860.000   1872.212    -12.212    512.425   1831.238    512.425    553.219    512.425
 72.070   1989.957   1900.380     89.577    512.501   1847.955    512.501    564.780    512.501
 72.170   1782.325   1854.969    -72.643    512.577   1788.464    512.577    578.974    512.577
 72.270   1698.610   1748.740    -50.130    512.652   1665.605    512.652    595.715    512.652
 72.370   1583.000   1604.419    -21.419    512.726   1502.538    512.726    614.563    512.726
 72.470   1466.000   1445.721     20.279    512.799   1323.870    512.799    634.626    512.799
 72.570   1295.000   1291.643      3.357    512.872   1150.035    512.872    654.467    512.872
 72.670   1142.000   1154.307    -12.307    512.944    995.176    512.944    672.068    512.944
 72.770   1008.000   1038.949    -30.949    513.015    866.947    513.015    685.010    513.015
 72.870    919.236    945.350    -26.115    513.085    767.375    513.085    691.054    513.085
 72.970    910.512    870.224     40.288    513.155    694.363    513.155    689.008    513.155
 73.070    839.391    809.555     29.836    513.223    643.451    513.223    679.319    513.223
 73.170    780.497    759.945     20.552    513.291    609.401    513.291    663.828    513.291
 73.270    613.000    718.917   -105.917    513.358    587.316    513.358    644.952    513.358
 73.370    685.000    684.762      0.238    513.425    573.245    513.425    624.936    513.425
 73.470    672.626    656.350     16.275    513.490    564.337    513.490    605.499    513.490
 73.570    661.026    632.965     28.061    513.554    558.727    513.554    587.792    513.554
 73.670    601.000    614.138    -13.138    513.618    555.295    513.618    572.462    513.618
 73.770    604.000    599.494      4.506    513.681    553.421    513.681    559.758    513.681
 73.870    595.985    588.648      7.337    513.743    552.773    513.743    549.625    513.743
 73.970    569.000    581.141    -12.141    513.804    553.150    513.804    541.807    513.804
 74.070    610.000    576.429     33.571    513.864    554.373    513.864    535.938    513.864
 74.170    591.000    573.894     17.106    513.923    556.219    513.923    531.622    513.923
 74.270    653.000    572.858     80.142    513.981    558.384    513.981    528.484    513.981
 74.370    558.923    572.608    -13.685    514.039    560.475    514.039    526.206    514.039
 74.470    539.165    572.438    -33.273    514.095    562.036    514.095    524.537    514.095
 74.570    655.000    571.727     83.273    514.151    562.632    514.151    523.288    514.151
 74.670    549.334    570.073    -20.738    514.205    561.991    514.205    522.329    514.205
 74.770    605.000    567.398     37.602    514.259    560.127    514.259    521.571    514.259
 74.870    545.550    563.941    -18.391    514.312    557.336    514.312    520.954    514.312
 74.970    525.334    560.136    -34.802    514.363    554.091    514.363    520.439    514.363
 75.070    531.000    556.474    -25.474    514.414    550.910    514.414    520.003    514.414
 75.170    604.000    553.442     50.558    514.464    548.297    514.464    519.628    514.464
 75.270    516.402    551.510    -35.107    514.513    546.733    514.513    519.302    514.513
 75.370    539.000    551.144    -12.144    514.561    546.693    514.561    519.018    514.561
 75.470    524.802    552.826    -28.024    514.607    548.666    514.607    518.769    514.607
 75.570    556.000    557.058     -1.058    514.653    553.158    514.653    518.549    514.653
 75.670    567.000    564.325      2.675    514.698    560.657    514.698    518.355    514.698
 75.770    529.000    575.018    -46.018    514.742    571.559    514.742    518.184    514.742
 75.870    583.000    589.308     -6.308    514.785    586.038    514.785    518.031    514.785
 75.970    581.000    606.999    -25.999    514.827    603.898    514.827    517.896    514.827
 76.070    658.000    627.383     30.617    514.867    624.434    514.867    517.775    514.867
 76.170    628.000    649.148    -21.148    514.907    646.339    514.907    517.667    514.907
 76.270    644.000    670.358    -26.358    514.946    667.677    514.946    517.571    514.946
 76.370    684.000    688.540     -4.540    514.984    685.978    514.984    517.484    514.984
 76.470    708.000    700.994      7.006    515.020    698.544    515.020    517.407    515.020
 76.570    725.737    705.461     20.276    515.056    703.119    515.056    517.337    515.056
 76.670    674.000    701.000    -27.000    515.090    698.760    515.090    517.275    515.090
 76.770    697.000    688.439      8.561    515.124    686.297    515.124    517.219    515.124
 76.870    628.000    669.965    -41.965    515.156    667.915    515.156    517.168    515.156
 76.970    601.955    648.255    -46.300    515.187    646.291    515.187    517.122    515.187
 77.070    572.000    625.787    -53.787    515.217    623.902    515.217    517.080    515.217
 77.170    589.116    604.505    -15.389    515.246    602.693    515.246    517.043    515.246
 77.270    578.000    585.717     -7.717    515.274    583.972    515.274    517.009    515.274
 77.370    586.481    570.105     16.377    515.301    568.421    515.301    516.978    515.301
 77.470    574.000    557.815     16.185    515.327    556.188    515.327    516.949    515.327
 77.570    506.000    548.601    -42.601    515.351    547.026    515.351    516.923    515.351
 77.670    521.975    541.985    -20.010    515.375    540.458    515.375    516.899    515.375
 77.770    537.705    537.403      0.302    515.397    535.921    515.397    516.878    515.397
 77.870    491.000    534.315    -43.315    515.418    532.875    515.418    516.857    515.418
 77.970    543.486    532.267     11.219    515.438    530.865    515.438    516.838    515.438
 78.070    540.000    530.910      9.090    515.457    529.545    515.457    516.821    515.457
 78.170    505.581    530.000    -24.418    515.475    528.669    515.475    516.805    515.475
 78.270    519.000    529.360    -10.360    515.492    528.061    515.492    516.789    515.492
 78.370    472.000    528.907    -56.907    515.507    527.638    515.507    516.775    515.507
 78.470    530.044    528.619      1.425    515.521    527.378    515.521    516.762    515.521
 78.570    486.403    528.448    -42.044    515.534    527.232    515.534    516.749    515.534
 78.670    546.084    528.385     17.699    515.546    527.194    515.546    516.737    515.546
 78.770    520.000    528.439     -8.439    515.557    527.269    515.557    516.726    515.557
 78.870    514.000    528.623    -14.623    515.567    527.473    515.567    516.716    515.567
 78.970    485.000    528.961    -43.961    515.575    527.828    515.575    516.707    515.575
 79.070    518.000    529.479    -11.479    515.582    528.360    515.582    516.700    515.582
 79.170    508.000    530.203    -22.203    515.588    529.095    515.588    516.694    515.588
 79.270    527.000    531.158     -4.158    515.593    530.058    515.593    516.691    515.593
 79.370    555.000    532.372     22.628    515.596    531.275    515.596    516.690    515.596
 79.470    522.000    533.869    -11.869    515.599    532.771    515.599    516.693    515.599
 79.570    521.000    535.684    -14.684    515.600    534.580    515.600    516.700    515.600
 79.670    526.000    537.878    -11.878    515.600    536.762    515.600    516.711    515.600
 79.770    548.000    540.544      7.456    515.598    539.410    515.598    516.727    515.598
 79.870    578.654    543.828     34.826    515.596    542.670    515.596    516.748    515.596
 79.970    522.000    547.958    -25.958    515.592    546.771    515.592    516.773    515.592
 80.070    540.000    553.259    -13.259    515.587    552.039    515.587    516.802    515.587
 80.170    541.000    560.152    -19.152    515.581    558.896    515.581    516.834    515.581
 80.270    610.000    569.101     40.899    515.573    567.808    515.573    516.865    515.573
 80.370    543.000    580.527    -37.527    515.564    579.199    515.564    516.894    515.564
 80.470    635.208    594.689     40.520    515.554    593.332    515.554    516.915    515.554
 80.570    649.990    611.585     38.405    515.543    610.211    515.543    516.926    515.543
 80.670    607.000    630.872    -23.872    515.530    629.495    515.530    516.921    515.530
 80.770    670.000    651.825     18.175    515.516    650.463    515.516    516.898    515.516
 80.870    663.000    673.362    -10.362    515.501    672.031    515.501    516.858    515.501
 80.970    697.000    694.159      2.841    515.485    692.874    515.485    516.802    515.485
 81.070    660.000    712.843    -52.843    515.467    711.614    515.467    516.735    515.467
 81.170    687.075    728.172    -41.097    515.448    727.005    515.448    516.661    515.448
 81.270    783.000    739.151     43.849    515.428    738.048    515.428    516.583    515.428
 81.370    741.000    745.106     -4.106    515.407    744.065    515.407    516.505    515.407
 81.470    703.120    745.756    -42.636    515.384    744.773    515.384    516.429    515.384
 81.570    746.507    741.226      5.282    515.360    740.294    515.360    516.356    515.360
 81.670    781.000    731.997     49.003    515.334    731.111    515.334    516.288    515.334
 81.770    758.000    718.883     39.117    515.308    718.035    515.308    516.224    515.308
 81.870    654.554    702.998    -48.443    515.280    702.181    515.280    516.164    515.280
 81.970    694.000    685.601      8.399    515.250    684.809    515.250    516.107    515.250
 82.070    678.000    667.839     10.161    515.220    667.066    515.220    516.055    515.220
 82.170    611.122    650.538    -39.416    515.188    649.779    515.188    516.005    515.188
 82.270    679.811    634.157     45.654    515.155    633.409    515.155    515.956    515.155
 82.370    602.000    618.895    -16.895    515.120    618.155    515.120    515.910    515.120
 82.470    624.000    604.852     19.148    515.084    604.117    515.084    515.864    515.084
 82.570    597.000    592.151      4.849    515.047    591.419    515.047    515.819    515.047
 82.670    576.322    580.962     -4.639    515.009    580.229    515.009    515.773    515.009
 82.770    551.000    571.461    -20.461    514.969    570.727    514.969    515.728    514.969
 82.870    553.000    563.802    -10.802    514.928    563.067    514.928    515.682    514.928
 82.970    615.000    558.096     56.904    514.886    557.358    514.886    515.635    514.886
 83.070    527.694    554.399    -26.705    514.842    553.657    514.842    515.588    514.842
 83.170    543.218    552.694     -9.476    514.797    551.948    514.797    515.540    514.797
 83.270    596.936    552.880     44.056    514.750    552.129    514.750    515.491    514.750
 83.370    586.405    554.748     31.657    514.703    553.992    514.703    515.441    514.703
 83.470    513.092    557.977    -44.885    514.654    557.216    514.654    515.390    514.654
 83.570    522.000    562.133    -40.133    514.603    561.367    514.603    515.339    514.603
 83.670    577.818    566.684     11.134    514.551    565.914    514.551    515.286    514.551
 83.770    573.000    571.023      1.977    514.498    570.249    514.498    515.232    514.498
 83.870    598.264    574.515     23.749    514.444    573.738    514.444    515.177    514.444
 83.970    572.307    576.582     -4.276    514.388    575.805    514.388    515.121    514.388
 84.070    577.000    576.820      0.180    514.331    576.043    514.331    515.064    514.331
 84.170    545.720    575.102    -29.382    514.273    574.327    514.273    515.006    514.273
 84.270    527.000    571.617    -44.617    514.213    570.845    514.213    514.947    514.213
 84.370    559.000    566.784     -7.784    514.152    566.016    514.152    514.887    514.152
 84.470    578.000    561.127     16.873    514.090    560.363    514.090    514.826    514.090
 84.570    564.000    555.163      8.837    514.026    554.402    514.026    514.764    514.026
 84.670    514.000    549.335    -35.335    513.961    548.577    513.961    514.700    513.961
 84.770    519.023    543.979    -24.955    513.894    543.222    513.894    514.636    513.894
 84.870    487.000    539.315    -52.315    513.827    538.560    513.827    514.570    513.827
 84.970    581.944    535.452     46.493    513.757    534.696    513.757    514.504    513.757
 85.070    572.610    532.403     40.208    513.687    531.646    513.687    514.436    513.687
 85.170    553.000    530.113     22.887    513.615    529.355    513.615    514.367    513.615
 85.270    516.000    528.489    -12.489    513.542    527.729    513.542    514.298    513.542
 85.370    574.000    527.428     46.572    513.468    526.664    513.468    514.227    513.468
 85.470    521.000    526.830     -5.830    513.392    526.062    513.392    514.155    513.392
 85.570    561.000    526.624     34.376    513.315    525.852    513.315    514.082    513.315
 85.670    519.351    526.771     -7.420    513.236    525.993    513.236    514.008    513.236
 85.770    507.171    527.271    -20.100    513.156    526.488    513.156    513.933    513.156
 85.870    569.000    528.168     40.832    513.075    527.379    513.075    513.857    513.075
 85.970    556.000    529.547     26.453    512.993    528.750    512.993    513.780    512.993
 86.070    544.000    531.532     12.468    512.909    530.727    512.909    513.702    512.909
 86.170    559.000    534.279     24.721    512.824    533.464    512.824    513.622    512.824
 86.270    549.000    537.962     11.038    512.737    537.136    512.737    513.542    512.737
 86.370    498.000    542.757    -44.757    512.649    541.918    512.649    513.461    512.649
 86.470    534.000    548.810    -14.810    512.560    547.956    512.560    513.379    512.560
 86.570    598.000    556.203     41.797    512.470    555.333    512.470    513.296    512.470
 86.670    567.000    564.922      2.078    512.378    564.035    512.378    513.212    512.378
 86.770    599.000    574.816     24.184    512.285    573.909    512.285    513.127    512.285
 86.870    603.000    585.571     17.429    512.190    584.643    512.190    513.041    512.190
 86.970    592.693    596.698     -4.005    512.094    595.750    512.094    512.955    512.094
 87.070    602.763    607.536     -4.773    511.997    606.568    511.997    512.867    511.997
 87.170    665.000    617.278     47.722    511.899    616.291    511.899    512.779    511.899
 87.270    581.505    625.047    -43.542    511.799    624.045    511.799    512.689    511.799
 87.370    584.955    630.034    -45.078    511.698    629.019    511.698    512.599    511.698
 87.470    616.623    631.681    -15.058    511.596    630.656    511.596    512.509    511.596
 87.570    632.083    629.851      2.232    511.492    628.821    511.492    512.417    511.492
 87.670    598.000    624.872    -26.872    511.387    623.839    511.387    512.325    511.387
 87.770    663.000    617.431     45.569    511.281    616.397    511.281    512.232    511.281
 87.870    641.000    608.410     32.590    511.173    607.374    511.173    512.139    511.173
 87.970    648.000    598.733     49.267    511.064    597.696    511.064    512.045    511.064
 88.070    639.000    589.273     49.727    510.954    588.233    510.954    511.950    510.954
 88.170    597.680    580.783     16.897    510.843    579.738    510.843    511.855    510.843
 88.270    564.000    573.856     -9.856    510.730    572.805    510.730    511.759    510.730
 88.370    521.000    568.895    -47.895    510.616    567.835    510.616    511.663    510.616
 88.470    552.637    566.139    -13.503    510.500    565.069    510.500    511.567    510.500
 88.570    555.673    565.630     -9.958    510.384    564.548    510.384    511.471    510.384
 88.670    579.000    567.219     11.781    510.266    566.123    510.266    511.374    510.266
 88.770    593.000    570.604     22.396    510.147    569.494    510.147    511.278    510.147
 88.870    559.665    575.347    -15.681    510.026    574.220    510.026    511.181    510.026
 88.970    572.000    580.890     -8.890    509.905    579.746    509.905    511.084    509.905
 89.070    635.522    586.591     48.931    509.782    585.428    509.782    510.988    509.782
 89.170    597.000    591.758      5.242    509.657    590.572    509.657    510.892    509.657
 89.270    622.000    595.704     26.296    509.532    594.494    509.532    510.797    509.532
 89.370    611.000    597.845     13.155    509.405    596.608    509.405    510.702    509.405
 89.470    557.239    597.803    -40.564    509.277    596.534    509.277    510.608    509.277
 89.570    545.000    595.495    -50.495    509.148    594.190    509.148    510.515    509.148
 89.670    587.652    591.141     -3.489    509.018    589.795    509.018    510.423    509.018
 89.770    555.000    585.184    -30.184    508.886    583.792    508.886    510.333    508.886
 89.870    587.000    578.174      8.826    508.753    576.733    508.753    510.245    508.753
 89.970    550.000    570.667    -20.667    508.619    569.172    508.619    510.158    508.619
 90.070    579.135    563.158     15.977    508.484    561.605    508.484    510.074    508.484
 90.170    528.000    556.048    -28.048    508.347    554.434    508.347    509.993    508.347
 90.270    538.000    549.629    -11.629    508.209    547.948    508.209    509.916    508.209
 90.370    526.000    544.082    -18.082    508.071    542.330    508.071    509.843    508.071
 90.470    566.593    539.486     27.108    507.930    537.657    507.930    509.774    507.930
 90.570    490.324    535.837    -45.514    507.789    533.925    507.789    509.712    507.789
 90.670    506.179    533.074    -26.895    507.647    531.070    507.647    509.658    507.647
 90.770    495.000    531.097    -36.097    507.503    528.991    507.503    509.614    507.503
 90.870    513.000    529.798    -16.798    507.358    527.576    507.358    509.583    507.358
 90.970    536.875    529.074      7.802    507.212    526.719    507.212    509.568    507.212
 91.070    515.468    528.845    -13.377    507.065    526.336    507.065    509.575    507.065
 91.170    532.000    529.065      2.935    506.917    526.372    506.917    509.609    506.917
 91.270    568.000    529.725     38.275    506.767    526.811    506.767    509.679    506.767
 91.370    542.242    530.859     11.383    506.617    527.678    506.617    509.795    506.617
 91.470    538.248    532.546      5.703    506.465    529.037    506.465    509.969    506.465
 91.570    563.000    534.909     28.091    506.312    530.999    506.312    510.216    506.312
 91.670    512.000    538.106    -26.106    506.158    533.703    506.158    510.554    506.158
 91.770    493.000    542.302    -49.302    506.003    537.295    506.003    511.000    506.003
 91.870    489.000    547.793    -58.793    505.847    542.052    505.847    511.574    505.847
 91.970    545.304    554.799     -9.496    505.690    548.174    505.690    512.298    505.690
 92.070    557.823    563.527     -5.704    505.531    555.848    505.531    513.189    505.531
 92.170    587.000    574.159     12.841    505.372    565.241    505.372    514.263    505.372
 92.270    574.000    586.813    -12.813    505.211    576.459    505.211    515.533    505.211
 92.370    596.025    601.515     -5.490    505.050    589.524    505.050    517.001    505.050
 92.470    585.000    618.171    -33.171    504.887    604.348    504.887    518.663    504.887
 92.570    632.000    636.550     -4.550    504.724    620.716    504.724    520.504    504.724
 92.670    653.000    656.270     -3.270    504.559    638.277    504.559    522.492    504.559
 92.770    666.000    676.797    -10.797    504.393    656.541    504.393    524.583    504.393
 92.870    701.000    697.461      3.539    504.226    674.904    504.226    526.712    504.226
 92.970    743.000    717.512     25.488    504.059    692.700    504.059    528.795    504.059
 93.070    734.714    736.215     -1.501    503.890    709.299    503.890    530.727    503.890
 93.170    719.941    752.974    -33.033    503.720    724.229    503.720    532.385    503.720
 93.270    798.166    767.450     30.716    503.549    737.283    503.549    533.637    503.549
 93.370    736.000    779.595    -43.595    503.377    748.529    503.377    534.366    503.377
 93.470    805.060    789.580     15.480    503.205    758.222    503.205    534.487    503.205
 93.570    781.000    797.731    -16.731    503.031    766.716    503.031    533.972    503.031
 93.670    794.000    804.458    -10.458    502.856    774.385    502.856    532.858    502.856
 93.770    784.000    810.241    -26.241    502.681    781.617    502.681    531.235    502.681
 93.870    828.998    815.639     13.359    502.504    788.850    502.504    529.226    502.504
 93.970    835.000    821.281     13.719    502.327    796.581    502.327    526.962    502.327
 94.070    849.000    827.771     21.229    502.148    805.295    502.148    524.563    502.148
 94.170    886.000    835.541     50.459    501.969    815.318    501.969    522.132    501.969
 94.270    786.908    844.680    -57.772    501.789    826.660    501.789    519.751    501.789
 94.370    863.237    854.835      8.402    501.608    838.907    501.608    517.480    501.608
 94.470    910.000    865.191     44.809    501.426    851.200    501.426    515.364    501.426
 94.570    858.000    874.529    -16.529    501.243    862.294    501.243    513.429    501.243
 94.670    909.000    881.367     27.633    501.059    870.693    501.059    511.692    501.059
 94.770    888.000    884.175      3.825    500.875    874.861    500.875    510.154    500.875
 94.870    916.000    881.658     34.342    500.689    873.509    500.689    508.811    500.689
 94.970    890.376    873.066     17.310    500.503    865.899    500.503    507.652    500.503
 95.070    956.000    858.395     97.605    500.316    852.042    500.316    506.659    500.316
 95.170    785.458    838.407    -52.950    500.129    832.720    500.129    505.814    500.129
 95.270    825.377    814.469     10.908    499.940    809.316    499.940    505.096    499.940
 95.370    782.000    788.309     -6.309    499.751    783.580    499.751    504.486    499.751
 95.470    821.000    761.798     59.202    499.561    757.401    499.561    503.966    499.561
 95.570    776.422    736.797     39.626    499.370    732.656    499.370    503.519    499.370
 95.670    789.000    715.056     73.944    499.178    711.110    499.178    503.131    499.178
 95.770    705.000    698.160      6.840    498.986    694.359    498.986    502.790    498.986
 95.870    715.000    687.482     27.518    498.793    683.786    498.793    502.487    498.793
 95.970    711.000    684.237     26.763    498.599    680.614    498.599    502.214    498.599
 96.070    696.000    689.396      6.604    498.405    685.820    498.405    501.965    498.405
 96.170    667.000    703.727    -36.727    498.210    700.176    498.210    501.735    498.210
 96.270    678.275    727.776    -49.501    498.014    724.233    498.014    501.522    498.014
 96.370    779.000    761.826     17.174    497.817    758.275    497.817    501.322    497.817
 96.470    808.000    805.831      2.169    497.620    802.258    497.620    501.135    497.620
 96.570    877.922    859.325     18.597    497.423    855.719    497.423    500.960    497.423
 96.670    995.000    921.338     73.662    497.224    917.689    497.224    500.795    497.224
 96.770    988.000    990.315     -2.315    497.026    986.613    497.026    500.639    497.026
 96.870   1058.000   1064.058     -6.058    496.826   1060.295    496.826    500.494    496.826
 96.970   1135.000   1139.722     -4.722    496.626   1135.890    496.626    500.359    496.626
 97.070   1226.000   1213.845     12.155    496.425   1209.937    496.425    500.234    496.425
 97.170   1298.000   1282.464     15.536    496.224   1278.474    496.224    500.120    496.224
 97.270   1365.000   1341.348     23.652    496.023   1337.269    496.023    500.016    496.023
 97.370   1359.000   1386.398    -27.398    495.820   1382.222    495.820    499.925    495.820
 97.470   1389.872   1414.218    -24.346    495.618   1409.936    495.618    499.846    495.618
 97.570   1452.000   1422.731     29.269    495.414   1418.331    495.414    499.781    495.414
 97.670   1366.000   1411.598    -45.598    495.211   1407.064    495.211    499.731    495.211
 97.770   1380.000   1382.233     -2.233    495.007   1377.547    495.007    499.699    495.007
 97.870   1253.000   1337.442    -84.442    494.802   1332.581    494.802    499.687    494.802
 97.970   1321.000   1280.868     40.132    494.597   1275.805    494.597    499.698    494.597
 98.070   1208.000   1216.494     -8.494    494.392   1211.195    494.392    499.738    494.392
 98.170   1175.000   1148.275     26.725    494.186   1142.703    494.186    499.812    494.186
 98.270   1153.000   1079.914     73.086    493.980   1074.021    493.980    499.929    493.980
 98.370   1003.000   1014.726    -11.726    493.773   1008.456    493.773    500.098    493.773
 98.470    927.000    955.549    -28.549    493.566    948.832    493.566    500.333    493.566
 98.570    881.000    904.732    -23.732    493.359    897.482    493.359    500.653    493.359
 98.670    833.000    864.150    -31.150    493.151    856.258    493.151    501.078    493.151
 98.770    829.000    835.241     -6.241    492.944    826.575    492.944    501.636    492.944
 98.870    770.000    819.071    -49.071    492.735    809.464    492.735    502.359    492.735
 98.970    820.000    816.396      3.604    492.527    805.643    492.527    503.287    492.527
 99.070    822.934    827.718     -4.784    492.318    815.568    492.318    504.467    492.318
 99.170    881.000    853.310     27.690    492.110    839.460    492.110    505.950    492.110
 99.270    897.000    893.215      3.785    491.900    877.307    491.900    507.792    491.900
 99.370    965.000    947.205     17.795    491.691    928.821    491.691    510.054    491.691
 99.470   1053.222   1014.717     38.504    491.482    993.380    491.482    512.795    491.482
 99.570   1145.004   1094.761     50.242    491.272   1069.937    491.272    516.073    491.272
 99.670   1185.000   1185.880     -0.880    491.062   1156.983    491.062    519.939    491.062
 99.770   1295.000   1286.016      8.984    490.852   1252.423    490.852    524.432    490.852
 99.870   1354.000   1392.480    -38.480    490.642   1353.546    490.642    529.574    490.642
 99.970   1558.306   1501.960     56.347    490.432   1457.039    490.432    535.365    490.432
100.070   1560.743   1610.596    -49.853    490.222   1559.071    490.222    541.778    490.222
100.170   1769.942   1714.177     55.766    490.011   1655.489    490.011    548.753    490.011
100.270   1874.000   1808.457     65.543    489.801   1742.145    489.801    556.192    489.801
100.370   1921.736   1889.539     32.197    489.591   1815.277    489.591    563.957    489.591
100.470   2028.573   1954.187     74.385    489.381   1871.837    489.381    571.860    489.381
100.570   2097.000   1999.979     97.021    489.170   1909.636    489.170    579.666    489.170
100.670   2088.031   2025.279     62.752    488.960   1927.323    488.960    587.090    488.960
100.770   2087.077   2029.189     57.887    488.750   1924.333    488.750    593.798    488.750
100.870   2051.000   2011.630     39.370    488.540   1900.944    488.540    599.430    488.540
100.970   1992.000   1973.554     18.446    488.329   1858.468    488.329    603.627    488.329
101.070   1890.000   1917.163    -27.163    488.119   1799.414    488.119    606.083    488.119
101.170   1800.000   1845.898    -45.898    487.910   1727.425    487.910    606.594    487.910
101.270   1698.000   1764.129    -66.129    487.700   1646.930    487.700    605.104    487.700
101.370   1591.000   1676.644    -85.644    487.491   1562.615    487.491    601.713    487.491
101.470   1538.000   1588.093    -50.093    487.281   1478.893    487.281    596.661    487.281
101.570   1466.393   1502.564    -36.171    487.072   1399.527    487.072    590.274    487.072
101.670   1410.000   1423.307    -13.307    486.863   1327.402    486.863    582.918    486.863
101.770   1379.976   1352.602     27.375    486.655   1264.444    486.655    574.946    486.655
101.870   1339.000   1291.727     47.273    486.446   1211.612    486.446    566.680    486.446
101.970   1250.000   1241.003      8.997    486.238   1168.956    486.238    558.392    486.238
102.070   1154.000   1199.876    -45.876    486.031   1135.700    486.031    550.303    486.031
102.170   1225.435   1167.041     58.394    485.823   1110.370    485.823    542.584    485.823
102.270   1162.708   1140.608     22.100    485.616   1090.946    485.616    535.363    485.616
102.370   1041.000   1118.300    -77.300    485.410   1075.066    485.410    528.726    485.410
102.470   1037.000   1097.707    -60.707    485.204   1060.270    485.204    522.722    485.204
102.570   1038.000   1076.579    -38.579    484.998   1044.288    484.998    517.370    484.998
102.670   1035.000   1053.114    -18.114    484.793   1025.325    484.793    512.664    484.793
102.770   1068.000   1026.180     41.820    484.588   1002.276    484.588    508.576    484.588
102.870    982.000    995.383    -13.383    484.384    974.788    484.384    505.062    484.384
102.970    908.757    960.991    -52.235    484.180    943.183    484.180    502.070    484.180
103.070    928.488    923.750      4.738    483.976    908.265    483.976    499.540    483.976
103.170    910.286    884.674     25.612    483.774    871.110    483.774    497.413    483.774
103.270    864.000    844.877     19.123    483.572    832.891    483.572    495.629    483.572
103.370    774.499    805.450    -30.951    483.370    794.752    483.370    494.133    483.370
103.470    795.000    767.376     27.624    483.169    757.729    483.169    492.875    483.169
103.570    751.000    731.483     19.517    482.969    722.694    482.969    491.811    482.969
103.670    677.540    698.413    -20.873    482.770    690.325    482.770    490.903    482.770
103.770    672.000    668.604      3.396    482.571    661.094    482.571    490.120    482.571
103.870    664.000    642.299     21.701    482.373    635.268    482.373    489.437    482.373
103.970    636.000    619.555     16.445    482.175    612.925    482.175    488.833    482.175
104.070    618.000    600.276     17.724    481.979    593.985    481.979    488.292    481.979
104.170    615.752    584.243     31.509    481.783    578.243    481.783    487.801    481.783
104.270    577.000    571.158      5.842    481.588    565.409    481.588    487.350    481.588
104.370    615.000    560.673     54.327    481.394    555.145    481.394    486.933    481.394
104.470    578.000    552.428     25.572    481.201    547.094    481.201    486.543    481.201
104.570    523.000    546.076    -23.076    481.009    540.914    481.009    486.176    481.009
104.670    545.000    541.305      3.695    480.817    536.297    480.817    485.829    480.817
104.770    574.000    537.839     36.161    480.627    532.968    480.627    485.499    480.627
104.870    506.000    535.456    -29.456    480.438    530.709    480.438    485.185    480.438
104.970    495.935    533.987    -38.052    480.249    529.350    480.249    484.884    480.249
105.070    576.658    533.306     43.352    480.062    528.769    480.062    484.597    480.062
105.170    530.000    533.358     -3.358    479.876    528.909    479.876    484.320    479.876
105.270    529.000    534.113     -5.113    479.691    529.742    479.691    484.055    479.691
105.370    505.000    535.581    -30.581    479.507    531.280    479.507    483.800    479.507
105.470    513.936    537.808    -23.872    479.324    533.569    479.324    483.554    479.324
105.570    557.000    540.865     16.135    479.142    536.679    479.142    483.317    479.142
105.670    580.014    544.838     35.176    478.961    540.697    478.961    483.088    478.961
105.770    548.000    549.817     -1.817    478.782    545.715    478.782    482.868    478.782
105.870    568.085    555.881     12.204    478.604    551.811    478.604    482.655    478.604
105.970    580.742    563.088     17.654    478.427    559.043    478.427    482.450    478.427
106.070    616.000    571.458     44.542    478.252    567.432    478.252    482.252    478.252
106.170    583.322    580.961      2.362    478.078    576.948    478.078    482.062    478.078
106.270    633.000    591.512     41.488    477.905    587.508    477.905    481.878    477.905
106.370    574.000    602.966    -28.966    477.734    598.964    477.734    481.700    477.734
106.470    585.536    615.109    -29.573    477.564    611.105    477.564    481.529    477.564
106.570    633.000    627.669      5.331    477.395    623.659    477.395    481.365    477.395
106.670    618.000    640.317    -22.317    477.228    636.295    477.228    481.207    477.228
106.770    610.000    652.677    -42.677    477.063    648.640    477.063    481.056    477.063
106.870    690.000    664.346     25.654    476.899    660.289    476.899    480.910    476.899
106.970    642.000    674.914    -32.914    476.736    670.834    476.736    480.771    476.736
107.070    732.147    684.005     48.142    476.576    679.898    476.576    480.639    476.576
107.170    680.662    691.318    -10.656    476.416    687.180    476.416    480.513    476.416
107.270    663.000    696.681    -33.681    476.259    692.508    476.259    480.393    476.259
107.370    708.264    700.083      8.181    476.103    695.871    476.103    480.279    476.103
107.470    719.151    701.686     17.465    475.949    697.431    475.949    480.173    475.949
107.570    655.000    701.797    -46.797    475.797    697.494    475.797    480.073    475.797
107.670    666.000    700.818    -34.818    475.646    696.462    475.646    479.979    475.646
107.770    701.000    699.181      1.819    475.497    694.767    475.497    479.893    475.497
107.870    656.184    697.297    -41.113    475.351    692.819    475.351    479.814    475.351
107.970    692.000    695.511     -3.511    475.206    690.964    475.206    479.742    475.206
108.070    689.000    694.075     -5.075    475.062    689.453    475.062    479.678    475.062
108.170    706.000    693.131     12.869    474.921    688.428    474.921    479.621    474.921
108.270    695.579    692.703      2.876    474.782    687.912    474.782    479.573    474.782
108.370    671.332    692.699    -21.367    474.645    687.815    474.645    479.533    474.645
108.470    677.955    692.915    -14.961    474.510    687.931    474.510    479.501    474.510
108.570    688.000    693.055     -5.055    474.377    687.963    474.377    479.479    474.377
108.670    699.000    692.756      6.244    474.246    687.550    474.246    479.466    474.246
108.770    646.280    691.636    -45.356    474.117    686.307    474.117    479.463    474.117
108.870    721.703    689.341     32.362    473.990    683.880    473.990    479.470    473.990
108.970    662.000    685.599    -23.599    473.866    679.998    473.866    479.487    473.866
109.070    675.000    680.265     -5.265    473.744    674.514    473.744    479.516    473.744
109.170    665.000    673.339     -8.339    473.624    667.429    473.624    479.557    473.624
109.270    628.140    664.958    -36.818    473.506    658.877    473.506    479.610    473.506
109.370    691.079    655.359     35.720    473.391    649.096    473.391    479.676    473.391
109.470    628.000    644.848    -16.848    473.278    638.391    473.278    479.757    473.278
109.570    635.000    633.755      1.245    473.167    627.092    473.167    479.852    473.167
109.670    663.850    622.413     41.436    473.059    615.529    473.059    479.964    473.059
109.770    649.000    611.132     37.868    472.954    604.012    472.954    480.092    472.954
109.870    614.480    600.190     14.290    472.851    592.817    472.851    480.240    472.851
109.970    630.058    589.824     40.234    472.750    582.181    472.750    480.407    472.750
110.070    559.000    580.226    -21.226    472.652    572.292    472.652    480.597    472.652
110.170    588.000    571.539     16.461    472.557    563.294    472.557    480.812    472.557
110.270    527.253    563.860    -36.608    472.464    555.278    472.464    481.054    472.464
110.370    600.692    557.240     43.452    472.374    548.293    472.374    481.327    472.374
110.470    561.187    551.666      9.521    472.287    542.321    472.287    481.636    472.287
110.570    583.374    547.147     36.227    472.202    537.367    472.202    481.985    472.202
110.670    531.000    543.653    -12.653    472.120    533.393    472.120    482.382    472.120
110.770    521.908    541.099    -19.191    472.042    530.306    472.042    482.834    472.042
110.870    552.400    539.404     12.995    471.966    528.015    471.966    483.353    471.966
110.970    548.000    538.487      9.513    471.892    526.427    471.892    483.949    471.892
111.070    560.000    538.264     21.736    471.822    525.446    471.822    484.636    471.822
111.170    594.000    538.669     55.331    471.755    524.980    471.755    485.438    471.755
111.270    555.000    539.635     15.365    471.691    524.944    471.691    486.376    471.691
111.370    578.010    541.111     36.899    471.630    525.259    471.630    487.475    471.630
111.470    553.903    543.059     10.844    471.572    525.858    471.572    488.766    471.572
111.570    498.988    545.458    -46.470    471.517    526.682    471.517    490.285    471.517
111.670    538.000    548.302    -10.302    471.465    527.683    471.465    492.076    471.465
111.770    580.354    551.601     28.753    471.417    528.825    471.417    494.184    471.417
111.870    531.978    555.382    -23.404    471.372    530.081    471.372    496.662    471.372
111.970    520.000    559.686    -39.686    471.330    531.436    471.330    499.569    471.330
112.070    565.000    564.571      0.429    471.291    532.885    471.291    502.967    471.291
112.170    583.000    570.109     12.891    471.256    534.434    471.256    506.920    471.256
112.270    581.000    576.379      4.621    471.224    536.097    471.224    511.494    471.224
112.370    551.000    583.466    -32.466    471.196    537.899    471.196    516.751    471.196
112.470    577.000    591.480    -14.480    471.171    539.872    471.171    522.767    471.171
112.570    605.000    600.514      4.486    471.150    542.056    471.150    529.595    471.150
112.670    590.000    610.670    -20.670    471.132    544.505    471.132    537.284    471.132
112.770    595.000    622.050    -27.050    471.118    547.284    471.118    545.870    471.118
112.870    599.000    634.762    -35.762    471.107    550.479    471.107    555.375    471.107
112.970    626.000    648.918    -22.918    471.101    554.200    471.101    565.802    471.101
113.070    622.000    664.642    -42.642    471.098    558.592    471.098    577.128    471.098
113.170    679.000    682.075     -3.075    471.098    563.845    471.098    589.308    471.098
113.270    656.408    701.389    -44.981    471.103    570.207    471.103    602.264    471.103
113.370    701.000    722.799    -21.799    471.111    578.001    471.111    615.885    471.111
113.470    725.000    746.579    -21.579    471.124    587.648    471.124    630.027    471.124
113.570    767.000    773.082     -6.082    471.140    599.684    471.140    644.505    471.140
113.670    854.000    802.765     51.235    471.160    614.792    471.160    659.097    471.160
113.770    799.000    836.213    -37.213    471.184    633.820    471.184    673.534    471.184
113.870    860.000    874.162    -14.162    471.213    657.814    471.213    687.509    471.213
113.970    968.232    917.529     50.703    471.245    688.038    471.245    700.674    471.245
114.070    996.000    967.437     28.563    471.282    725.994    471.282    712.651    471.282
114.170    993.904   1025.240    -31.337    471.323    773.431    471.323    723.044    471.323
114.270   1000.000   1092.548    -92.548    471.368    832.342    471.368    731.467    471.368
114.370   1207.000   1171.233     35.767    471.417    904.949    471.417    737.574    471.417
114.470   1305.000   1263.432     41.568    471.471    993.658    471.471    741.091    471.471
114.570   1406.708   1371.512     35.195    471.529   1101.002    471.529    741.856    471.529
114.670   1516.000   1498.006     17.994    471.592   1229.548    471.592    739.833    471.592
114.770   1697.000   1645.501     51.499    471.659   1381.781    471.659    735.123    471.659
114.870   1820.137   1816.478      3.659    471.730   1559.964    471.730    727.946    471.730
114.970   2102.078   2013.127     88.951    471.806   1765.973    471.806    718.616    471.806
115.070   2327.000   2237.128     89.872    471.887   2001.117    471.887    707.504    471.887
115.170   2580.000   2489.431     90.569    471.972   2265.954    471.972    695.005    471.972
115.270   2948.000   2770.050    177.950    472.062   2560.108    472.062    681.507    472.062
115.370   3122.791   3077.878     44.913    472.157   2882.111    472.157    667.377    472.157
115.470   3451.000   3410.548     40.452    472.257   3229.267    472.257    652.942    472.257
115.570   3777.000   3764.334     12.666    472.361   3597.565    472.361    638.492    472.361
115.670   4126.784   4134.115     -7.330    472.471   3981.640    472.471    624.271    472.471
115.770   4378.415   4513.394   -134.980    472.585   4374.795    472.585    610.485    472.585
115.870   4989.000   4894.388     94.612    472.704   4769.082    472.704    597.296    472.704
115.970   5294.000   5268.173     25.827    472.828   5155.453    472.828    584.834    472.828
116.070   5676.000   5624.908     51.092    472.958   5523.976    472.958    573.190    472.958
116.170   6031.000   5954.144     76.856    473.092   5864.138    473.092    562.428    473.092
116.270   6394.189   6245.223    148.966    473.232   6165.252    473.232    552.581    473.232
116.370   6469.000   6487.815    -18.815    473.377   6416.976    473.377    543.658    473.377
116.470   6785.000   6672.569    112.431    473.527   6609.970    473.527    535.648    473.527
116.570   6934.000   6791.852    142.148    473.682   6736.628    473.682    528.521    473.682
116.670   6963.131   6840.475    122.656    473.843   6791.803    473.843    522.233    473.843
116.770   6963.000   6816.254    146.746    474.009   6773.359    474.009    516.730    474.009
116.870   6625.000   6720.250    -95.250    474.181   6682.413    474.181    511.950    474.181
116.970   6421.000   6556.631   -135.631    474.358   6523.195    474.358    507.829    474.358
117.070   6402.083   6332.190     69.893    474.541   6302.559    474.541    504.300    474.541
117.170   6168.028   6055.654    112.374    474.729   6029.297    474.729    501.296    474.729
117.270   5471.000   5736.942   -265.942    474.924   5713.389    474.924    498.753    474.924
117.370   5231.000   5386.484   -155.484    475.123   5365.324    475.123    496.612    475.123
117.470   4873.000   5014.664   -141.664    475.329   4995.543    475.329    494.817    475.329
117.570   4530.000   4631.379   -101.379    475.540   4613.990    475.540    493.319    475.540
117.670   4148.000   4245.730    -97.730    475.758   4229.814    475.758    492.073    475.758
117.770   3931.000   3865.815     65.185    475.981   3851.154    475.981    491.039    475.981
117.870   3600.000   3498.479    101.521    476.210   3484.889    476.210    490.185    476.210
117.970   3201.000   3149.296     51.704    476.445   3136.624    476.445    489.481    476.445
118.070   2848.000   2822.532     25.468    476.686   2810.651    476.686    488.903    476.686
118.170   2422.155   2521.176    -99.021    476.934   2509.983    476.934    488.431    476.934
118.270   2235.617   2247.031    -11.414    477.187   2236.440    477.187    488.048    477.187
118.370   1949.000   2000.832    -51.832    477.447   1990.773    477.447    487.741    477.447
118.470   1754.965   1782.402    -27.437    477.713   1772.818    477.713    487.498    477.713
118.570   1456.000   1590.812   -134.812    477.985   1581.656    477.985    487.310    477.985
118.670   1487.879   1424.553     63.326    478.264   1415.786    478.264    487.170    478.264
118.770   1288.000   1281.697      6.303    478.550   1273.286    478.550    487.072    478.550
118.870   1078.000   1160.055    -82.055    478.841   1151.972    478.841    487.011    478.841
118.970   1037.000   1057.311    -20.311    479.140   1049.533    479.140    486.984    479.140
119.070    918.578    971.141    -52.563    479.445    963.647    479.445    486.988    479.445
119.170    911.000    899.302     11.698    479.756    892.074    479.756    487.020    479.756
119.270    827.000    839.700    -12.700    480.075    832.720    480.075    487.079    480.075
119.370    782.000    790.430     -8.430    480.400    783.684    480.400    487.163    480.400
119.470    724.689    749.806    -25.117    480.732    743.278    480.732    487.271    480.732
119.570    776.000    716.361     59.639    481.070    710.036    481.070    487.402    481.070
119.670    725.944    688.844     37.100    481.416    682.709    481.416    487.556    481.416
119.770    632.918    666.206    -33.288    481.769    660.246    481.769    487.731    481.769
119.870    608.267    647.579    -39.312    482.129    641.781    482.129    487.928    482.129
119.970    608.588    632.256    -23.668    482.496    626.606    482.496    488.147    482.496
120.070    624.352    619.662      4.689    482.870    614.146    482.870    488.387    482.870
120.170    566.654    609.341    -42.687    483.251    603.945    483.251    488.648    483.251
120.270    556.724    600.929    -44.205    483.640    595.638    483.640    488.932    483.640
120.370    611.664    594.137     17.526    484.036    588.937    484.036    489.237    484.036
120.470    554.346    588.742    -34.396    484.439    583.618    484.439    489.566    484.439
120.570    612.069    584.566     27.503    484.850    579.502    484.850    489.916    484.850
120.670    594.321    581.470     12.851    485.268    576.451    485.268    490.291    485.268
120.770    573.763    579.347     -5.584    485.694    574.356    485.694    490.689    485.694
120.870    616.000    578.109     37.891    486.128    573.131    486.128    491.111    486.128
120.970    565.000    577.686    -12.686    486.569    572.704    486.569    491.557    486.569
121.070    577.000    578.019     -1.019    487.018    573.016    487.018    492.028    487.018
121.170    585.000    579.057      5.943    487.475    574.016    487.475    492.524    487.475
121.270    622.000    580.749     41.251    487.939    575.654    487.939    493.045    487.939
121.370    551.000    583.047    -32.047    488.412    577.880    488.412    493.590    488.412
121.470    546.333    585.899    -39.566    488.892    580.645    488.892    494.160    488.892
121.570    588.000    589.248     -1.248    489.381    583.891    489.381    494.753    489.381
121.670    618.000    593.031     24.969    489.878    587.557    489.878    495.369    489.878
121.770    604.000    597.179      6.821    490.383    591.574    490.383    496.007    490.383
121.870    619.000    601.612     17.388    490.896    595.865    490.896    496.665    490.896
121.970    615.000    606.244      8.756    491.417    600.345    491.417    497.341    491.417
122.070    660.000    610.982     49.018    491.947    604.922    491.947    498.034    491.947
122.170    630.613    615.722     14.891    492.485    609.498    492.485    498.740    492.485
122.270    593.373    620.360    -26.987    493.032    613.968    493.032    499.457    493.032
122.370    634.000    624.784      9.216    493.587    618.225    493.587    500.181    493.587
122.470    631.793    628.885      2.908    494.151    622.164    494.151    500.910    494.151
122.570    658.000    632.556     25.444    494.723    625.682    494.723    501.638    494.723
122.670    646.511    635.700     10.811    495.304    628.685    495.304    502.361    495.304
122.770    608.000    638.233    -30.233    495.894    631.096    495.894    503.075    495.894
122.870    665.000    640.093     24.907    496.493    632.855    496.493    503.776    496.493
122.970    628.000    641.240    -13.240    497.101    633.928    497.101    504.459    497.101
123.070    679.765    641.661     38.105    497.718    634.304    497.718    505.120    497.718
123.170    668.013    641.368     26.646    498.343    634.001    498.343    505.756    498.343
123.270    676.868    640.397     36.471    498.978    633.055    498.978    506.366    498.978
123.370    688.706    638.803     49.904    499.622    631.521    499.622    506.948    499.622
123.470    622.000    636.652    -14.652    500.276    629.468    500.276    507.503    500.276
123.570    609.552    634.024    -24.472    500.938    626.970    500.938    508.033    500.938
123.670    603.228    631.000    -27.773    501.610    624.108    501.610    508.540    501.610
123.770    635.000    627.664      7.336    502.292    620.961    502.292    509.030    502.292
123.870    618.000    624.095     -6.095    502.983    617.606    502.983    509.505    502.983
123.970    599.000    620.372    -21.372    503.683    614.115    503.683    509.970    503.683
124.070    626.000    616.562      9.438    504.393    610.552    504.393    510.430    504.393
124.170    646.000    612.726     33.274    505.113    606.974    505.113    510.888    505.113
124.270    582.000    608.915    -26.915    505.843    603.428    505.843    511.350    505.843
124.370    539.000    605.169    -66.169    506.582    599.950    506.582    511.819    506.582
124.470    620.000    601.518     18.482    507.331    596.567    507.331    512.298    507.331
124.570    587.000    597.982    -10.982    508.091    593.296    508.091    512.790    508.091
124.670    570.439    594.573    -24.135    508.860    590.147    508.860    513.298    508.860
124.770    633.185    591.297     41.888    509.640    587.122    509.640    513.824    509.640
124.870    612.000    588.152     23.848    510.429    584.220    510.429    514.369    510.429
124.970    591.000    585.135      5.865    511.229    581.436    511.229    514.935    511.229
