neutron_powder_diffraction_0211
R_wp: 3.924
Temperature (K): 1074.000
Counts: 83783.00
Wavelength (Ã…): 2.52098
COMMENTS
Test file for demonstrating the .xyy file format in Reel1.0
END OF HEADER
   tth       Y_obs     Y_calc      Y_res    Background    Phase_1_Nuc    Phase_1_Mag    Phase_2_Nuc    Phase_2_Mag
  9.970    598.000    581.169     16.831    580.554    581.141    580.554    580.582    580.554
 10.070    588.000    581.130      6.870    580.461    581.101    580.461    580.489    580.461
 10.170    637.000    581.110     55.890    580.364    581.081    580.364    580.393    580.364
 10.270    626.000    581.082     44.918    580.262    581.052    580.262    580.292    580.262
 10.370    617.000    581.057     35.943    580.157    581.027    580.157    580.187    580.157
 10.470    575.000    581.042     -6.042    580.048    581.011    580.048    580.079    580.048
 10.570    617.000    581.041     35.959    579.935    581.009    579.935    579.966    579.935
 10.670    583.000    581.057      1.943    579.818    581.025    579.818    579.850    579.818
 10.770    590.087    581.097      8.990    579.698    581.064    579.698    579.729    579.698
 10.870    596.000    581.169     14.831    579.573    581.135    579.573    579.606    579.573
 10.970    574.007    581.295     -7.288    579.445    581.250    579.445    579.489    579.445
 11.070    588.000    581.470      6.530    579.313    581.424    579.313    579.358    579.313
 11.170    586.000    581.728      4.272    579.178    581.681    579.178    579.223    579.178
 11.270    550.000    582.106    -32.106    579.039    582.058    579.039    579.084    579.039
 11.370    585.000    582.665      2.335    578.896    582.617    578.896    578.942    578.896
 11.470    560.000    583.541    -23.541    578.750    583.493    578.750    578.796    578.750
 11.570    647.000    585.115     61.885    578.601    585.065    578.601    578.647    578.601
 11.670    639.000    588.521     50.479    578.448    588.469    578.448    578.494    578.448
 11.770    619.807    596.546     23.261    578.292    596.489    578.292    578.339    578.292
 11.870    603.018    613.933    -10.915    578.132    613.861    578.132    578.185    578.132
 11.970    685.000    644.641     40.359    577.969    644.550    577.969    578.023    577.969
 12.070    653.935    684.911    -30.975    577.803    684.797    577.803    577.857    577.803
 12.170    743.450    716.838     26.612    577.633    716.706    577.633    577.687    577.633
 12.270    658.000    717.718    -59.718    577.461    717.585    577.461    577.515    577.461
 12.370    671.051    686.588    -15.537    577.285    686.472    577.285    577.340    577.285
 12.470    621.000    645.764    -24.764    577.106    645.671    577.106    577.161    577.106
 12.570    597.000    613.972    -16.972    576.924    613.896    576.924    576.979    576.924
 12.670    565.286    595.615    -30.329    576.739    595.549    576.739    576.795    576.739
 12.770    603.000    586.904     16.096    576.551    586.842    576.551    576.607    576.551
 12.870    580.000    583.015     -3.015    576.360    582.955    576.360    576.416    576.360
 12.970    592.000    581.049     10.951    576.166    580.990    576.166    576.223    576.166
 13.070    574.000    579.810     -5.810    575.969    579.752    575.969    576.026    575.969
 13.170    554.000    578.899    -24.899    575.770    578.841    575.770    575.827    575.770
 13.270    600.000    578.175     21.825    575.567    578.116    575.567    575.625    575.567
 13.370    596.879    577.574     19.305    575.362    577.515    575.362    575.420    575.362
 13.470    556.473    577.059    -20.586    575.154    577.000    575.154    575.212    575.154
 13.570    550.017    576.605    -26.588    574.944    576.546    574.944    575.002    574.944
 13.670    577.000    576.196      0.804    574.730    576.137    574.730    574.789    574.730
 13.770    586.300    575.822     10.478    574.514    575.761    574.514    574.574    574.514
 13.870    527.647    575.474    -47.827    574.296    575.411    574.296    574.358    574.296
 13.970    551.000    575.145    -24.145    574.075    575.080    574.075    574.139    574.075
 14.070    571.000    574.829     -3.829    573.851    574.764    573.851    573.916    573.851
 14.170    549.098    574.525    -25.427    573.625    574.459    573.625    573.690    573.625
 14.270    596.112    574.229     21.883    573.397    574.163    573.397    573.462    573.397
 14.370    551.000    573.941    -22.941    573.166    573.875    573.166    573.232    573.166
 14.470    580.112    573.658      6.454    572.932    573.591    572.932    572.999    572.932
 14.570    536.000    573.379    -37.379    572.697    573.311    572.697    572.764    572.697
 14.670    560.000    573.102    -13.102    572.459    573.035    572.459    572.526    572.459
 14.770    617.000    572.829     44.171    572.219    572.761    572.219    572.286    572.219
 14.870    564.000    572.557     -8.557    571.976    572.489    571.976    572.044    571.976
 14.970    535.000    572.289    -37.289    571.731    572.221    571.731    571.800    571.731
 15.070    547.000    572.021    -25.021    571.485    571.952    571.485    571.553    571.485
 15.170    582.000    571.751     10.249    571.236    571.682    571.236    571.305    571.236
 15.270    577.000    571.482      5.518    570.984    571.412    570.984    571.054    570.984
 15.370    548.000    571.212    -23.212    570.731    571.142    570.731    570.801    570.731
 15.470    556.000    570.942    -14.942    570.476    570.872    570.476    570.546    570.476
 15.570    573.000    570.672      2.328    570.219    570.601    570.219    570.290    570.219
 15.670    558.000    570.401    -12.401    569.960    570.329    569.960    570.031    569.960
 15.770    589.567    570.129     19.438    569.698    570.057    569.698    569.770    569.698
 15.870    551.000    569.857    -18.857    569.435    569.784    569.435    569.507    569.435
 15.970    576.000    569.583      6.417    569.170    569.511    569.170    569.243    569.170
 16.070    551.000    569.309    -18.309    568.904    569.236    568.904    568.977    568.904
 16.170    585.000    569.035     15.965    568.635    568.961    568.635    568.708    568.635
 16.270    567.000    568.760     -1.760    568.365    568.686    568.365    568.439    568.365
 16.370    548.998    568.484    -19.486    568.093    568.408    568.093    568.168    568.093
 16.470    575.000    568.206      6.794    567.819    568.129    567.819    567.895    567.819
 16.570    569.000    567.926      1.074    567.543    567.849    567.543    567.620    567.543
 16.670    521.000    567.645    -46.645    567.266    567.568    567.266    567.343    567.266
 16.770    605.642    567.364     38.278    566.987    567.286    566.987    567.065    566.987
 16.870    581.000    567.081     13.919    566.707    567.002    566.707    566.785    566.707
 16.970    552.000    566.796    -14.796    566.425    566.717    566.425    566.504    566.425
 17.070    572.000    566.511      5.489    566.141    566.432    566.141    566.221    566.141
 17.170    554.586    566.225    -11.639    565.856    566.145    565.856    565.936    565.856
 17.270    520.000    565.937    -45.937    565.570    565.857    565.570    565.650    565.570
 17.370    569.000    565.649      3.351    565.282    565.568    565.282    565.363    565.282
 17.470    588.000    565.359     22.641    564.992    565.278    564.992    565.074    564.992
 17.570    544.000    565.069    -21.069    564.701    564.986    564.701    564.784    564.701
 17.670    581.000    564.779     16.221    564.409    564.696    564.409    564.492    564.409
 17.770    601.869    564.487     37.382    564.116    564.404    564.116    564.199    564.116
 17.870    612.652    564.194     48.458    563.821    564.110    563.821    563.905    563.821
 17.970    558.000    563.899     -5.899    563.525    563.814    563.525    563.610    563.525
 18.070    521.330    563.603    -42.273    563.228    563.518    563.228    563.313    563.228
 18.170    539.900    563.306    -23.407    562.929    563.221    562.929    563.015    562.929
 18.270    563.000    563.009     -0.009    562.630    562.922    562.630    562.716    562.630
 18.370    571.000    562.710      8.290    562.329    562.623    562.329    562.416    562.329
 18.470    580.000    562.411     17.589    562.027    562.323    562.027    562.115    562.027
 18.570    577.252    562.116     15.136    561.724    562.022    561.724    561.817    561.724
 18.670    616.000    561.817     54.183    561.420    561.721    561.420    561.515    561.420
 18.770    588.000    561.515     26.485    561.114    561.418    561.114    561.211    561.114
 18.870    561.890    561.212      0.677    560.808    561.115    560.808    560.906    560.808
 18.970    547.000    560.909    -13.909    560.501    560.811    560.501    560.599    560.501
 19.070    506.000    560.606    -54.606    560.193    560.507    560.193    560.292    560.193
 19.170    546.000    560.302    -14.302    559.884    560.202    559.884    559.983    559.884
 19.270    533.000    559.997    -26.997    559.574    559.896    559.574    559.674    559.574
 19.370    544.000    559.691    -15.691    559.263    559.590    559.263    559.364    559.263
 19.470    606.214    559.385     46.829    558.951    559.283    558.951    559.053    558.951
 19.570    535.000    559.079    -24.079    558.638    558.976    558.638    558.741    558.638
 19.670    526.254    558.773    -32.519    558.325    558.669    558.325    558.429    558.325
 19.770    600.130    558.465     41.665    558.011    558.361    558.011    558.115    558.011
 19.870    556.000    558.157     -2.157    557.696    558.052    557.696    557.801    557.696
 19.970    521.000    557.849    -36.849    557.380    557.743    557.380    557.486    557.380
 20.070    605.228    557.541     47.687    557.063    557.433    557.063    557.171    557.063
 20.170    541.057    557.233    -16.176    556.746    557.124    556.746    556.855    556.746
 20.270    548.000    556.937     -8.937    556.428    556.828    556.428    556.538    556.428
 20.370    579.582    556.638     22.944    556.110    556.527    556.110    556.221    556.110
 20.470    539.000    556.330    -17.330    555.791    556.218    555.791    555.903    555.791
 20.570    576.025    556.021     20.004    555.471    555.908    555.471    555.584    555.471
 20.670    547.000    555.712     -8.712    555.151    555.598    555.151    555.265    555.151
 20.770    563.000    555.403      7.597    554.830    555.288    554.830    554.945    554.830
 20.870    547.000    555.094     -8.094    554.509    554.978    554.509    554.625    554.509
 20.970    518.000    554.785    -36.785    554.188    554.668    554.188    554.305    554.188
 21.070    554.921    554.477      0.444    553.865    554.359    553.865    553.984    553.865
 21.170    559.444    554.170      5.274    553.543    554.050    553.543    553.662    553.543
 21.270    522.275    553.862    -31.587    553.220    553.741    553.220    553.341    553.220
 21.370    542.000    553.556    -11.556    552.896    553.434    552.896    553.019    552.896
 21.470    527.000    553.250    -26.250    552.572    553.127    552.572    552.696    552.572
 21.570    539.000    552.946    -13.946    552.248    552.821    552.248    552.373    552.248
 21.670    550.956    552.642     -1.686    551.924    552.516    551.924    552.050    551.924
 21.770    544.000    552.348     -8.348    551.599    552.220    551.599    551.727    551.599
 21.870    531.180    552.131    -20.951    551.274    552.001    551.274    551.404    551.274
 21.970    542.717    551.855     -9.139    550.949    551.724    550.949    551.080    550.949
 22.070    555.000    551.582      3.418    550.623    551.449    550.623    550.756    550.623
 22.170    527.000    551.316    -24.316    550.297    551.181    550.297    550.432    550.297
 22.270    543.000    551.027     -8.027    549.971    550.891    549.971    550.107    549.971
 22.370    578.000    550.739     27.261    549.645    550.601    549.645    549.783    549.645
 22.470    549.000    550.455     -1.455    549.319    550.315    549.319    549.459    549.319
 22.570    572.955    550.177     22.778    548.992    550.033    548.992    549.136    548.992
 22.670    559.000    549.903      9.097    548.666    549.756    548.666    548.813    548.666
 22.770    553.000    549.641      3.359    548.339    549.492    548.339    548.488    548.339
 22.870    573.000    549.429     23.571    548.012    549.278    548.012    548.164    548.012
 22.970    551.000    549.195      1.805    547.685    549.042    547.685    547.839    547.685
 23.070    586.512    548.956     37.557    547.359    548.800    547.359    547.515    547.359
 23.170    573.000    548.728     24.272    547.032    548.570    547.032    547.190    547.032
 23.270    533.000    548.518    -15.518    546.705    548.357    546.705    546.866    546.705
 23.370    570.287    548.329     21.958    546.378    548.166    546.378    546.542    546.378
 23.470    543.000    548.167     -5.167    546.052    548.002    546.052    546.218    546.052
 23.570    575.000    548.042     26.958    545.725    547.874    545.725    545.894    545.725
 23.670    528.848    547.966    -19.119    545.398    547.795    545.398    545.571    545.398
 23.770    521.000    547.959    -26.959    545.072    547.785    545.072    545.248    545.072
 23.870    589.019    548.045     40.974    544.746    547.868    544.746    544.924    544.746
 23.970    553.476    548.277      5.199    544.420    548.097    544.420    544.602    544.420
 24.070    539.000    548.777     -9.777    544.094    548.593    544.094    544.279    544.094
 24.170    579.000    549.897     29.103    543.768    549.711    543.768    543.957    543.768
 24.270    564.000    552.615     11.385    543.442    552.427    543.442    543.636    543.442
 24.370    521.253    559.059    -37.806    543.117    558.871    543.117    543.315    543.117
 24.470    580.000    572.283      7.717    542.792    572.101    542.792    542.994    542.792
 24.570    569.000    593.924    -24.924    542.467    593.754    542.467    542.674    542.467
 24.670    596.721    619.765    -23.044    542.142    619.608    542.142    542.354    542.142
 24.770    610.000    636.947    -26.947    541.818    636.798    541.818    542.035    541.818
 24.870    628.000    632.718     -4.718    541.494    632.560    541.494    541.716    541.494
 24.970    605.000    610.545     -5.545    541.171    610.366    541.171    541.398    541.171
 25.070    590.000    584.741      5.259    540.847    584.537    540.847    541.081    540.847
 25.170    578.000    565.296     12.704    540.524    565.073    540.524    540.765    540.524
 25.270    598.000    554.033     43.967    540.202    553.794    540.202    540.449    540.202
 25.370    544.000    548.521     -4.521    539.880    548.271    539.880    540.134    539.880
 25.470    572.000    545.913     26.087    539.558    545.653    539.558    539.821    539.558
 25.570    559.000    544.508     14.492    539.237    544.240    539.237    539.508    539.237
 25.670    542.000    543.588     -1.588    538.916    543.309    538.916    539.196    538.916
 25.770    545.000    542.898      2.102    538.596    542.610    538.596    538.885    538.596
 25.870    566.000    542.346     23.654    538.276    542.047    538.276    538.576    538.276
 25.970    549.000    541.893      7.107    537.957    541.583    537.957    538.268    537.957
 26.070    576.000    541.512     34.488    537.638    541.190    537.638    537.961    537.638
 26.170    569.000    541.191     27.809    537.320    540.855    537.320    537.656    537.320
 26.270    520.902    540.923    -20.021    537.002    540.573    537.002    537.352    537.002
 26.370    553.000    540.705     12.295    536.685    540.340    536.685    537.050    536.685
 26.470    536.000    540.537     -4.537    536.368    540.155    536.368    536.750    536.368
 26.570    505.000    540.424    -35.424    536.052    540.023    536.052    536.453    536.052
 26.670    549.000    540.394      8.606    535.737    539.973    535.737    536.157    535.737
 26.770    575.000    540.426     34.574    535.422    539.983    535.422    535.865    535.422
 26.870    566.615    540.517     26.099    535.108    540.049    535.108    535.575    535.108
 26.970    563.000    540.703     22.297    534.795    540.209    534.795    535.289    534.795
 27.070    510.000    541.015    -31.015    534.482    540.490    534.482    535.006    534.482
 27.170    538.000    541.490     -3.490    534.170    540.931    534.170    534.728    534.170
 27.270    542.000    542.190     -0.190    533.858    541.593    533.858    534.454    533.858
 27.370    583.208    543.207     40.001    533.548    542.568    533.548    534.186    533.548
 27.470    522.844    544.700    -21.856    533.238    544.012    533.238    533.924    533.238
 27.570    571.000    547.079     23.921    532.929    546.335    532.929    533.670    532.929
 27.670    553.000    551.808      1.192    532.620    551.000    532.620    533.424    532.620
 27.770    572.000    563.666      8.334    532.313    562.782    532.313    533.189    532.313
 27.870    618.000    594.602     23.398    532.006    593.623    532.006    532.967    532.006
 27.970    685.000    662.794     22.206    531.700    661.696    531.700    532.759    531.700
 28.070    740.300    775.879    -35.579    531.395    774.633    531.395    532.570    531.395
 28.170    848.000    901.920    -53.920    531.090    900.509    531.090    532.404    531.090
 28.270    949.000    964.102    -15.102    530.787    962.527    530.787    532.267    530.787
 28.370    960.710    911.564     49.146    530.484    909.822    530.484    532.168    530.484
 28.470    806.000    798.441      7.559    530.182    796.482    530.182    532.118    530.182
 28.570    712.185    710.802      1.383    529.881    708.536    529.881    532.137    529.881
 28.670    742.192    693.055     49.137    529.581    690.365    529.581    532.257    529.581
 28.770    727.000    740.503    -13.503    529.282    737.229    529.282    532.537    529.282
 28.870    845.149    812.036     33.113    528.984    807.927    528.984    533.082    528.984
 28.970    833.000    845.912    -12.912    528.687    840.541    528.687    534.063    528.687
 29.070    763.000    805.529    -42.529    528.390    798.204    528.390    535.730    528.390
 29.170    774.580    723.043     51.538    528.095    712.768    528.095    538.383    528.095
 29.270    634.000    647.907    -13.907    527.800    633.431    527.800    542.285    527.800
 29.370    610.000    602.255      7.745    527.507    582.283    527.507    547.481    527.507
 29.470    634.000    582.975     51.025    527.215    556.695    527.215    553.493    527.215
 29.570    608.000    577.585     30.415    526.923    545.648    526.923    558.856    526.923
 29.670    604.000    575.316     28.684    526.633    540.755    526.633    561.189    526.633
 29.770    562.497    570.780     -8.284    526.343    538.117    526.343    559.003    526.343
 29.870    570.000    563.773      6.227    526.055    536.392    526.055    553.432    526.055
 29.970    578.538    556.256     22.283    525.767    535.175    525.767    546.845    525.767
 30.070    544.624    549.736     -5.112    525.481    534.334    525.481    540.881    525.481
 30.170    574.000    544.812     29.188    525.196    533.839    525.196    536.166    525.196
 30.270    564.000    541.613     22.387    524.912    533.797    524.912    532.725    524.912
 30.370    555.000    540.340     14.660    524.629    534.643    524.629    530.322    524.629
 30.470    550.000    541.875      8.125    524.347    537.557    524.347    528.657    524.347
 30.570    520.000    548.191    -28.191    524.066    544.776    524.066    527.469    524.066
 30.670    573.000    561.606     11.394    523.786    558.798    523.786    526.571    523.786
 30.770    573.000    582.016     -9.016    523.508    579.636    523.508    525.849    523.508
 30.870    584.657    603.312    -18.655    523.230    601.252    523.230    525.238    523.230
 30.970    572.756    613.056    -40.300    522.954    611.253    522.954    524.700    522.954
 31.070    571.656    602.997    -31.340    522.679    601.414    522.679    524.215    522.679
 31.170    606.134    580.786     25.348    522.405    579.390    522.405    523.770    522.405
 31.270    572.000    558.863     13.137    522.132    557.623    522.132    523.356    522.132
 31.370    519.000    543.593    -24.593    521.861    542.480    521.861    522.966    521.861
 31.470    546.000    535.187     10.813    521.590    534.177    521.590    522.596    521.590
 31.570    495.012    531.188    -36.176    521.321    530.264    521.321    522.241    521.321
 31.670    586.000    529.304     56.696    521.053    528.454    521.053    521.901    521.053
 31.770    531.000    528.283      2.717    520.786    527.496    520.786    521.571    520.786
 31.870    526.000    527.623     -1.623    520.521    526.891    520.521    521.251    520.521
 31.970    522.000    527.158     -5.158    520.256    526.474    520.256    520.939    520.256
 32.070    548.266    526.829     21.436    519.993    526.188    519.993    520.634    519.993
 32.170    489.937    526.618    -36.681    519.732    526.014    519.732    520.335    519.732
 32.270    562.105    526.513     35.592    519.471    525.941    519.471    520.042    519.471
 32.370    520.504    526.513     -6.009    519.212    525.970    519.212    519.754    519.212
 32.470    503.000    526.627    -23.627    518.954    526.110    518.954    519.470    518.954
 32.570    530.802    526.872      3.930    518.697    526.378    518.697    519.190    518.697
 32.670    519.000    527.273     -8.273    518.442    526.800    518.442    518.914    518.442
 32.770    535.000    527.866      7.134    518.188    527.412    518.188    518.641    518.188
 32.870    544.000    528.706     15.294    517.935    528.269    517.935    518.372    517.935
 32.970    502.000    529.873    -27.873    517.684    529.451    517.684    518.105    517.684
 33.070    573.802    531.490     42.312    517.434    531.082    517.434    517.841    517.434
 33.170    514.763    533.780    -19.017    517.185    533.384    517.185    517.580    517.185
 33.270    509.000    537.254    -28.254    516.938    536.868    516.938    517.321    516.938
 33.370    563.000    543.318     19.682    516.692    542.942    516.692    517.064    516.692
 33.470    533.000    555.769    -22.769    516.447    555.401    516.447    516.810    516.447
 33.570    568.411    583.044    -14.633    516.204    582.679    516.204    516.558    516.204
 33.670    675.000    638.814     36.186    515.962    638.447    515.962    516.308    515.962
 33.770    741.000    735.869      5.131    515.721    735.493    515.721    516.060    515.721
 33.870    878.000    870.846      7.154    515.482    870.460    515.482    515.814    515.482
 33.970    947.326   1006.887    -59.561    515.244   1006.497    515.244    515.570    515.244
 34.070   1155.000   1073.703     81.297    515.008   1073.328    515.008    515.328    515.008
 34.170   1010.322   1023.516    -13.194    514.773   1023.174    514.773    515.088    514.773
 34.270    924.000    893.769     30.231    514.539    893.456    514.539    514.850    514.539
 34.370    709.000    755.224    -46.224    514.307    754.927    514.307    514.613    514.307
 34.470    627.688    650.695    -23.007    514.076    650.402    514.076    514.379    514.076
 34.570    588.411    588.126      0.285    513.847    587.833    513.847    514.146    513.847
 34.670    574.000    556.386     17.614    513.619    556.093    513.619    513.915    513.619
 34.770    525.000    541.468    -16.468    513.393    541.176    513.393    513.685    513.393
 34.870    576.000    534.056     41.944    513.168    533.766    513.168    513.458    513.168
 34.970    498.924    529.713    -30.790    512.944    529.426    512.944    513.232    512.944
 35.070    516.000    526.727    -10.727    512.722    526.441    512.722    513.007    512.722
 35.170    507.000    524.474    -17.474    512.501    524.191    512.501    512.785    512.501
 35.270    535.000    522.696     12.304    512.282    522.414    512.282    512.564    512.282
 35.370    508.576    521.255    -12.679    512.064    520.974    512.064    512.344    512.064
 35.470    511.000    520.061     -9.061    511.848    519.782    511.848    512.127    511.848
 35.570    550.518    519.056     31.463    511.633    518.778    511.633    511.911    511.633
 35.670    489.899    518.195    -28.296    511.420    517.918    511.420    511.697    511.420
 35.770    463.000    517.448    -54.448    511.208    517.173    511.208    511.484    511.208
 35.870    554.000    516.793     37.207    510.998    516.518    510.998    511.273    510.998
 35.970    537.727    516.212     21.515    510.789    515.938    510.789    511.063    510.789
 36.070    495.266    515.693    -20.426    510.582    515.419    510.582    510.856    510.582
 36.170    502.000    515.225    -13.225    510.376    514.952    510.376    510.650    510.376
 36.270    529.000    514.803     14.197    510.172    514.529    510.172    510.445    510.172
 36.370    506.000    514.420     -8.420    509.969    514.147    509.969    510.242    509.969
 36.470    546.900    514.074     32.826    509.768    513.801    509.768    510.041    509.768
 36.570    483.629    513.764    -30.135    509.568    513.491    509.568    509.842    509.568
 36.670    481.026    513.490    -32.464    509.370    513.217    509.370    509.644    509.370
 36.770    543.000    513.259     29.741    509.173    512.985    509.173    509.447    509.173
 36.870    494.000    513.086    -19.086    508.978    512.812    508.978    509.253    508.978
 36.970    491.000    513.024    -22.024    508.784    512.749    508.784    509.060    508.784
 37.070    529.000    513.195     15.805    508.592    512.919    508.592    508.868    508.592
 37.170    490.000    513.843    -23.843    508.402    513.567    508.402    508.678    508.402
 37.270    517.000    515.326      1.674    508.213    515.049    508.213    508.490    508.213
 37.370    514.000    517.953     -3.953    508.025    517.676    508.025    508.304    508.025
 37.470    488.698    521.639    -32.942    507.839    521.362    507.839    508.119    507.839
 37.570    487.000    525.533    -38.533    507.655    525.255    507.655    507.936    507.655
 37.670    511.000    527.983    -16.983    507.472    527.706    507.472    507.754    507.472
 37.770    558.000    527.616     30.384    507.291    527.339    507.291    507.574    507.291
 37.870    504.666    524.785    -20.119    507.111    524.509    507.111    507.396    507.111
 37.970    547.414    521.000     26.414    506.933    520.725    506.933    507.219    506.933
 38.070    510.192    517.442     -7.251    506.757    517.166    506.757    507.044    506.757
 38.170    506.000    514.576     -8.576    506.582    514.296    506.582    506.871    506.582
 38.270    518.399    512.483      5.916    506.408    512.200    506.408    506.699    506.408
 38.370    556.582    511.063     45.519    506.236    510.775    506.236    506.529    506.236
 38.470    495.618    510.134    -14.516    506.066    509.842    506.066    506.361    506.066
 38.570    481.000    509.527    -28.527    505.897    509.232    505.897    506.194    505.897
 38.670    544.000    509.113     34.887    505.730    508.815    505.730    506.029    505.730
 38.770    526.000    508.806     17.194    505.565    508.506    505.565    505.866    505.565
 38.870    508.000    508.556     -0.556    505.401    508.253    505.401    505.704    505.401
 38.970    511.978    508.337      3.641    505.238    508.032    505.238    505.544    505.238
 39.070    510.382    508.138      2.244    505.077    507.830    505.077    505.385    505.077
 39.170    509.000    507.954      1.046    504.918    507.643    504.918    505.229    504.918
 39.270    521.997    507.781     14.216    504.761    507.468    504.761    505.074    504.761
 39.370    551.233    507.619     43.614    504.604    507.303    504.604    504.920    504.604
 39.470    497.000    507.466    -10.466    504.450    507.147    504.450    504.769    504.450
 39.570    487.538    507.321    -19.783    504.297    507.000    504.297    504.619    504.297
 39.670    491.000    507.184    -16.184    504.146    506.860    504.146    504.470    504.146
 39.770    464.000    507.055    -43.055    503.996    506.728    503.996    504.324    503.996
 39.870    508.000    506.934      1.066    503.848    506.603    503.848    504.179    503.848
 39.970    530.000    506.820     23.180    503.701    506.486    503.701    504.035    503.701
 40.070    494.000    506.714    -12.714    503.556    506.377    503.556    503.894    503.556
 40.170    512.000    506.616      5.384    503.413    506.276    503.413    503.754    503.413
 40.270    512.000    506.528      5.472    503.271    506.183    503.271    503.616    503.271
 40.370    502.000    506.449     -4.449    503.131    506.101    503.131    503.479    503.131
 40.470    526.529    506.381     20.148    502.992    506.029    502.992    503.345    502.992
 40.570    466.030    506.324    -40.294    502.855    505.968    502.855    503.212    502.855
 40.670    488.000    506.281    -18.281    502.720    505.921    502.720    503.080    502.720
 40.770    497.786    506.254     -8.468    502.586    505.889    502.586    502.951    502.586
 40.870    504.000    506.244     -2.244    502.454    505.876    502.454    502.823    502.454
 40.970    492.000    506.257    -14.257    502.323    505.883    502.323    502.697    502.323
 41.070    513.000    506.295      6.705    502.194    505.917    502.194    502.572    502.194
 41.170    519.000    506.365     12.635    502.066    505.982    502.066    502.450    502.066
 41.270    483.000    506.475    -23.475    501.941    506.087    501.941    502.329    501.941
 41.370    495.000    506.635    -11.635    501.816    506.242    501.816    502.210    501.816
 41.470    536.000    506.861     29.139    501.693    506.463    501.693    502.092    501.693
 41.570    548.971    507.176     41.795    501.572    506.772    501.572    501.977    501.572
 41.670    524.268    507.622     16.646    501.453    507.214    501.453    501.863    501.453
 41.770    492.000    508.296    -16.296    501.335    507.882    501.335    501.751    501.335
 41.870    487.518    509.429    -21.911    501.218    509.009    501.218    501.641    501.218
 41.970    547.285    511.571     35.714    501.104    511.146    501.104    501.532    501.104
 42.070    519.000    515.838      3.162    500.990    515.408    500.990    501.426    500.990
 42.170    532.000    524.051      7.949    500.879    523.618    500.879    501.321    500.879
 42.270    526.000    538.341    -12.341    500.769    537.908    500.769    501.218    500.769
 42.370    546.000    559.868    -13.868    500.660    559.438    500.660    501.116    500.660
 42.470    566.000    586.882    -20.882    500.553    586.458    500.553    501.017    500.553
 42.570    605.438    613.045     -7.607    500.448    612.628    500.448    500.920    500.448
 42.670    619.000    628.036     -9.036    500.344    627.621    500.344    500.824    500.344
 42.770    591.661    623.977    -32.316    500.242    623.556    500.242    500.730    500.242
 42.870    587.761    603.267    -15.506    500.141    602.828    500.141    500.638    500.141
 42.970    576.000    575.733      0.267    500.042    575.271    500.042    500.548    500.042
 43.070    548.000    550.358     -2.358    499.944    549.872    499.944    500.460    499.944
 43.170    515.000    531.558    -16.558    499.848    531.050    499.848    500.374    499.848
 43.270    509.000    519.725    -10.725    499.754    519.199    499.754    500.290    499.754
 43.370    481.829    513.143    -31.315    499.661    512.603    499.661    500.208    499.661
 43.470    554.282    509.730     44.552    499.570    509.176    499.570    500.128    499.570
 43.570    552.682    507.940     44.742    499.480    507.373    499.480    500.050    499.480
 43.670    471.000    506.906    -35.906    499.392    506.326    499.392    499.974    499.392
 43.770    488.000    506.225    -18.225    499.305    505.632    499.305    499.900    499.305
 43.870    544.748    505.728     39.020    499.220    505.121    499.220    499.828    499.220
 43.970    480.000    505.346    -25.346    499.136    504.725    499.136    499.758    499.136
 44.070    548.161    505.045     43.116    499.054    504.410    499.054    499.691    499.054
 44.170    486.000    504.806    -18.806    498.974    504.155    498.974    499.626    498.974
 44.270    514.000    504.616      9.384    498.895    503.948    498.895    499.563    498.895
 44.370    508.000    504.465      3.535    498.818    503.780    498.818    499.502    498.818
 44.470    545.000    504.346     40.654    498.742    503.644    498.742    499.444    498.742
 44.570    461.532    504.256    -42.724    498.667    503.535    498.667    499.389    498.667
 44.670    491.337    504.190    -12.854    498.594    503.449    498.594    499.335    498.594
 44.770    481.000    504.145    -23.145    498.523    503.384    498.523    499.285    498.523
 44.870    544.739    504.121     40.619    498.453    503.337    498.453    499.237    498.453
 44.970    493.000    504.114    -11.114    498.385    503.307    498.385    499.192    498.385
 45.070    471.842    504.125    -32.283    498.318    503.293    498.318    499.150    498.318
 45.170    483.909    504.152    -20.243    498.253    503.294    498.253    499.111    498.253
 45.270    506.000    504.196      1.804    498.189    503.310    498.189    499.075    498.189
 45.370    516.750    504.257     12.492    498.127    503.342    498.127    499.042    498.127
 45.470    477.441    504.335    -26.895    498.066    503.388    498.066    499.013    498.066
 45.570    462.000    504.432    -42.432    498.007    503.451    498.007    498.987    498.007
 45.670    496.000    504.547     -8.547    497.949    503.529    497.949    498.966    497.949
 45.770    522.973    504.682     18.291    497.892    503.626    497.892    498.948    497.892
 45.870    542.000    504.839     37.161    497.837    503.742    497.837    498.935    497.837
 45.970    532.000    505.021     26.979    497.784    503.879    497.784    498.926    497.784
 46.070    536.458    505.230     31.228    497.732    504.039    497.732    498.922    497.732
 46.170    543.000    505.470     37.530    497.682    504.227    497.682    498.924    497.682
 46.270    499.000    505.744     -6.744    497.633    504.445    497.633    498.931    497.633
 46.370    462.747    506.060    -43.313    497.585    504.699    497.585    498.945    497.585
 46.470    460.000    506.424    -46.424    497.539    504.996    497.539    498.966    497.539
 46.570    492.575    506.847    -14.272    497.494    505.345    497.494    498.995    497.494
 46.670    507.000    507.343     -0.343    497.451    505.761    497.451    499.032    497.451
 46.770    558.000    507.936     50.064    497.409    506.266    497.409    499.078    497.409
 46.870    495.000    508.684    -13.684    497.369    506.916    497.369    499.135    497.369
 46.970    494.000    509.705    -15.705    497.330    507.829    497.330    499.204    497.330
 47.070    496.000    511.264    -15.264    497.293    509.266    497.293    499.286    497.293
 47.170    502.303    513.878    -11.575    497.257    511.745    497.257    499.384    497.257
 47.270    558.000    518.404     39.596    497.222    516.118    497.222    499.500    497.222
 47.370    514.000    525.937    -11.937    497.189    523.476    497.189    499.636    497.189
 47.470    576.000    537.377     38.623    497.157    534.715    497.157    499.796    497.157
 47.570    584.212    552.665     31.548    497.126    549.774    497.126    499.984    497.126
 47.670    583.156    569.954     13.202    497.097    566.800    497.097    500.206    497.097
 47.770    654.000    585.158     68.842    497.070    581.705    497.070    500.468    497.070
 47.870    594.000    592.831      1.169    497.044    589.037    497.044    500.779    497.044
 47.970    613.362    589.744     23.618    497.019    585.560    497.019    501.149    497.019
 48.070    619.536    578.113     41.424    496.995    573.469    496.995    501.595    496.995
 48.170    546.000    563.245    -17.245    496.973    558.046    496.973    502.141    496.973
 48.270    562.000    549.746     12.254    496.952    543.855    496.952    502.822    496.952
 48.370    559.000    540.097     18.903    496.933    533.314    496.933    503.703    496.933
 48.470    518.866    534.888    -16.023    496.915    526.905    496.915    504.890    496.915
 48.570    541.753    533.623      8.130    496.898    523.950    496.898    506.565    496.898
 48.670    514.000    535.567    -21.567    496.883    523.429    496.883    509.017    496.883
 48.770    538.000    540.303     -2.303    496.869    524.505    496.869    512.663    496.869
 48.870    560.000    547.893     12.107    496.856    526.702    496.856    518.042    496.856
 48.970    592.922    558.785     34.138    496.845    529.885    496.845    525.739    496.845
 49.070    549.000    573.621    -24.621    496.835    534.226    496.835    536.223    496.835
 49.170    575.439    593.164    -17.725    496.826    540.379    496.826    549.602    496.826
 49.270    587.000    618.612    -31.612    496.819    550.122    496.819    565.296    496.819
 49.370    660.000    652.756      7.244    496.812    567.927    496.812    581.622    496.812
 49.470    768.000    702.446     65.554    496.808    603.762    496.808    595.462    496.808
 49.570    800.000    782.380     17.620    496.804    676.334    496.804    602.800    496.804
 49.670    922.000    917.845      4.155    496.802    813.629    496.802    600.936    496.802
 49.770   1180.000   1139.429     40.571    496.801   1045.466    496.801    590.641    496.801
 49.870   1494.000   1463.675     30.325    496.801   1384.868    496.801    575.448    496.801
 49.970   1909.000   1865.900     43.100    496.803   1803.395    496.803    559.137    496.803
 50.070   2254.897   2262.744     -7.847    496.806   2215.173    496.806    544.245    496.806
 50.170   2561.986   2525.045     36.941    496.810   2489.838    496.810    531.984    496.810
 50.270   2553.187   2540.126     13.062    496.815   2514.403    496.815    522.629    496.815
 50.370   2301.000   2296.693      4.307    496.822   2277.795    496.822    515.903    496.822
 50.470   1859.100   1896.132    -37.031    496.829   1881.903    496.829    511.270    496.829
 50.570   1392.000   1472.696    -80.696    496.838   1461.572    496.838    508.152    496.838
 50.670   1069.484   1122.031    -52.548    496.849   1112.971    496.849    506.054    496.849
 50.770    845.000    881.197    -36.197    496.860    873.548    496.860    504.608    496.860
 50.870    751.000    741.030      9.970    496.873    734.399    496.873    503.571    496.873
 50.970    696.000    670.373     25.627    496.887    664.515    496.887    502.794    496.887
 51.070    670.056    636.763     33.292    496.902    631.518    496.902    502.188    496.902
 51.170    586.633    617.179    -30.546    496.918    612.429    496.918    501.704    496.918
 51.270    585.135    600.360    -15.225    496.935    596.018    496.935    501.308    496.935
 51.370    552.000    583.710    -31.710    496.954    579.705    496.954    500.983    496.954
 51.470    568.000    568.317     -0.317    496.974    564.596    496.974    500.713    496.974
 51.570    559.000    555.623      3.377    496.995    552.142    496.995    500.488    496.995
 51.670    589.000    546.275     42.725    497.017    542.998    497.017    500.302    497.017
 51.770    569.000    540.085     28.915    497.040    536.984    497.040    500.147    497.040
 51.870    517.000    536.400    -19.400    497.064    533.449    497.064    500.019    497.064
 51.970    555.000    534.492     20.508    497.090    531.670    497.090    499.915    497.090
 52.070    502.243    533.805    -31.563    497.116    531.094    497.116    499.830    497.116
 52.170    544.000    534.044      9.956    497.144    531.426    497.144    499.763    497.144
 52.270    574.000    535.153     38.847    497.173    532.615    497.173    499.712    497.173
 52.370    568.000    537.343     30.657    497.203    534.873    497.203    499.674    497.203
 52.470    555.000    541.246     13.754    497.234    538.832    497.234    499.649    497.234
 52.570    560.389    548.272     12.117    497.266    545.904    497.266    499.634    497.266
 52.670    559.000    561.178     -2.178    497.299    558.847    497.299    499.630    497.299
 52.770    595.000    584.629     10.371    497.333    582.326    497.333    499.635    497.333
 52.870    640.000    625.193     14.807    497.369    622.910    497.369    499.649    497.369
 52.970    710.000    690.007     19.993    497.405    687.737    497.405    499.671    497.405
 53.070    808.265    783.624     24.641    497.443    781.361    497.443    499.700    497.443
 53.170    964.331    903.534     60.797    497.481    901.274    497.481    499.737    497.481
 53.270   1042.000   1035.922      6.078    497.521   1033.661    497.521    499.781    497.521
 53.370   1134.000   1153.808    -19.808    497.561   1151.546    497.561    499.831    497.561
 53.470   1161.514   1222.017    -60.503    497.603   1219.753    497.603    499.889    497.603
 53.570   1136.000   1214.799    -78.799    497.645   1212.526    497.645    499.952    497.645
 53.670   1141.000   1135.397      5.603    497.689   1133.105    497.689    500.022    497.689
 53.770   1033.659   1013.031     20.628    497.733   1010.707    497.733    500.099    497.733
 53.870    907.000    882.043     24.957    497.779    879.675    497.779    500.182    497.779
 53.970    764.717    766.993     -2.277    497.825    764.574    497.825    500.272    497.825
 54.070    657.000    679.371    -22.371    497.873    676.895    497.873    500.368    497.873
 54.170    652.756    620.050     32.706    497.921    617.512    497.921    500.471    497.921
 54.270    607.000    583.718     23.282    497.971    581.114    497.971    500.582    497.971
 54.370    558.300    563.191     -4.891    498.021    560.517    498.021    500.700    498.021
 54.470    554.335    552.217      2.117    498.072    549.467    498.072    500.825    498.072
 54.570    548.955    546.514      2.441    498.125    543.681    498.125    500.959    498.125
 54.670    574.966    543.608     31.357    498.178    540.686    498.178    501.102    498.178
 54.770    615.000    542.255     72.745    498.232    539.234    498.232    501.254    498.232
 54.870    570.000    541.889     28.111    498.287    538.761    498.287    501.416    498.287
 54.970    546.000    542.274      3.726    498.342    539.029    498.342    501.588    498.342
 55.070    516.000    543.326    -27.326    498.399    539.954    498.399    501.772    498.399
 55.170    523.000    545.036    -22.036    498.457    541.526    498.457    501.969    498.457
 55.270    517.040    547.445    -30.405    498.515    543.783    498.515    502.178    498.515
 55.370    567.000    550.641     16.359    498.575    546.813    498.575    502.403    498.575
 55.470    584.000    554.786     29.214    498.635    550.778    498.635    502.644    498.635
 55.570    568.560    560.191      8.369    498.696    555.985    498.696    502.903    498.696
 55.670    536.000    567.496    -31.496    498.758    563.072    498.758    503.182    498.758
 55.770    617.237    578.100     39.137    498.821    573.438    498.821    503.482    498.821
 55.870    612.000    595.001     16.999    498.884    590.075    498.884    503.808    498.884
 55.970    554.000    624.150    -70.150    498.948    618.933    498.948    504.161    498.948
 56.070    719.326    676.082     43.244    499.014    670.540    499.014    504.545    499.014
 56.170    728.000    766.849    -38.849    499.080    760.943    499.080    504.964    499.080
 56.270    910.000    916.486     -6.486    499.146    910.174    499.146    505.423    499.146
 56.370   1103.725   1143.220    -39.495    499.214   1136.455    499.214    505.929    499.214
 56.470   1346.000   1453.234   -107.234    499.282   1445.970    499.282    506.487    499.282
 56.570   1757.000   1828.785    -71.785    499.351   1820.976    499.351    507.105    499.351
 56.670   2252.697   2219.531     33.166    499.421   2211.131    499.421    507.795    499.421
 56.770   2503.000   2542.777    -39.777    499.492   2533.735    499.492    508.568    499.492
 56.870   2611.000   2703.728    -92.728    499.563   2693.973    499.563    509.438    499.563
 56.970   2589.024   2645.424    -56.399    499.635   2634.842    499.635    510.423    499.635
 57.070   2341.221   2391.127    -49.907    499.708   2379.547    499.708    511.548    499.708
 57.170   2082.000   2024.751     57.249    499.781   2011.957    499.781    512.844    499.781
 57.270   1672.000   1638.100     33.900    499.855   1623.841    499.855    514.352    499.855
 57.370   1238.000   1297.486    -59.486    499.930   1281.466    499.930    516.138    499.930
 57.470   1044.449   1035.515      8.934    500.006   1017.353    500.006    518.301    500.006
 57.570    864.295    856.282      8.013    500.082    835.441    500.082    521.008    500.082
 57.670    764.000    746.499     17.501    500.159    722.175    500.159    524.534    500.159
 57.770    712.000    687.174     24.826    500.236    658.116    500.236    529.320    500.236
 57.870    701.000    661.868     39.132    500.314    626.145    500.314    536.048    500.314
 57.970    689.000    660.357     28.643    500.393    615.055    500.393    545.694    500.393
 58.070    677.000    678.748     -1.748    500.472    619.678    500.472    559.531    500.472
 58.170    683.000    717.790    -34.790    500.552    639.287    500.552    579.032    500.552
 58.270    842.000    780.311     61.689    500.633    675.276    500.633    605.633    500.633
 58.370    856.000    868.649    -12.649    500.714    728.972    500.714    640.343    500.714
 58.470   1032.297    982.201     50.095    500.796    799.693    500.796    683.246    500.796
 58.570   1033.000   1115.436    -82.436    500.879    883.345    500.879    732.905    500.879
 58.670   1204.793   1256.887    -52.094    500.962    972.101    500.962    785.684    500.962
 58.770   1369.000   1390.259    -21.259    501.045   1056.206    501.045    835.043    501.045
 58.870   1585.000   1497.640     87.360    501.129   1127.138    501.129    871.592    501.129
 58.970   1540.960   1562.704    -21.744    501.214   1178.175    501.214    885.725    501.214
 59.070   1619.000   1574.255     44.745    501.299   1202.526    501.299    873.032    501.299
 59.170   1472.993   1531.703    -58.710    501.385   1195.540    501.385    837.570    501.385
 59.270   1406.000   1448.061    -42.061    501.471   1160.745    501.471    788.815    501.471
 59.370   1384.000   1345.330     38.670    501.558   1110.673    501.558    736.232    501.558
 59.470   1234.000   1245.922    -11.922    501.645   1061.054    501.645    686.507    501.645
 59.570   1209.000   1168.419     40.581    501.733   1026.703    501.733    643.409    501.733
 59.670   1118.000   1128.248    -10.248    501.821   1021.518    501.821    608.468    501.821
 59.770   1133.000   1136.976     -3.976    501.910   1057.087    501.910    581.664    501.910
 59.870   1225.000   1197.631     27.369    501.999   1137.415    501.999    562.023    501.999
 59.970   1355.000   1299.977     55.023    502.088   1253.698    502.088    548.123    502.088
 60.070   1398.529   1419.085    -20.556    502.179   1382.496    502.179    538.485    502.179
 60.170   1591.000   1518.084     72.916    502.269   1488.232    502.269    531.825    502.269
 60.270   1536.617   1557.880    -21.263    502.360   1532.814    502.360    527.155    502.360
 60.370   1508.111   1515.684     -7.573    502.451   1494.139    502.451    523.780    502.451
 60.470   1434.000   1398.927     35.073    502.543   1380.069    502.543    521.251    502.543
 60.570   1279.000   1237.910     41.090    502.635   1221.163    502.635    519.291    502.635
 60.670   1066.650   1067.416     -0.766    502.728   1052.361    502.728    517.736    502.728
 60.770    881.732    914.307    -32.575    502.821    900.615    502.821    516.494    502.821
 60.870    834.068    793.424     40.644    502.914    780.821    502.914    515.511    502.914
 60.970    670.235    708.582    -38.348    503.007    696.827    503.007    514.760    503.007
 61.070    679.000    656.374     22.626    503.101    645.243    503.101    514.226    503.101
 61.170    582.345    630.859    -48.514    503.196    620.143    503.196    513.900    503.196
 61.270    667.542    627.425     40.117    503.290    616.924    503.290    513.772    503.290
 61.370    709.000    644.874     64.126    503.385    634.405    503.385    513.823    503.385
 61.470    664.000    685.579    -21.579    503.481    674.991    503.481    514.020    503.481
 61.570    716.894    753.874    -36.981    503.576    743.070    503.576    514.308    503.576
 61.670    850.000    853.025     -3.025    503.672    841.996    503.672    514.599    503.672
 61.770    966.000    981.461    -15.461    503.768    970.315    503.768    514.780    503.768
 61.870   1032.000   1129.406    -97.406    503.865   1118.372    503.865    514.735    503.865
 61.970   1187.000   1277.153    -90.153    503.962   1266.532    503.962    514.401    503.962
 62.070   1364.021   1396.322    -32.301    504.059   1386.396    504.059    513.805    504.059
 62.170   1396.324   1456.634    -60.309    504.156   1447.594    504.156    513.042    504.156
 62.270   1438.000   1439.684     -1.684    504.253   1431.607    504.253    512.219    504.253
 62.370   1329.000   1350.528    -21.528    504.351   1343.391    504.351    511.424    504.351
 62.470   1250.890   1214.045     36.845    504.449   1207.759    504.449    510.710    504.449
 62.570   1012.022   1060.870    -48.848    504.547   1055.313    504.547    510.104    504.547
 62.670    882.355    916.287    -33.932    504.645    911.331    504.645    509.614    504.645
 62.770    781.000    795.870    -14.870    504.744    791.398    504.744    509.233    504.744
 62.870    674.000    705.467    -31.467    504.842    701.376    504.842    508.946    504.842
 62.970    612.000    643.526    -31.526    504.941    639.738    504.941    508.737    504.941
 63.070    588.000    604.421    -16.421    505.040    600.877    505.040    508.588    505.040
 63.170    598.000    581.496     16.504    505.139    578.152    505.139    508.483    505.139
 63.270    559.000    569.047    -10.047    505.239    565.871    505.239    508.412    505.239
 63.370    608.172    563.156     45.016    505.338    560.125    505.338    508.364    505.338
 63.470    548.000    561.748    -13.748    505.438    558.844    505.438    508.335    505.438
 63.570    549.000    564.329    -15.329    505.537    561.538    505.537    508.320    505.537
 63.670    563.000    571.701     -8.701    505.637    569.009    505.637    508.316    505.637
 63.770    570.000    585.698    -15.698    505.737    583.094    505.737    508.322    505.737
 63.870    634.483    608.830     25.653    505.837    606.302    505.837    508.336    505.837
 63.970    622.000    643.673    -21.673    505.937    641.210    505.937    508.357    505.937
 64.070    743.000    691.923     51.077    506.037    689.515    506.037    508.384    506.037
 64.170    786.000    753.251     32.749    506.137    750.889    506.137    508.417    506.137
 64.270    865.000    824.198     40.802    506.238    821.878    506.238    508.455    506.238
 64.370    891.244    897.491     -6.246    506.338    895.209    506.338    508.499    506.338
 64.470    960.000    962.279     -2.279    506.438    960.041    506.438    508.546    506.438
 64.570   1026.320   1006.437     19.883    506.538   1004.250    506.538    508.598    506.538
 64.670   1019.000   1021.291     -2.291    506.639   1019.162    506.639    508.653    506.639
 64.770    992.595   1005.500    -12.905    506.739   1003.437    506.739    508.712    506.739
 64.870    956.000    964.602     -8.602    506.839    962.606    506.839    508.774    506.839
 64.970    911.567    908.015      3.552    506.940    906.083    506.940    508.839    506.940
 65.070    903.000    845.939     57.061    507.040    844.062    507.040    508.907    507.040
 65.170    831.488    786.562     44.926    507.140    784.734    507.140    508.978    507.140
 65.270    763.000    734.523     28.477    507.240    732.733    507.240    509.051    507.240
 65.370    699.000    691.174      7.826    507.341    689.415    507.341    509.126    507.341
 65.470    647.000    656.025     -9.025    507.441    654.288    507.441    509.204    507.441
 65.570    594.956    628.072    -33.116    507.541    626.352    507.541    509.284    507.541
 65.670    590.000    606.311    -16.311    507.640    604.603    507.640    509.366    507.640
 65.770    568.394    589.792    -21.398    507.740    588.094    507.740    509.451    507.740
 65.870    556.000    577.648    -21.648    507.840    575.959    507.840    509.537    507.840
 65.970    586.000    569.122     16.878    507.940    567.441    507.940    509.624    507.940
 66.070    589.446    563.557     25.889    508.039    561.885    508.039    509.713    508.039
 66.170    555.000    560.391     -5.391    508.138    558.725    508.138    509.804    508.138
 66.270    605.264    559.150     46.114    508.238    557.489    508.238    509.897    508.238
 66.370    585.000    559.478     25.522    508.337    557.822    508.337    509.993    508.337
 66.470    587.944    561.177     26.767    508.436    559.523    508.436    510.090    508.436
 66.570    572.000    564.267      7.733    508.534    562.614    508.534    510.188    508.534
 66.670    590.298    569.094     21.205    508.633    567.439    508.633    510.289    508.633
 66.770    548.000    576.531    -28.531    508.731    574.872    508.731    510.391    508.731
 66.870    591.000    588.321      2.679    508.829    586.656    508.829    510.495    508.829
 66.970    649.043    607.562     41.481    508.927    605.888    508.927    510.600    508.927
 67.070    677.000    639.251     37.749    509.025    637.564    509.025    510.708    509.025
 67.170    712.309    690.637     21.672    509.123    688.935    509.123    510.817    509.123
 67.270    811.953    770.997     40.955    509.220    769.276    509.220    510.929    509.220
 67.370    890.000    890.360     -0.360    509.317    888.618    509.317    511.042    509.317
 67.470   1002.962   1056.921    -53.959    509.414   1055.159    509.414    511.158    509.414
 67.570   1258.000   1273.348    -15.348    509.510   1271.571    509.510    511.275    509.510
 67.670   1508.000   1532.814    -24.814    509.607   1531.031    509.607    511.395    509.607
 67.770   1734.000   1815.945    -81.945    509.703   1814.168    509.703    511.518    509.703
 67.870   2078.000   2089.859    -11.859    509.798   2088.103    509.798    511.643    509.798
 67.970   2275.000   2310.799    -35.799    509.894   2309.077    509.894    511.770    509.894
 68.070   2495.079   2433.402     61.677    509.989   2431.718    509.989    511.901    509.989
 68.170   2353.626   2427.912    -74.286    510.084   2426.254    510.084    512.034    510.084
 68.270   2298.000   2295.847      2.153    510.178   2294.186    510.178    512.171    510.178
 68.370   2133.562   2069.049     64.513    510.273   2067.347    510.273    512.312    510.273
 68.470   1868.000   1793.250     74.750    510.366   1791.473    510.366    512.456    510.366
 68.570   1532.000   1511.482     20.518    510.460   1509.606    510.460    512.605    510.460
 68.670   1207.553   1255.512    -47.959    510.553   1253.522    510.553    512.758    510.553
 68.770   1089.000   1043.581     45.419    510.646   1041.473    510.646    512.916    510.646
 68.870    899.633    881.582     18.051    510.738    879.356    510.738    513.080    510.738
 68.970    757.000    766.231     -9.231    510.830    763.890    510.830    513.250    510.830
 69.070    745.000    689.054     55.946    510.922    686.601    510.922    513.426    510.922
 69.170    672.478    640.013     32.466    511.013    637.449    511.013    513.609    511.013
 69.270    628.000    609.970     18.030    511.104    607.295    511.104    513.801    511.104
 69.370    625.000    591.862     33.138    511.194    589.069    511.194    514.001    511.194
 69.470    610.000    580.849     29.151    511.284    577.931    511.284    514.211    511.284
 69.570    617.000    573.936     43.064    511.374    570.883    511.374    514.433    511.374
 69.670    589.666    569.411     20.255    511.463    566.212    511.463    514.667    511.463
 69.770    596.000    566.360     29.640    511.551    563.000    511.551    514.914    511.551
 69.870    539.000    564.318    -25.318    511.639    560.781    511.639    515.178    511.639
 69.970    512.750    563.055    -50.304    511.727    559.324    511.727    515.460    511.727
 70.070    520.000    562.466    -42.466    511.814    558.520    511.814    515.761    511.814
 70.170    608.000    562.518     45.482    511.901    558.333    511.901    516.086    511.901
 70.270    538.752    563.239    -24.486    511.987    558.787    511.987    516.438    511.987
 70.370    554.000    564.736    -10.736    512.073    559.987    512.073    516.820    512.073
 70.470    550.000    567.248    -17.248    512.158    562.165    512.158    517.238    512.158
 70.570    570.000    571.255     -1.255    512.243    565.796    512.243    517.697    512.243
 70.670    574.000    577.635     -3.635    512.327    571.750    512.327    518.205    512.327
 70.770    602.000    587.898     14.102    512.410    581.526    512.410    518.771    512.410
 70.870    637.802    604.469     33.332    512.494    597.535    512.494    519.410    512.494
 70.970    599.000    630.926    -31.926    512.576    623.334    512.576    520.141    512.576
 71.070    691.526    672.054     19.472    512.658    663.676    512.658    520.995    512.658
 71.170    783.082    733.515     49.567    512.739    724.174    512.739    522.020    512.739
 71.270    819.000    820.960     -1.960    512.820    810.399    512.820    523.296    512.820
 71.370    913.000    938.532    -25.532    512.900    926.370    512.900    524.949    512.900
 71.470   1060.000   1086.943    -26.943    512.980   1072.605    512.980    527.173    512.980
 71.570   1253.000   1261.572     -8.572    513.059   1244.197    513.059    530.258    513.059
 71.670   1381.652   1451.101    -69.449    513.137   1429.428    513.137    534.610    513.137
 71.770   1627.000   1637.176    -10.176    513.215   1609.422    513.215    540.757    513.215
 71.870   1713.336   1795.698    -82.363    513.292   1759.448    513.292    549.334    513.292
 71.970   1963.000   1901.004     61.996    513.369   1853.165    513.369    561.021    513.369
 72.070   2002.000   1933.948     68.052    513.445   1870.807    513.445    576.434    513.445
 72.170   1945.929   1890.774     55.155    513.520   1808.207    513.520    595.975    513.520
 72.270   1773.000   1785.269    -12.269    513.594   1679.142    513.594    619.646    513.594
 72.370   1674.000   1641.666     32.334    513.668   1508.416    513.668    646.871    513.668
 72.470   1527.000   1484.929     42.071    513.742   1322.320    513.742    676.323    513.742
 72.570   1316.259   1334.573    -18.314    513.814   1142.573    513.814    705.796    513.814
 72.670   1182.648   1202.292    -19.644    513.886    983.995    513.886    732.169    513.886
 72.770   1093.125   1092.018      1.107    513.957    854.283    513.957    751.679    513.957
 72.870    973.000   1001.811    -28.811    514.028    755.020    514.028    760.804    514.028
 72.970    810.000    927.023   -117.023    514.097    683.442    514.097    757.663    514.097
 73.070    821.597    863.248    -41.651    514.166    634.436    514.166    742.963    514.166
 73.170    785.000    807.663    -22.663    514.235    602.276    514.235    719.608    514.235
 73.270    781.290    758.878     22.412    514.302    581.795    514.302    691.374    514.302
 73.370    697.547    716.335    -18.788    514.369    568.952    514.369    661.743    514.369
 73.470    690.979    679.861     11.118    514.435    560.920    514.435    633.370    514.435
 73.570    581.000    649.411    -68.411    514.500    555.911    514.500    607.997    514.500
 73.670    557.000    624.880    -67.880    514.565    552.896    514.565    586.550    514.565
 73.770    626.670    605.984     20.685    514.628    551.330    514.628    569.287    514.628
 73.870    581.123    592.222    -11.099    514.691    550.942    514.691    555.979    514.691
 73.970    554.000    582.902    -28.902    514.754    551.573    514.754    546.095    514.754
 74.070    592.831    577.207     15.624    514.815    553.069    514.815    538.970    514.815
 74.170    597.000    574.254     22.746    514.876    555.212    514.876    533.941    514.876
 74.270    582.647    573.143      9.504    514.935    557.687    514.935    530.421    514.935
 74.370    593.000    572.989     20.011    514.994    560.073    514.994    527.947    514.994
 74.470    555.825    572.958    -17.133    515.052    561.878    515.052    526.173    515.052
 74.570    543.171    572.341    -29.171    515.110    562.632    515.110    524.862    515.110
 74.670    636.000    570.686     65.314    515.166    562.040    515.166    523.857    515.166
 74.770    613.662    567.905     45.757    515.222    560.111    515.222    523.058    515.222
 74.870    613.059    564.256     48.803    515.277    557.168    515.277    522.402    515.277
 74.970    623.000    560.201     62.799    515.330    553.711    515.330    521.852    515.330
 75.070    548.302    556.264     -7.962    515.384    550.291    515.384    521.382    515.384
 75.170    551.425    552.954     -1.529    515.436    547.431    515.436    520.977    515.436
 75.270    539.523    550.750    -11.227    515.487    545.625    515.487    520.625    515.487
 75.370    589.000    550.124     38.876    515.537    545.351    515.537    520.318    515.537
 75.470    570.000    551.565     18.435    515.587    547.106    515.587    520.048    515.587
 75.570    531.000    555.596    -24.596    515.636    551.417    515.636    519.810    515.636
 75.670    561.000    562.744     -1.744    515.683    558.816    515.683    519.601    515.683
 75.770    591.000    573.464     17.536    515.730    569.762    515.730    519.415    515.730
 75.870    611.474    587.997     23.476    515.776    584.498    515.776    519.251    515.776
 75.970    562.257    606.199    -43.943    515.821    602.882    515.821    519.105    515.821
 76.070    591.000    627.370    -36.370    515.865    624.218    515.865    518.976    515.865
 76.170    659.000    650.143      8.857    515.908    647.141    515.908    518.860    515.908
 76.270    657.000    672.457    -15.457    515.950    669.592    515.950    518.757    515.950
 76.370    660.064    691.662    -31.598    515.992    688.925    515.992    518.665    515.992
 76.470    772.000    704.859     67.141    516.032    702.243    516.032    518.583    516.032
 76.570    740.000    709.620     30.380    516.071    707.119    516.071    518.510    516.071
 76.670    690.000    704.931    -14.931    516.109    702.540    516.109    518.444    516.109
 76.770    735.201    691.685     43.516    516.147    689.398    516.147    518.385    516.147
 76.870    648.000    672.236    -24.236    516.183    670.047    516.183    518.333    516.183
 76.970    638.000    649.461    -11.461    516.219    647.364    516.219    518.286    516.219
 77.070    659.000    626.017     32.983    516.253    624.005    516.253    518.243    516.253
 77.170    590.000    603.981    -13.981    516.286    602.047    516.286    518.205    516.286
 77.270    599.636    584.720     14.916    516.319    582.857    516.319    518.171    516.319
 77.370    496.000    568.911    -72.911    516.350    567.114    516.350    518.141    516.350
 77.470    550.000    556.648     -6.648    516.381    554.912    516.381    518.113    516.381
 77.570    529.000    547.607    -18.607    516.410    545.926    516.410    518.088    516.410
 77.670    509.934    541.233    -31.299    516.438    539.603    516.438    518.066    516.438
 77.770    542.000    536.904      5.096    516.466    535.322    516.466    518.046    516.466
 77.870    560.530    534.043     26.487    516.492    532.506    516.492    518.028    516.492
 77.970    572.364    532.179     40.185    516.517    530.683    516.517    518.012    516.517
 78.070    533.264    530.962      2.302    516.542    529.506    516.542    517.997    516.542
 78.170    556.767    530.154     26.613    516.565    528.734    516.565    517.984    516.565
 78.270    506.000    529.605    -23.605    516.587    528.219    516.587    517.972    516.587
 78.370    531.812    529.208      2.604    516.608    527.854    516.608    517.961    516.608
 78.470    524.000    528.928     -4.928    516.628    527.603    516.628    517.951    516.628
 78.570    555.000    528.776     26.224    516.647    527.479    516.647    517.943    516.647
 78.670    537.000    528.726      8.274    516.665    527.455    516.665    517.935    516.665
 78.770    492.000    528.785    -36.785    516.681    527.537    516.681    517.929    516.681
 78.870    544.000    528.970     15.030    516.697    527.743    516.697    517.923    516.697
 78.970    536.000    529.309      6.691    516.712    528.100    516.712    517.920    516.712
 79.070    575.000    529.830     45.170    516.725    528.636    516.725    517.918    516.725
 79.170    481.000    530.567    -49.567    516.738    529.384    516.738    517.918    516.738
 79.270    500.000    531.549    -31.549    516.749    530.373    516.749    517.922    516.749
 79.370    527.000    532.804     -5.804    516.759    531.630    516.759    517.930    516.759
 79.470    500.533    534.356    -33.823    516.768    533.178    516.768    517.943    516.768
 79.570    527.000    536.238     -9.238    516.776    535.047    516.776    517.963    516.776
 79.670    552.921    538.494     14.427    516.783    537.283    516.783    517.990    516.783
 79.770    500.000    541.206    -41.206    516.789    539.965    516.789    518.025    516.789
 79.870    534.332    544.511    -10.179    516.793    543.230    516.793    518.068    516.793
 79.970    492.000    548.628    -56.628    516.797    547.300    516.797    518.120    516.797
 80.070    561.955    553.888      8.067    516.799    552.503    516.799    518.180    516.799
 80.170    569.000    560.727      8.273    516.800    559.281    516.800    518.244    516.800
 80.270    545.000    569.642    -24.642    516.800    568.131    516.800    518.310    516.800
 80.370    581.000    581.090     -0.090    516.799    579.518    516.799    518.372    516.799
 80.470    597.100    595.369      1.731    516.797    593.746    516.797    518.425    516.797
 80.570    620.000    612.508      7.492    516.794    610.849    516.794    518.462    516.794
 80.670    620.337    632.174    -11.837    516.789    630.504    516.789    518.474    516.789
 80.770    641.000    653.634    -12.634    516.783    651.978    516.783    518.459    516.783
 80.870    672.106    675.768     -3.662    516.777    674.155    516.777    518.417    516.777
 80.970    678.000    697.196    -19.196    516.769    695.647    516.769    518.350    516.769
 81.070    705.661    716.475    -10.814    516.759    715.008    516.759    518.267    516.759
 81.170    709.624    732.300    -22.677    516.749    730.923    516.749    518.173    516.749
 81.270    720.300    743.617    -23.317    516.737    742.332    516.737    518.076    516.737
 81.370    791.000    749.709     41.291    516.725    748.513    516.725    517.980    516.725
 81.470    763.000    750.277     12.723    516.711    749.163    516.711    517.889    516.711
 81.570    788.000    745.459     42.541    516.695    744.417    516.695    517.804    516.695
 81.670    776.000    735.772     40.228    516.679    734.793    516.679    517.728    516.679
 81.770    758.000    722.082     35.918    516.662    721.154    516.662    517.659    516.662
 81.870    760.000    705.566     54.434    516.643    704.679    516.643    517.598    516.643
 81.970    697.000    687.551      9.449    516.623    686.695    516.623    517.544    516.623
 82.070    701.419    669.237     32.182    516.602    668.406    516.602    517.496    516.602
 82.170    612.000    651.482    -39.482    516.580    650.669    516.580    517.452    516.580
 82.270    627.000    634.754     -7.754    516.556    633.953    516.556    517.411    516.556
 82.370    588.000    619.239    -31.239    516.531    618.447    516.531    517.373    516.531
 82.470    596.000    605.020     -9.020    516.505    604.234    516.505    517.336    516.505
 82.570    563.152    592.203    -29.051    516.478    591.421    516.478    517.300    516.478
 82.670    579.000    580.945     -1.945    516.450    580.163    516.450    517.264    516.450
 82.770    526.052    571.417    -45.365    516.420    570.634    516.420    517.228    516.420
 82.870    547.000    563.769    -16.769    516.389    562.984    516.389    517.192    516.389
 82.970    600.829    558.112     42.718    516.357    557.325    516.357    517.156    516.357
 83.070    577.460    554.507     22.953    516.324    553.717    516.324    517.119    516.324
 83.170    548.000    552.949     -4.949    516.289    552.154    516.289    517.081    516.289
 83.270    561.895    553.340      8.555    516.254    552.541    516.254    517.042    516.254
 83.370    601.730    555.475     46.255    516.217    554.671    516.217    517.003    516.217
 83.470    513.964    559.028    -45.065    516.179    558.219    516.179    516.963    516.179
 83.570    528.000    563.550    -35.550    516.139    562.736    516.139    516.922    516.139
 83.670    637.000    568.482     68.518    516.099    567.663    516.099    516.880    516.099
 83.770    618.384    573.181     45.203    516.057    572.359    516.057    516.837    516.057
 83.870    618.040    576.973     41.067    516.014    576.148    516.014    516.794    516.014
 83.970    579.395    579.238      0.156    515.969    578.413    515.969    516.749    515.969
 84.070    594.000    579.542     14.458    515.924    578.717    515.924    516.704    515.924
 84.170    582.536    577.754      4.782    515.877    576.932    515.877    516.657    515.877
 84.270    580.438    574.082      6.357    515.829    573.262    515.829    516.610    515.829
 84.370    579.066    568.983     10.083    515.779    568.167    515.779    516.561    515.779
 84.470    546.293    563.025    -16.732    515.729    562.214    515.729    516.512    515.729
 84.570    556.000    556.766     -0.766    515.677    555.959    515.677    516.462    515.677
 84.670    555.000    550.680      4.320    515.624    549.875    515.624    516.410    515.624
 84.770    502.328    545.121    -42.793    515.569    544.318    515.569    516.358    515.569
 84.870    551.000    540.315     10.685    515.514    539.513    515.514    516.305    515.514
 84.970    527.000    536.367     -9.367    515.457    535.564    515.457    516.251    515.457
 85.070    527.388    533.278     -5.890    515.399    532.474    515.399    516.196    515.399
 85.170    547.000    530.980     16.020    515.340    530.174    515.340    516.140    515.340
 85.270    545.000    529.364     15.636    515.279    528.556    515.279    516.083    515.279
 85.370    514.000    528.311    -14.311    515.217    527.500    515.217    516.025    515.217
 85.470    509.000    527.715    -18.715    515.154    526.899    515.154    515.966    515.154
 85.570    521.000    527.494     -6.494    515.090    526.674    515.090    515.906    515.090
 85.670    550.000    527.605     22.395    515.025    526.780    515.025    515.845    515.025
 85.770    524.000    528.046     -4.046    514.958    527.214    514.958    515.784    514.958
 85.870    493.000    528.856    -35.856    514.890    528.017    514.890    515.721    514.890
 85.970    544.799    530.121     14.678    514.820    529.275    514.820    515.658    514.820
 86.070    570.413    531.970     38.443    514.750    531.115    514.750    515.593    514.750
 86.170    548.000    534.568     13.432    514.678    533.703    514.678    515.528    514.678
 86.270    517.000    538.105    -21.105    514.605    537.229    514.605    515.462    514.605
 86.370    514.057    542.780    -28.723    514.531    541.890    514.531    515.394    514.531
 86.470    529.000    548.763    -19.763    514.455    547.858    514.455    515.327    514.455
 86.570    556.592    556.166      0.426    514.379    555.245    514.379    515.258    514.379
 86.670    559.000    564.996     -5.996    514.301    564.056    514.301    515.188    514.301
 86.770    589.385    575.104     14.281    514.222    574.144    514.222    515.118    514.222
 86.870    574.374    586.187    -11.813    514.141    585.206    514.141    515.046    514.141
 86.970    585.000    597.741    -12.741    514.059    596.738    514.059    514.974    514.059
 87.070    630.000    609.056     20.944    513.976    608.031    513.976    514.902    513.976
 87.170    639.618    619.269     20.349    513.892    618.225    513.892    514.828    513.892
 87.270    641.000    627.445     13.555    513.807    626.384    513.807    514.754    513.807
 87.370    654.054    632.713     21.342    513.720    631.638    513.720    514.679    513.720
 87.470    618.854    634.471    -15.617    513.632    633.387    513.632    514.604    513.632
 87.570    632.000    632.567     -0.567    513.543    631.476    513.543    514.528    513.543
 87.670    579.296    627.338    -48.043    513.453    626.244    513.453    514.451    513.453
 87.770    583.361    619.511    -36.150    513.361    618.415    513.361    514.374    513.361
 87.870    641.000    610.018     30.982    513.269    608.921    513.269    514.296    513.269
 87.970    590.732    599.844     -9.112    513.175    598.745    513.175    514.218    513.175
 88.070    592.000    589.917      2.083    513.080    588.814    513.080    514.139    513.080
 88.170    619.532    581.039     38.493    512.983    579.930    512.983    514.061    512.983
 88.270    603.000    573.841     29.159    512.886    572.725    512.886    513.981    512.886
 88.370    578.000    568.758      9.242    512.787    567.632    512.787    513.902    512.787
 88.470    600.000    566.018     33.982    512.687    564.880    512.687    513.822    512.687
 88.570    519.537    565.653    -46.117    512.585    564.502    512.585    513.743    512.585
 88.670    574.000    567.509      6.491    512.483    566.342    512.483    513.663    512.483
 88.770    567.000    571.262     -4.262    512.379    570.078    512.379    513.584    512.379
 88.870    621.000    576.443     44.557    512.275    575.242    512.275    513.504    512.275
 88.970    598.000    582.463     15.537    512.169    581.243    512.169    513.425    512.169
 89.070    564.561    588.638    -24.077    512.061    587.398    512.061    513.345    512.061
 89.170    575.000    594.233    -19.233    511.953    592.970    511.953    513.267    511.953
 89.270    589.000    598.523     -9.523    511.843    597.234    511.843    513.189    511.843
 89.370    602.000    600.886      1.114    511.733    599.567    511.733    513.113    511.733
 89.470    591.775    600.923     -9.148    511.621    599.570    511.621    513.037    511.621
 89.570    578.000    598.551    -20.551    511.508    597.159    511.508    512.963    511.508
 89.670    586.000    594.011     -8.011    511.393    592.575    511.393    512.891    511.393
 89.770    593.000    587.783      5.217    511.278    586.299    511.278    512.820    511.278
 89.870    599.118    580.461     18.657    511.161    578.923    511.161    512.751    511.161
 89.970    512.000    572.639    -60.639    511.044    571.043    511.044    512.685    511.044
 90.070    611.000    564.846     46.154    510.925    563.188    510.925    512.621    510.925
 90.170    492.000    557.506    -65.506    510.805    555.782    510.805    512.560    510.805
 90.270    572.000    550.921     21.079    510.683    549.126    510.683    512.504    510.683
 90.370    559.181    545.274     13.906    510.561    543.403    510.561    512.452    510.561
 90.470    556.231    540.637     15.594    510.438    538.684    510.438    512.405    510.438
 90.570    495.312    536.992    -41.680    510.313    534.951    510.313    512.365    510.313
 90.670    562.529    534.261     28.268    510.187    532.123    510.187    512.333    510.187
 90.770    550.599    532.330     18.269    510.061    530.085    510.061    512.311    510.061
 90.870    512.149    531.073    -18.924    509.933    528.707    509.933    512.302    509.933
 90.970    516.000    530.341    -14.341    509.804    527.836    509.804    512.310    509.804
 91.070    563.059    530.116     32.943    509.674    527.449    509.674    512.341    509.674
 91.170    509.000    530.336    -21.336    509.542    527.476    509.542    512.401    509.542
 91.270    505.250    530.975    -25.725    509.410    527.882    509.410    512.501    509.410
 91.370    547.318    532.068     15.250    509.277    528.688    509.277    512.653    509.277
 91.470    527.000    533.698     -6.698    509.142    529.960    509.142    512.875    509.142
 91.570    518.000    535.993    -17.993    509.007    531.806    509.007    513.188    509.007
 91.670    506.083    539.132    -33.049    508.870    534.379    508.870    513.616    508.870
 91.770    542.000    543.336     -1.336    508.732    537.870    508.732    514.188    508.732
 91.870    587.856    548.852     39.004    508.594    542.494    508.594    514.939    508.594
 91.970    513.432    555.942    -42.510    508.454    548.478    508.454    515.902    508.454
 92.070    604.224    564.861     39.363    508.313    556.041    508.313    517.112    508.313
 92.170    563.007    575.829    -12.822    508.171    565.371    508.171    518.602    508.171
 92.270    607.000    588.994     18.006    508.028    576.594    508.028    520.396    508.028
 92.370    569.000    604.409    -35.409    507.884    589.744    507.884    522.510    507.884
 92.470    670.414    621.992     48.422    507.739    604.742    507.739    524.942    507.739
 92.570    603.000    641.511    -38.511    507.593    621.376    507.593    527.675    507.593
 92.670    663.583    662.563      1.020    507.446    639.283    507.446    530.665    507.446
 92.770    680.000    684.572     -4.572    507.298    657.960    507.298    533.843    507.298
 92.870    729.000    706.807     22.193    507.149    676.772    507.149    537.112    507.149
 92.970    769.494    728.431     41.064    507.000    695.014    507.000    540.339    507.000
 93.070    742.000    748.613     -6.613    506.849    712.022    506.849    543.359    506.849
 93.170    790.000    766.663     23.337    506.697    727.298    506.697    545.980    506.697
 93.270    770.000    782.133    -12.133    506.544    740.600    506.544    547.996    506.544
 93.370    833.718    794.884     38.834    506.390    751.979    506.390    549.215    506.390
 93.470    862.000    805.043     56.957    506.236    761.699    506.236    549.502    506.236
 93.570    829.000    812.931     16.069    506.080    770.126    506.080    548.810    506.080
 93.670    855.926    819.007     36.919    505.923    777.657    505.923    547.201    505.923
 93.770    861.372    823.835     37.537    505.766    784.710    505.766    544.821    505.766
 93.870    893.000    828.090     64.910    505.607    791.765    505.607    541.865    505.607
 93.970    859.000    832.529     26.471    505.448    799.374    505.448    538.539    505.448
 94.070    805.000    837.886    -32.886    505.288    808.079    505.288    535.032    505.288
 94.170    865.000    844.697     20.303    505.127    818.258    505.127    531.506    505.127
 94.270    906.708    853.125     53.582    504.965    829.947    504.965    528.086    504.965
 94.370    815.289    862.846    -47.557    504.802    842.727    504.802    524.867    504.802
 94.470    897.000    873.025     23.975    504.638    855.698    504.638    521.914    504.638
 94.570    848.682    882.379    -33.696    504.474    867.540    504.474    519.267    504.474
 94.670    935.000    889.321     45.679    504.309    876.649    504.309    516.940    504.309
 94.770    953.230    892.191     61.039    504.142    881.368    504.142    514.933    504.142
 94.870    887.000    889.569     -2.569    503.975    880.292    503.975    513.229    503.975
 94.970    927.000    880.609     46.391    503.808    872.600    503.808    511.802    503.808
 95.070    905.459    865.267     40.193    503.639    858.281    503.639    510.619    503.639
 95.170    849.000    844.323      4.677    503.470    838.149    503.470    509.645    503.470
 95.270    792.160    819.203    -27.043    503.300    813.663    503.300    508.846    503.300
 95.370    773.000    791.712    -18.712    503.129    786.661    503.129    508.190    503.129
 95.470    714.206    763.784    -49.578    502.957    759.106    502.957    507.647    502.957
 95.570    777.000    737.378     39.622    502.784    732.980    502.784    507.194    502.784
 95.670    705.000    714.287     -9.287    502.611    710.098    502.611    506.811    502.611
 95.770    680.257    696.129    -15.872    502.437    692.092    502.437    506.481    502.437
 95.870    694.236    684.317      9.920    502.263    680.388    502.263    506.192    502.263
 95.970    687.000    680.059      6.941    502.087    676.205    502.087    505.935    502.087
 96.070    703.000    684.363     18.637    501.911    680.556    501.911    505.704    501.911
 96.170    734.000    698.043     35.957    501.735    694.261    501.735    505.492    501.735
 96.270    755.000    721.703     33.297    501.557    717.928    501.557    505.298    501.557
 96.370    730.000    755.700    -25.700    501.379    751.916    501.379    505.117    501.379
 96.470    814.000    800.069     13.931    501.201    796.263    501.201    504.950    501.201
 96.570    883.014    854.413     28.601    501.021    850.571    501.021    504.795    501.021
 96.670    914.000    917.801     -3.801    500.841    913.912    500.841    504.650    500.841
 96.770    979.000    988.673     -9.673    500.661    984.728    500.661    504.516    500.661
 96.870   1089.189   1064.775     24.414    500.480   1060.765    500.480    504.393    500.480
 96.970   1198.624   1143.139     55.485    500.298   1139.055    500.298    504.281    500.298
 97.070   1268.569   1220.128     48.441    500.115   1215.963    500.115    504.180    500.115
 97.170   1263.000   1291.557    -28.557    499.933   1287.303    499.933    504.090    499.933
 97.270   1394.000   1352.944     41.056    499.749   1348.595    499.749    504.012    499.749
 97.370   1387.000   1399.943    -12.943    499.565   1395.489    499.565    503.946    499.565
 97.470   1423.290   1428.944     -5.653    499.381   1424.376    499.381    503.894    499.381
 97.570   1408.000   1437.735    -29.735    499.196   1433.040    499.196    503.857    499.196
 97.670   1368.355   1425.949    -57.594    499.010   1421.111    499.010    503.836    499.010
 97.770   1433.000   1395.082     37.918    498.824   1390.083    498.824    503.833    498.824
 97.870   1338.884   1348.102     -9.218    498.638   1342.916    498.638    503.851    498.638
 97.970   1253.733   1288.860    -35.127    498.451   1283.460    498.451    503.892    498.451
 98.070   1200.000   1221.557    -21.557    498.263   1215.909    498.263    503.963    498.263
 98.170   1136.000   1150.357    -14.357    498.075   1144.422    498.075    504.068    498.075
 98.270   1074.000   1079.140     -5.140    497.887   1072.869    497.887    504.217    497.887
 98.370   1011.000   1011.344     -0.344    497.699   1004.679    497.699    504.420    497.699
 98.470    975.000    949.890     25.110    497.510    942.760    497.510    504.693    497.510
 98.570    918.000    897.164     20.836    497.320    889.474    497.320    505.055    497.320
 98.670    831.000    855.036    -24.036    497.130    846.668    497.130    505.534    497.130
 98.770    858.428    824.921     33.506    496.940    815.724    496.940    506.164    496.940
 98.870    835.000    807.860     27.140    496.750    797.638    496.750    506.988    496.750
 98.970    801.000    804.593     -3.593    496.559    793.099    496.559    508.059    496.559
 99.070    858.000    815.622     42.378    496.368    802.544    496.368    509.443    496.368
 99.170    822.000    841.288    -19.288    496.177    826.239    496.177    511.215    496.177
 99.270    870.000    881.713    -11.713    495.985    864.218    495.985    513.462    495.985
 99.370    961.041    936.764     24.277    495.793    916.254    495.793    516.280    495.793
 99.470    968.931   1005.992    -37.061    495.601    981.799    495.601    519.768    495.601
 99.570   1107.366   1088.530     18.835    495.409   1059.884    495.409    524.029    495.409
 99.670   1180.000   1182.984     -2.984    495.216   1149.023    495.216    529.154    495.216
 99.770   1277.068   1287.342    -10.273    495.023   1247.125    495.023    535.224    495.023
 99.870   1382.000   1398.904    -16.904    494.830   1351.436    494.830    542.293    494.830
 99.970   1542.927   1514.271     28.656    494.637   1458.536    494.637    550.381    494.637
100.070   1596.929   1629.414    -32.485    494.444   1564.420    494.444    559.466    494.444
100.170   1794.000   1739.875     54.125    494.250   1664.707    494.250    569.469    494.250
100.270   1842.000   1841.102      0.898    494.057   1754.984    494.057    580.252    494.057
100.370   1942.000   1928.868     13.132    493.863   1831.226    493.863    591.607    493.863
100.470   2086.000   1999.617     86.383    493.670   1890.162    493.670    603.253    493.670
100.570   2110.470   2050.639     59.831    493.476   1929.438    493.476    614.830    493.476
100.670   2072.719   2080.048     -7.329    493.282   1947.604    493.282    625.899    493.282
100.770   2132.000   2086.728     45.272    493.088   1944.052    493.088    635.955    493.088
100.870   2072.000   2070.421      1.579    492.895   1919.074    492.895    644.445    492.895
100.970   2090.000   2031.972     58.028    492.701   1874.065    492.701    650.820    492.701
101.070   2001.543   1973.576     27.967    492.507   1811.692    492.507    654.605    492.507
101.170   1926.000   1898.797     27.203    492.313   1735.835    492.313    655.486    492.313
101.270   1811.000   1812.261     -1.261    492.119   1651.210    492.119    653.374    492.119
101.370   1633.887   1719.111    -85.225    491.926   1562.802    491.926    648.427    491.926
101.470   1626.021   1624.414      1.607    491.732   1475.311    491.732    641.013    491.732
101.570   1574.000   1532.676     41.324    491.539   1392.738    491.539    631.638    491.539
101.670   1404.000   1447.526    -43.526    491.346   1318.158    491.346    620.860    491.346
101.770   1284.000   1371.546    -87.546    491.153   1253.608    491.153    609.221    491.153
101.870   1341.404   1306.222     35.183    490.960   1200.086    490.960    597.210    490.960
101.970   1248.389   1251.973     -3.584    490.767   1157.599    490.767    585.244    490.767
102.070   1155.000   1208.248    -53.248    490.574   1125.257    490.574    573.659    490.574
102.170   1220.539   1173.662     46.877    490.382   1101.415    490.382    562.715    490.382
102.270   1147.921   1146.177      1.744    490.190   1083.850    490.190    552.598    490.190
102.370   1169.000   1123.330     45.670    489.998   1069.978    489.998    543.430    489.998
102.470   1121.000   1102.511     18.489    489.807   1057.127    489.807    535.270    489.807
102.570   1025.000   1081.277    -56.277    489.615   1042.845    489.615    528.128    489.615
102.670   1089.000   1057.672     31.328    489.425   1025.205    489.425    521.974    489.425
102.770   1024.000   1030.455     -6.455    489.234   1003.028    489.234    516.743    489.234
102.870    961.000    999.183    -38.183    489.044    975.958    489.044    512.353    489.044
102.970    980.000    964.127     15.873    488.854    944.358    488.854    508.706    488.854
103.070    929.353    926.069      3.284    488.665    909.113    488.665    505.700    488.665
103.170    821.000    886.088    -65.088    488.476    871.402    488.476    503.238    488.476
103.270    854.000    845.370      8.630    488.287    832.504    488.287    501.225    488.287
103.370    855.381    805.078     50.303    488.099    793.665    488.099    499.578    488.099
103.470    714.064    766.259    -52.195    487.912    756.006    487.912    498.223    487.912
103.570    775.000    729.788     45.212    487.725    720.464    487.725    497.100    487.725
103.670    676.000    696.332    -20.332    487.538    687.757    487.538    496.158    487.538
103.770    719.000    666.340     52.660    487.352    658.374    487.352    495.356    487.352
103.870    659.825    640.043     19.783    487.167    632.578    487.167    494.663    487.167
103.970    634.000    617.464     16.536    486.982    610.419    486.982    494.054    486.982
104.070    593.000    598.485     -5.485    486.798    591.794    486.798    493.511    486.798
104.170    621.000    582.845     38.155    486.615    576.458    486.615    493.019    486.615
104.270    580.651    570.204     10.448    486.432    564.081    486.432    492.567    486.432
104.370    559.000    560.181     -1.181    486.250    554.291    486.250    492.150    486.250
104.470    576.000    552.391     23.609    486.069    546.706    486.069    491.760    486.069
104.570    551.000    546.463      4.537    485.888    540.963    485.888    491.393    485.888
104.670    511.293    542.068    -30.776    485.708    536.732    485.708    491.047    485.708
104.770    539.000    538.926      0.074    485.529    533.737    485.529    490.718    485.529
104.870    516.106    536.809    -20.703    485.351    531.754    485.351    490.406    485.351
104.970    560.000    535.549     24.451    485.173    530.613    485.173    490.107    485.173
105.070    542.000    535.031      6.969    484.997    530.202    484.997    489.822    484.997
105.170    521.771    535.187    -13.417    484.821    530.454    484.821    489.549    484.821
105.270    540.000    536.000      4.000    484.646    531.352    484.646    489.288    484.646
105.370    515.000    537.489    -22.489    484.472    532.917    484.472    489.037    484.472
105.470    557.000    539.708     17.292    484.299    535.203    484.299    488.795    484.299
105.570    512.000    542.740    -30.740    484.127    538.292    484.127    488.563    484.127
105.670    510.938    546.685    -35.747    483.957    542.287    483.957    488.340    483.957
105.770    519.576    551.646    -32.069    483.787    547.290    483.787    488.126    483.787
105.870    571.505    557.718     13.787    483.618    553.398    483.618    487.919    483.618
105.970    596.910    564.973     31.937    483.450    560.681    483.450    487.720    483.450
106.070    575.000    573.441      1.559    483.283    569.171    483.283    487.528    483.283
106.170    572.020    583.098    -11.078    483.118    578.848    483.118    487.339    483.118
106.270    613.000    593.872     19.128    482.953    589.632    482.953    487.161    482.953
106.370    562.424    605.608    -43.184    482.790    601.372    482.790    486.991    482.790
106.470    599.000    618.085    -19.085    482.628    613.848    482.628    486.827    482.628
106.570    633.018    631.014      2.003    482.467    626.771    482.467    486.670    482.467
106.670    625.000    644.044    -19.044    482.308    639.790    482.308    486.519    482.308
106.770    686.849    656.774     30.075    482.149    652.504    482.149    486.375    482.149
106.870    632.000    668.772    -36.772    481.992    664.481    481.992    486.238    481.992
106.970    663.000    679.599    -16.599    481.837    675.285    481.837    486.105    481.837
107.070    710.574    688.846     21.728    481.682    684.515    481.682    485.970    481.682
107.170    653.000    696.214    -43.214    481.530    691.851    481.530    485.850    481.530
107.270    716.000    701.514     14.486    481.378    697.115    481.378    485.738    481.378
107.370    705.267    704.741      0.526    481.228    700.301    481.228    485.633    481.228
107.470    703.865    706.077     -2.212    481.080    701.590    481.080    485.534    481.080
107.570    674.000    705.860    -31.860    480.933    701.322    480.933    485.442    480.933
107.670    642.000    704.530    -62.530    480.787    699.936    480.787    485.357    480.787
107.770    694.000    702.560     -8.560    480.643    697.904    480.643    485.279    480.643
107.870    704.000    700.397      3.603    480.501    695.674    480.501    485.209    480.501
107.970    725.202    698.415     26.787    480.360    693.619    480.360    485.146    480.360
108.070    668.000    696.887    -28.887    480.221    692.012    480.221    485.090    480.221
108.170    677.000    695.964    -18.964    480.083    691.002    480.083    485.042    480.083
108.270    715.991    695.667     20.324    479.948    690.612    479.948    485.003    479.948
108.370    701.000    695.887      5.113    479.814    690.733    479.814    484.972    479.814
108.470    745.909    696.396     49.513    479.681    691.136    479.681    484.949    479.681
108.570    661.000    696.866    -35.866    479.551    691.492    479.551    484.936    479.551
108.670    705.000    696.901      8.099    479.422    691.404    479.422    484.933    479.422
108.770    662.000    696.080    -34.080    479.296    690.453    479.296    484.939    479.296
108.870    680.000    694.016    -14.016    479.171    688.249    479.171    484.956    479.171
108.970    715.000    690.412     24.588    479.048    684.496    479.048    484.984    479.048
109.070    651.000    685.109    -34.109    478.927    679.034    478.927    485.024    478.927
109.170    647.000    678.103    -31.103    478.807    671.859    478.807    485.075    478.807
109.270    661.356    669.539     -8.183    478.690    663.113    478.690    485.140    478.690
109.370    621.721    659.671    -37.951    478.575    653.052    478.575    485.218    478.575
109.470    615.131    648.826    -33.694    478.462    642.000    478.462    485.311    478.462
109.570    706.000    637.339     68.661    478.351    630.293    478.351    485.419    478.351
109.670    615.000    625.596    -10.596    478.243    618.316    478.243    485.543    478.243
109.770    577.000    613.953    -36.953    478.136    606.422    478.136    485.685    478.136
109.870    599.550    602.690     -3.141    478.031    594.892    478.031    485.846    478.031
109.970    596.605    592.061      4.544    477.929    583.977    477.929    486.028    477.929
110.070    627.914    582.269     45.646    477.829    573.878    477.829    486.232    477.829
110.170    599.000    573.463     25.537    477.732    564.743    477.732    486.461    477.732
110.270    586.660    565.739     20.921    477.636    556.665    477.636    486.718    477.636
110.370    589.000    559.143     29.857    477.543    549.686    477.543    487.006    477.543
110.470    579.000    553.677     25.323    477.453    543.805    477.453    487.329    477.453
110.570    582.675    549.309     33.366    477.364    538.983    477.364    487.693    477.364
110.670    543.000    545.977     -2.977    477.278    535.152    477.278    488.104    477.278
110.770    578.000    543.603     34.397    477.195    532.226    477.195    488.571    477.195
110.870    494.862    542.098    -47.236    477.114    530.106    477.114    489.105    477.114
110.970    560.492    541.373     19.119    477.036    528.687    477.036    489.719    477.036
111.070    573.000    541.341     31.659    476.961    527.867    476.961    490.430    476.961
111.170    504.000    541.926    -37.926    476.887    527.548    476.887    491.261    476.887
111.270    540.000    543.066     -3.066    476.817    527.641    476.817    492.236    476.817
111.370    588.000    544.714     43.286    476.749    528.066    476.749    493.390    476.749
111.470    562.000    546.839     15.161    476.684    528.756    476.684    494.760    476.684
111.570    587.631    549.432     38.198    476.622    529.652    476.622    496.394    476.622
111.670    550.000    552.502     -2.502    476.563    530.707    476.563    498.348    476.563
111.770    527.000    556.077    -29.077    476.506    531.886    476.506    500.688    476.506
111.870    610.000    560.207     49.793    476.452    533.164    476.452    503.486    476.452
111.970    583.000    564.963     18.037    476.401    534.526    476.401    506.828    476.401
112.070    613.000    570.434     42.566    476.354    535.970    476.354    510.806    476.354
112.170    543.000    576.727    -33.727    476.309    537.502    476.309    515.522    476.309
112.270    565.000    583.964    -18.964    476.267    539.137    476.267    521.081    476.267
112.370    576.023    592.277    -16.254    476.228    540.899    476.228    527.593    476.228
112.470    570.000    601.807    -31.807    476.192    542.818    476.192    535.167    476.192
112.570    592.000    612.695    -20.695    476.159    544.934    476.159    543.906    476.159
112.670    625.000    625.084     -0.084    476.130    547.296    476.130    553.903    476.130
112.770    639.000    639.112     -0.112    476.103    549.965    476.103    565.235    476.103
112.870    674.000    654.911     19.089    476.080    553.019    476.080    577.954    476.080
112.970    717.000    672.606     44.394    476.060    556.561    476.060    592.086    476.060
113.070    704.000    692.317     11.683    476.043    560.722    476.043    607.618    476.043
113.170    704.000    714.166    -10.166    476.030    565.676    476.030    624.497    476.030
113.270    751.006    738.279     12.727    476.020    571.655    476.020    642.619    476.020
113.370    754.822    764.804     -9.983    476.014    578.959    476.014    661.831    476.014
113.470    781.541    793.924    -12.383    476.011    587.984    476.011    681.919    476.011
113.570    845.000    825.874     19.126    476.011    599.238    476.011    702.612    476.011
113.670    923.000    860.971     62.029    476.015    613.373    476.015    723.572    476.015
113.770    891.301    899.634     -8.333    476.023    631.209    476.023    744.400    476.023
113.870    980.702    942.418     38.284    476.034    653.764    476.034    764.633    476.034
113.970    995.000    990.044      4.956    476.049    682.281    476.049    783.748    476.049
114.070    996.000   1043.434    -47.434    476.067    718.248    476.067    801.178    476.067
114.170   1099.000   1103.747     -4.747    476.089    763.416    476.089    816.331    476.089
114.270   1176.000   1172.416      3.584    476.115    819.800    476.115    828.625    476.115
114.370   1251.670   1251.182      0.487    476.145    889.662    476.145    837.538    476.145
114.470   1317.000   1342.113    -25.113    476.179    975.484    476.179    842.657    476.179
114.570   1425.000   1447.594    -22.594    476.216   1079.898    476.216    843.733    476.216
114.670   1570.000   1570.276     -0.276    476.258   1205.608    476.258    840.714    476.258
114.770   1782.000   1712.961     69.039    476.303   1355.264    476.303    833.752    476.303
114.870   1938.802   1878.440     60.361    476.353   1531.322    476.353    823.181    476.353
114.970   2114.000   2069.274     44.726    476.406   1735.870    476.406    809.475    476.406
115.070   2406.000   2287.552    118.448    476.464   1970.439    476.464    793.193    476.464
115.170   2453.690   2534.635    -80.945    476.525   2235.799    476.525    774.928    476.525
115.270   2873.117   2810.924     62.193    476.591   2531.768    476.591    755.263    476.591
115.370   3151.000   3115.647     35.353    476.661   2857.028    476.661    734.745    476.661
115.470   3446.324   3446.692     -0.368    476.736   3208.977    476.736    713.870    476.736
115.570   3604.000   3800.499   -196.499    476.814   3583.621    476.814    693.069    476.814
115.670   4227.050   4172.001     55.049    476.897   3975.529    476.897    672.712    476.897
115.770   4362.000   4554.639   -192.639    476.984   4377.840    476.984    653.102    476.984
115.870   4729.000   4940.448   -211.448    477.076   4782.347    477.076    634.482    477.076
115.970   5185.000   5320.205   -135.205    477.173   5179.648    477.173    617.037    477.173
116.070   5578.846   5683.669   -104.823    477.273   5559.372    477.273    600.893    477.273
116.170   6173.988   6019.896    154.092    477.379   5910.502    477.379    586.130    477.379
116.270   6310.000   6317.675     -7.675    477.489   6221.793    477.489    572.779    477.489
116.370   6542.545   6566.089    -23.544    477.603   6482.334    477.603    560.835    477.603
116.470   6854.970   6755.205     99.764    477.722   6682.232    477.722    550.257    477.722
116.570   6830.706   6876.897    -46.190    477.846   6813.422    477.846    540.979    477.846
116.670   7173.000   6925.648    247.352    477.975   6870.471    477.975    532.918    477.975
116.770   6797.306   6899.080   -101.774    478.109   6851.093    478.109    525.973    478.109
116.870   6864.000   6798.284     65.716    478.247   6756.481    478.247    520.038    478.247
116.970   6623.852   6627.659     -3.807    478.391   6591.138    478.391    515.004    478.391
117.070   6406.000   6394.383     11.617    478.539   6362.347    478.539    510.762    478.539
117.170   6123.517   6107.670     15.847    478.693   6079.422    478.693    507.209    478.693
117.270   5578.000   5777.969   -199.969    478.851   5752.907    478.851    504.247    478.851
117.370   5213.000   5416.240   -203.240    479.014   5393.851    479.014    501.788    479.014
117.470   5165.975   5033.360    132.616    479.183   5013.208    479.183    499.753    479.183
117.570   4539.000   4639.664   -100.664    479.357   4621.386    479.357    498.072    479.357
117.670   4305.000   4244.607     60.393    479.536   4227.901    479.536    496.685    479.536
117.770   3770.829   3856.516    -85.687    479.720   3841.132    479.720    495.539    479.720
117.870   3667.000   3482.425    184.575    479.910   3468.158    479.910    494.593    479.910
117.970   3190.937   3127.985     62.951    480.105   3114.670    480.105    493.810    480.105
118.070   2838.975   2797.454     41.521    480.306   2784.956    480.306    493.162    480.306
118.170   2644.000   2493.739    150.261    480.512   2481.948    480.512    492.624    480.512
118.270   2167.212   2218.501    -51.289    480.723   2207.329    480.723    492.178    480.723
118.370   2022.000   1972.295     49.705    480.940   1961.672    480.940    491.808    480.940
118.470   1715.000   1754.742    -39.742    481.163   1744.609    481.163    491.502    481.163
118.570   1476.000   1564.701    -88.701    481.391   1555.013    481.391    491.252    481.391
118.670   1421.040   1400.461     20.579    481.625   1391.178    481.625    491.048    481.625
118.770   1246.163   1259.910    -13.747    481.865   1251.000    481.865    490.887    481.865
118.870   1034.000   1140.698   -106.698    482.111   1132.134    482.111    490.762    482.111
118.970   1029.000   1040.383    -11.383    482.363   1032.141    482.363    490.671    482.363
119.070    942.078    956.542    -14.464    482.620    948.601    482.620    490.610    482.620
119.170    887.000    886.863      0.137    482.883    879.205    482.883    490.578    482.883
119.270    872.132    829.212     42.921    483.153    821.818    483.153    490.572    483.153
119.370    750.000    781.665    -31.665    483.428    774.519    483.428    490.591    483.428
119.470    717.000    742.533    -25.533    483.710    735.619    483.710    490.635    483.710
119.570    684.508    710.359    -25.851    483.998    703.662    483.998    490.702    483.998
119.670    676.321    683.912     -7.591    484.291    677.417    484.291    490.791    484.291
119.770    642.198    662.165    -19.967    484.592    655.856    484.592    490.904    484.592
119.870    626.000    644.274    -18.274    484.898    638.136    484.898    491.038    484.898
119.970    608.000    629.554    -21.554    485.211    623.571    485.211    491.195    485.211
120.070    662.366    617.454     44.912    485.530    611.611    485.530    491.375    485.530
120.170    596.135    607.535    -11.401    485.856    601.816    485.856    491.578    485.856
120.270    583.000    599.450    -16.450    486.189    593.837    486.189    491.804    486.189
120.370    588.000    592.926     -4.926    486.527    587.402    486.527    492.054    486.527
120.470    569.000    587.749    -18.749    486.873    582.296    486.873    492.329    486.873
120.570    610.893    583.752     27.140    487.225    578.351    487.225    492.630    487.225
120.670    616.492    580.806     35.686    487.584    575.438    487.584    492.957    487.584
120.770    587.000    578.811      8.189    487.950    573.453    487.950    493.312    487.950
120.870    569.000    577.686     -8.686    488.322    572.319    488.322    493.695    488.322
120.970    595.000    577.368     17.632    488.702    571.969    488.702    494.107    488.702
121.070    564.830    577.804    -12.974    489.088    572.350    489.088    494.549    489.088
121.170    583.000    578.948      4.052    489.482    573.416    489.482    495.022    489.482
121.270    591.000    580.754     10.246    489.882    575.121    489.882    495.525    489.882
121.370    574.000    583.179     -9.179    490.290    577.421    490.290    496.059    490.290
121.470    592.660    586.172      6.487    490.704    580.266    490.704    496.624    490.704
121.570    621.034    589.680     31.354    491.126    583.604    491.126    497.218    491.126
121.670    599.000    593.641      5.359    491.555    587.373    491.555    497.842    491.555
121.770    572.118    597.984    -25.866    491.992    591.504    491.992    498.492    491.992
121.870    588.000    602.628    -14.628    492.436    595.920    492.436    499.167    492.436
121.970    585.896    607.485    -21.589    492.887    600.532    492.887    499.865    492.887
122.070    656.944    612.455     44.489    493.346    605.246    493.346    500.583    493.346
122.170    662.000    617.432     44.568    493.813    609.960    493.813    501.316    493.813
122.270    582.000    622.303    -40.303    494.287    614.563    494.287    502.060    494.287
122.370    642.000    626.951     15.049    494.768    618.945    494.768    502.810    494.768
122.470    676.822    631.259     45.563    495.258    622.994    495.258    503.562    495.258
122.570    644.782    635.112      9.670    495.755    626.600    495.755    504.308    495.755
122.670    610.000    638.406    -28.406    496.260    629.667    496.260    505.042    496.260
122.770    630.000    641.052    -11.052    496.773    632.111    496.773    505.759    496.773
122.870    651.355    642.981      8.374    497.294    633.871    497.294    506.450    497.294
122.970    636.991    644.150     -7.159    497.823    634.911    497.823    507.109    497.823
123.070    648.000    644.546      3.454    498.360    635.222    498.360    507.731    498.360
123.170    651.672    644.179      7.493    498.905    634.820    498.905    508.311    498.905
123.270    645.023    643.087      1.936    499.458    633.748    499.458    508.844    499.458
123.370    617.000    641.331    -24.331    500.020    632.064    500.020    509.332    500.020
123.470    618.000    638.985    -20.985    500.590    629.842    500.590    509.777    500.590
123.570    624.000    636.132    -12.132    501.168    627.163    501.168    510.178    501.168
123.670    678.182    632.860     45.322    501.755    624.111    501.755    510.542    501.755
123.770    646.000    629.260     16.740    502.350    620.773    502.350    510.873    502.350
123.870    603.000    625.420    -22.420    502.953    617.229    502.953    511.178    502.953
123.970    605.289    621.423    -16.134    503.566    613.556    503.566    511.463    503.566
124.070    651.000    617.342     33.658    504.187    609.821    504.187    511.735    504.187
124.170    642.000    613.244     28.756    504.816    606.083    504.816    512.001    504.816
124.270    633.000    609.182     23.818    505.455    602.391    505.455    512.267    505.455
124.370    640.927    605.198     35.729    506.102    598.780    506.102    512.538    506.102
124.470    578.812    601.324    -22.512    506.758    595.279    506.758    512.819    506.758
124.570    607.000    597.580      9.420    507.424    591.902    507.424    513.115    507.424
124.670    630.000    593.977     36.023    508.098    588.656    508.098    513.429    508.098
124.770    610.000    590.515     19.485    508.781    585.540    508.781    513.765    508.781
124.870    604.000    587.199     16.801    509.474    582.555    509.474    514.125    509.474
124.970    567.501    584.021    -16.520    510.175    579.692    510.175    514.511    510.175
