neutron_powder_diffraction_0184
R_wp: 3.964
Temperature (K): 1074.000
Counts: 83729.00
Wavelength (Ã…): 2.52098
COMMENTS
Test file for demonstrating the .xyy file format in Reel1.0
END OF HEADER
   tth       Y_obs     Y_calc      Y_res    Background    Phase_1_Nuc    Phase_1_Mag    Phase_2_Nuc    Phase_2_Mag
  9.970    532.240    580.383    -48.143    579.650    580.334    579.650    579.699    579.650
 10.070    583.000    580.278      2.722    579.486    580.229    579.486    579.534    579.486
 10.170    573.000    580.178     -7.178    579.318    580.129    579.318    579.367    579.318
 10.270    606.000    580.085     25.915    579.147    580.036    579.147    579.196    579.147
 10.370    651.000    580.003     70.997    578.974    579.953    578.974    579.023    578.974
 10.470    623.000    579.933     43.067    578.797    579.882    578.797    578.847    578.797
 10.570    574.000    579.879     -5.879    578.617    579.828    578.617    578.667    578.617
 10.670    579.000    579.847     -0.847    578.435    579.796    578.435    578.485    578.435
 10.770    564.000    579.843    -15.843    578.250    579.792    578.250    578.300    578.250
 10.870    547.000    579.876    -32.876    578.062    579.825    578.062    578.112    578.062
 10.970    604.000    579.960     24.040    577.871    579.908    577.871    577.922    577.871
 11.070    515.000    580.115    -65.115    577.677    580.059    577.677    577.731    577.677
 11.170    631.000    580.364     50.636    577.481    580.307    577.481    577.536    577.481
 11.270    601.239    580.748     20.491    577.282    580.691    577.282    577.338    577.282
 11.370    639.000    581.340     57.660    577.080    581.282    577.080    577.136    577.080
 11.470    561.513    582.297    -20.784    576.876    582.238    576.876    576.932    576.876
 11.570    637.000    584.054     52.946    576.669    583.992    576.669    576.726    576.669
 11.670    616.716    587.794     28.921    576.460    587.730    576.460    576.517    576.460
 11.770    618.000    596.174     21.826    576.248    596.105    576.248    576.305    576.248
 11.870    640.000    613.318     26.682    576.033    613.239    576.033    576.091    576.033
 11.970    649.000    642.251      6.749    575.817    642.155    575.817    575.875    575.817
 12.070    694.000    679.104     14.896    575.597    678.986    575.597    575.656    575.597
 12.170    653.000    707.873    -54.873    575.376    707.739    575.376    575.435    575.376
 12.270    713.000    708.593      4.407    575.152    708.458    575.152    575.211    575.152
 12.370    676.000    680.421     -4.421    574.926    680.301    574.926    574.985    574.926
 12.470    666.226    642.973     23.253    574.697    642.874    574.697    574.757    574.697
 12.570    609.740    612.955     -3.215    574.466    612.874    574.466    574.526    574.466
 12.670    551.668    594.790    -43.122    574.234    594.718    574.234    574.294    574.234
 12.770    616.000    585.629     30.371    573.998    585.562    573.998    574.059    573.998
 12.870    534.000    581.295    -47.295    573.761    581.230    573.761    573.822    573.761
 12.970    600.252    579.036     21.215    573.522    578.972    573.522    573.583    573.522
 13.070    513.000    577.611    -64.611    573.280    577.547    573.280    573.342    573.280
 13.170    558.000    576.563    -18.563    573.037    576.500    573.037    573.098    573.037
 13.270    568.026    575.729     -7.703    572.791    575.666    572.791    572.853    572.791
 13.370    593.000    575.035     17.965    572.544    574.971    572.544    572.606    572.544
 13.470    615.107    574.438     40.669    572.294    574.374    572.294    572.357    572.294
 13.570    565.000    573.912     -8.912    572.043    573.848    572.043    572.106    572.043
 13.670    577.265    573.437      3.828    571.789    573.373    571.789    571.853    571.789
 13.770    572.734    573.002     -0.268    571.534    572.937    571.534    571.598    571.534
 13.870    548.000    572.597    -24.597    571.277    572.531    571.277    571.343    571.277
 13.970    567.000    572.214     -5.214    571.018    572.147    571.018    571.084    571.018
 14.070    554.000    571.848    -17.848    570.758    571.782    570.758    570.824    570.758
 14.170    569.064    571.497     -2.434    570.495    571.430    570.495    570.562    570.495
 14.270    584.000    571.160     12.840    570.231    571.093    570.231    570.298    570.231
 14.370    503.000    570.830    -67.830    569.966    570.763    569.966    570.033    569.966
 14.470    598.000    570.506     27.494    569.698    570.438    569.698    569.766    569.698
 14.570    600.000    570.188     29.812    569.429    570.119    569.429    569.497    569.429
 14.670    522.704    569.874    -47.169    569.159    569.805    569.159    569.227    569.159
 14.770    588.000    569.563     18.437    568.886    569.494    568.886    568.955    568.886
 14.870    562.000    569.256     -7.256    568.613    569.187    568.613    568.682    568.613
 14.970    598.176    568.951     29.226    568.337    568.881    568.337    568.407    568.337
 15.070    563.000    568.647     -5.647    568.061    568.577    568.061    568.130    568.061
 15.170    608.945    568.346     40.600    567.782    568.275    567.782    567.852    567.782
 15.270    583.401    568.045     15.356    567.503    567.974    567.503    567.573    567.503
 15.370    560.000    567.745     -7.745    567.222    567.674    567.222    567.293    567.222
 15.470    613.000    567.446     45.554    566.939    567.374    566.939    567.011    566.939
 15.570    561.753    567.147     -5.393    566.655    567.075    566.655    566.727    566.655
 15.670    633.000    566.848     66.152    566.370    566.776    566.370    566.442    566.370
 15.770    564.000    566.549     -2.549    566.084    566.477    566.084    566.156    566.084
 15.870    566.965    566.251      0.714    565.796    566.177    565.796    565.869    565.796
 15.970    517.000    565.952    -48.952    565.507    565.878    565.507    565.581    565.507
 16.070    528.024    565.654    -37.630    565.217    565.580    565.217    565.291    565.217
 16.170    564.000    565.357     -1.357    564.926    565.282    564.926    565.000    564.926
 16.270    555.000    565.057    -10.057    564.633    564.983    564.633    564.708    564.633
 16.370    610.109    564.758     45.352    564.340    564.682    564.340    564.415    564.340
 16.470    563.000    564.458     -1.458    564.045    564.381    564.045    564.121    564.045
 16.570    543.000    564.161    -21.161    563.749    564.080    563.749    563.830    563.749
 16.670    584.000    563.862     20.138    563.453    563.779    563.453    563.535    563.453
 16.770    595.000    563.560     31.440    563.155    563.477    563.155    563.238    563.155
 16.870    566.000    563.258      2.742    562.856    563.174    562.856    562.940    562.856
 16.970    540.000    562.956    -22.956    562.556    562.871    562.556    562.641    562.556
 17.070    543.355    562.655    -19.300    562.255    562.570    562.255    562.340    562.255
 17.170    569.000    562.352      6.648    561.954    562.266    561.954    562.039    561.954
 17.270    565.000    562.048      2.952    561.651    561.962    561.651    561.737    561.651
 17.370    537.000    561.743    -24.743    561.347    561.656    561.347    561.434    561.347
 17.470    545.000    561.438    -16.438    561.043    561.351    561.043    561.130    561.043
 17.570    582.000    561.133     20.867    560.738    561.045    560.738    560.826    560.738
 17.670    580.499    560.827     19.672    560.432    560.738    560.432    560.520    560.432
 17.770    533.000    560.520    -27.520    560.125    560.431    560.125    560.214    560.125
 17.870    560.562    560.213      0.349    559.818    560.124    559.818    559.907    559.818
 17.970    572.758    559.906     12.852    559.509    559.816    559.509    559.600    559.509
 18.070    518.203    559.599    -41.396    559.200    559.508    559.200    559.291    559.200
 18.170    538.000    559.291    -21.291    558.891    559.200    558.891    558.982    558.891
 18.270    540.000    558.983    -18.983    558.580    558.891    558.580    558.673    558.580
 18.370    525.340    558.674    -33.335    558.269    558.582    558.269    558.362    558.269
 18.470    555.000    558.365     -3.365    557.958    558.272    557.958    558.051    557.958
 18.570    598.224    558.056     40.168    557.646    557.962    557.646    557.740    557.646
 18.670    525.000    557.746    -32.746    557.333    557.651    557.333    557.428    557.333
 18.770    596.000    557.436     38.564    557.020    557.341    557.020    557.115    557.020
 18.870    560.000    557.126      2.874    556.706    557.030    556.706    556.802    556.706
 18.970    593.000    556.816     36.184    556.391    556.719    556.391    556.489    556.391
 19.070    553.000    556.505     -3.505    556.077    556.407    556.077    556.175    556.077
 19.170    541.000    556.195    -15.195    555.761    556.096    555.761    555.860    555.761
 19.270    567.593    555.884     11.710    555.446    555.784    555.446    555.545    555.446
 19.370    576.000    555.573     20.427    555.130    555.473    555.130    555.230    555.130
 19.470    554.000    555.263     -1.263    554.813    555.162    554.813    554.914    554.813
 19.570    521.000    554.953    -33.953    554.496    554.851    554.496    554.598    554.496
 19.670    579.000    554.642     24.358    554.179    554.540    554.179    554.282    554.179
 19.770    595.547    554.333     41.214    553.861    554.229    553.861    553.965    553.861
 19.870    555.000    554.036      0.964    553.544    553.931    553.544    553.648    553.544
 19.970    548.677    553.736     -5.058    553.225    553.630    553.225    553.331    553.225
 20.070    525.355    553.426    -28.071    552.907    553.320    552.907    553.013    552.907
 20.170    509.890    553.116    -43.226    552.588    553.009    552.588    552.696    552.588
 20.270    564.000    552.806     11.194    552.269    552.698    552.269    552.378    552.269
 20.370    514.000    552.497    -38.497    551.950    552.388    551.950    552.060    551.950
 20.470    521.000    552.188    -31.188    551.631    552.077    551.631    551.742    551.631
 20.570    516.360    551.879    -35.520    551.312    551.768    551.312    551.423    551.312
 20.670    550.000    551.571     -1.571    550.992    551.459    550.992    551.105    550.992
 20.770    564.000    551.264     12.736    550.672    551.150    550.672    550.786    550.672
 20.870    540.000    550.957    -10.957    550.353    550.842    550.353    550.467    550.353
 20.970    554.000    550.651      3.349    550.033    550.535    550.033    550.149    550.033
 21.070    543.000    550.347     -7.347    549.713    550.228    549.713    549.832    549.713
 21.170    531.509    550.052    -18.543    549.393    549.931    549.393    549.514    549.393
 21.270    562.000    549.832     12.168    549.073    549.709    549.073    549.195    549.073
 21.370    536.000    549.552    -13.552    548.753    549.428    548.753    548.877    548.753
 21.470    527.000    549.252    -22.252    548.433    549.127    548.433    548.558    548.433
 21.570    530.000    548.953    -18.953    548.113    548.826    548.113    548.239    548.113
 21.670    549.000    548.655      0.345    547.793    548.527    547.793    547.921    547.793
 21.770    534.000    548.359    -14.359    547.473    548.230    547.473    547.603    547.473
 21.870    523.393    548.065    -24.673    547.153    547.934    547.153    547.284    547.153
 21.970    536.000    547.775    -11.775    546.833    547.643    546.833    546.966    546.833
 22.070    546.000    547.512     -1.512    546.514    547.377    546.514    546.648    546.514
 22.170    561.825    547.299     14.527    546.194    547.162    546.194    546.330    546.194
 22.270    544.000    547.037     -3.037    545.875    546.899    545.875    546.013    545.875
 22.370    531.098    546.760    -15.662    545.556    546.621    545.556    545.696    545.556
 22.470    521.000    546.488    -25.488    545.237    546.347    545.237    545.379    545.237
 22.570    521.613    546.224    -24.611    544.918    546.080    544.918    545.062    544.918
 22.670    556.000    545.961     10.039    544.600    545.816    544.600    544.745    544.600
 22.770    564.000    545.705     18.295    544.281    545.558    544.281    544.429    544.281
 22.870    556.000    545.458     10.542    543.963    545.308    543.963    544.113    543.963
 22.970    598.000    545.220     52.780    543.646    545.069    543.646    543.798    543.646
 23.070    538.000    544.995     -6.995    543.328    544.841    543.328    543.483    543.328
 23.170    507.409    544.785    -37.377    543.011    544.629    543.011    543.168    543.011
 23.270    551.011    544.595      6.416    542.694    544.436    542.694    542.854    542.694
 23.370    578.588    544.430     34.158    542.378    544.269    542.378    542.540    542.378
 23.470    577.059    544.293     32.766    542.062    544.129    542.062    542.227    542.062
 23.570    546.743    544.196      2.547    541.746    544.029    541.746    541.914    541.746
 23.670    579.000    544.152     34.848    541.431    543.983    541.431    541.601    541.431
 23.770    537.000    544.181     -7.181    541.116    544.009    541.116    541.290    541.116
 23.870    532.902    544.315    -11.413    540.802    544.139    540.802    540.978    540.802
 23.970    578.000    544.609     33.391    540.488    544.431    540.488    540.668    540.488
 24.070    579.506    545.201     34.305    540.174    545.019    540.174    540.358    540.174
 24.170    535.000    546.463    -11.463    539.861    546.280    539.861    540.048    539.861
 24.270    570.000    549.381     20.619    539.548    549.196    539.548    539.739    539.548
 24.370    579.000    555.966     23.034    539.236    555.781    539.236    539.431    539.236
 24.470    524.737    568.950    -44.213    538.924    568.770    538.924    539.124    538.924
 24.570    594.783    589.634      5.149    538.613    589.465    538.613    538.818    538.613
 24.670    572.748    613.959    -41.211    538.303    613.802    538.303    538.512    538.303
 24.770    639.000    630.035      8.965    537.993    629.885    537.993    538.207    537.993
 24.870    618.000    626.117     -8.117    537.683    625.959    537.683    537.903    537.683
 24.970    619.000    605.356     13.644    537.375    605.178    537.375    537.600    537.375
 25.070    595.000    580.975     14.025    537.066    580.774    537.066    537.298    537.066
 25.170    578.117    562.250     15.867    536.759    562.030    536.759    536.996    536.759
 25.270    587.229    551.072     36.157    536.452    550.837    536.452    536.696    536.452
 25.370    566.704    545.387     21.317    536.146    545.141    536.146    536.397    536.146
 25.470    549.000    542.614      6.386    535.840    542.358    535.840    536.099    535.840
 25.570    503.000    541.112    -38.112    535.535    540.847    535.535    535.802    535.535
 25.670    570.476    540.136     30.340    535.231    539.861    535.231    535.507    535.231
 25.770    500.000    539.411    -39.411    534.927    539.127    534.927    535.213    534.927
 25.870    561.000    538.840     22.160    534.624    538.545    534.624    534.920    534.624
 25.970    531.858    538.401     -6.543    534.322    538.095    534.322    534.629    534.322
 26.070    549.023    538.039     10.985    534.020    537.720    534.020    534.339    534.020
 26.170    540.000    537.722      2.278    533.720    537.391    533.720    534.051    533.720
 26.270    555.000    537.454     17.546    533.420    537.108    533.420    533.765    533.420
 26.370    525.698    537.236    -11.538    533.121    536.876    533.121    533.481    533.121
 26.470    513.872    537.069    -23.198    532.822    536.692    532.822    533.199    532.822
 26.570    551.000    536.955     14.045    532.525    536.560    532.525    532.920    532.525
 26.670    565.000    536.899     28.101    532.228    536.484    532.228    532.643    532.228
 26.770    506.000    536.925    -30.925    531.932    536.488    531.932    532.369    531.932
 26.870    564.000    537.050     26.950    531.637    536.589    531.637    532.097    531.637
 26.970    520.000    537.234    -17.234    531.342    536.746    531.342    531.830    531.342
 27.070    533.000    537.535     -4.535    531.049    537.017    531.049    531.566    531.049
 27.170    543.785    537.992      5.793    530.757    537.441    530.757    531.307    530.757
 27.270    552.000    538.660     13.340    530.465    538.072    530.465    531.052    530.465
 27.370    569.231    539.624     29.607    530.174    538.994    530.174    530.803    530.174
 27.470    528.000    541.036    -13.036    529.884    540.358    529.884    530.560    529.884
 27.570    549.000    543.299      5.701    529.595    542.566    529.595    530.325    529.595
 27.670    556.000    547.830      8.170    529.307    547.035    529.307    530.099    529.307
 27.770    624.000    559.401     64.599    529.020    558.531    529.020    529.883    529.020
 27.870    612.915    589.985     22.930    528.734    589.022    528.734    529.679    528.734
 27.970    651.846    658.022     -6.175    528.449    656.940    528.449    529.490    528.449
 28.070    753.000    771.428    -18.428    528.165    770.200    528.165    529.319    528.165
 28.170    856.772    897.974    -41.203    527.882    896.582    527.882    529.171    527.882
 28.270    974.000    960.360     13.640    527.599    958.807    527.599    529.052    527.599
 28.370    941.000    907.760     33.240    527.318    906.046    527.318    528.969    527.318
 28.470    795.000    794.317      0.683    527.038    792.394    527.038    528.935    527.038
 28.570    710.000    706.501      3.499    526.759    704.279    526.759    528.969    526.759
 28.670    710.974    688.696     22.278    526.481    686.057    526.481    529.103    526.481
 28.770    782.000    735.567     46.433    526.203    732.354    526.203    529.396    526.203
 28.870    767.000    805.940    -38.940    525.927    801.913    525.927    529.940    525.927
 28.970    889.928    839.179     50.748    525.652    833.953    525.652    530.879    525.652
 29.070    762.129    799.597    -37.468    525.378    792.577    525.378    532.409    525.378
 29.170    698.000    718.352    -20.352    525.106    708.723    525.106    534.747    525.106
 29.270    641.000    643.645     -2.645    524.834    630.422    524.834    538.064    524.834
 29.370    643.426    597.360     46.066    524.563    579.570    524.563    542.355    524.563
 29.470    618.000    576.829     41.171    524.294    553.924    524.294    547.199    524.294
 29.570    530.070    570.196    -40.126    524.025    542.797    524.025    551.423    524.025
 29.670    555.647    567.343    -11.696    523.758    537.887    523.758    553.212    523.758
 29.770    597.000    563.246     33.754    523.492    535.273    523.492    551.463    523.492
 29.870    573.807    557.375     16.431    523.227    533.586    523.227    547.014    523.227
 29.970    525.000    551.108    -26.108    522.963    532.411    522.963    541.659    522.963
 30.070    550.000    545.613      4.387    522.700    531.611    522.700    536.700    522.700
 30.170    579.000    541.399     37.601    522.438    531.165    522.438    532.671    522.438
 30.270    564.000    538.642     25.358    522.178    531.183    522.178    529.635    522.178
 30.370    527.000    537.641    -10.641    521.919    532.115    521.919    527.442    521.919
 30.470    553.000    539.348     13.652    521.661    535.125    521.661    525.877    521.661
 30.570    598.000    545.693     52.307    521.404    542.343    521.404    524.741    521.404
 30.670    559.781    558.802      0.978    521.148    556.049    521.148    523.879    521.148
 30.770    553.000    578.435    -25.435    520.894    576.102    520.894    523.189    520.894
 30.870    632.227    598.737     33.490    520.641    596.718    520.641    522.608    520.641
 30.970    633.997    607.990     26.007    520.389    606.222    520.389    522.101    520.389
 31.070    584.000    598.455    -14.455    520.138    596.901    520.138    521.646    520.138
 31.170    563.000    577.305    -14.305    519.889    575.935    519.889    521.229    519.889
 31.270    564.300    556.253      8.048    519.640    555.034    519.640    520.843    519.640
 31.370    558.000    541.388     16.612    519.393    540.293    519.393    520.480    519.393
 31.470    512.000    533.061    -21.061    519.148    532.067    519.148    520.137    519.148
 31.570    556.609    529.036     27.573    518.903    528.128    518.903    519.809    518.903
 31.670    560.000    527.136     32.864    518.660    526.300    518.660    519.495    518.660
 31.770    495.734    526.128    -30.394    518.418    525.353    518.418    519.191    518.418
 31.870    528.000    525.495      2.505    518.178    524.775    518.178    518.897    518.178
 31.970    547.132    525.062     22.070    517.938    524.388    517.938    518.611    517.938
 32.070    535.000    524.770     10.230    517.700    524.137    517.700    518.332    517.700
 32.170    549.000    524.597     24.403    517.464    524.000    517.464    518.059    517.464
 32.270    483.050    524.534    -41.484    517.228    523.970    517.228    517.791    517.228
 32.370    481.909    524.583    -42.674    516.994    524.048    516.994    517.529    516.994
 32.470    555.000    524.753     30.247    516.762    524.243    516.762    517.271    516.762
 32.570    503.409    525.059    -21.651    516.530    524.572    516.530    517.017    516.530
 32.670    548.000    525.530     22.470    516.300    525.063    516.300    516.766    516.300
 32.770    534.000    526.203      7.797    516.071    525.754    516.071    516.519    516.071
 32.870    485.801    527.136    -41.335    515.844    526.704    515.844    516.275    515.844
 32.970    536.342    528.413      7.929    515.618    527.996    515.618    516.034    515.618
 33.070    533.525    530.167      3.358    515.393    529.763    515.393    515.795    515.393
 33.170    514.000    532.638    -18.638    515.170    532.246    515.170    515.560    515.170
 33.270    546.121    536.384      9.737    514.948    536.003    514.948    515.327    514.948
 33.370    498.115    542.911    -44.796    514.728    542.539    514.728    515.096    514.728
 33.470    559.000    556.109      2.891    514.509    555.744    514.509    514.867    514.509
 33.570    623.668    584.251     39.417    514.291    583.889    514.291    514.641    514.291
 33.670    604.485    640.162    -35.677    514.075    639.797    514.075    514.417    514.075
 33.770    748.000    735.150     12.850    513.860    734.777    513.860    514.194    513.860
 33.870    795.000    865.067    -70.067    513.646    864.682    513.646    513.974    513.646
 33.970   1034.125    994.758     39.367    513.434    994.368    513.434    513.756    513.434
 34.070   1087.000   1058.179     28.821    513.223   1057.803    513.223    513.540    513.223
 34.170   1008.000   1010.602     -2.602    513.014   1010.258    513.014    513.326    513.014
 34.270    912.000    887.063     24.937    512.806    886.749    512.806    513.113    512.806
 34.370    783.779    753.995     29.784    512.599    753.697    512.599    512.902    512.599
 34.470    642.000    652.054    -10.054    512.394    651.762    512.394    512.693    512.394
 34.570    595.000    589.667      5.333    512.191    589.377    512.191    512.486    512.191
 34.670    596.000    557.170     38.830    511.988    556.880    511.988    512.281    511.988
 34.770    550.000    541.525      8.475    511.788    541.236    511.788    512.077    511.788
 34.870    542.000    533.662      8.338    511.588    533.375    511.588    511.875    511.588
 34.970    573.000    529.074     43.926    511.390    528.789    511.390    511.675    511.390
 35.070    525.140    525.946     -0.806    511.194    525.663    511.194    511.476    511.194
 35.170    499.000    523.602    -24.602    510.999    523.321    510.999    511.279    510.999
 35.270    491.000    521.761    -30.761    510.805    521.482    510.805    511.084    510.805
 35.370    479.308    520.275    -40.967    510.613    519.997    510.613    510.890    510.613
 35.470    537.124    519.051     18.074    510.423    518.775    510.423    510.698    510.423
 35.570    478.873    518.025    -39.152    510.233    517.750    510.233    510.508    510.233
 35.670    489.000    517.152    -28.152    510.046    516.879    510.046    510.319    510.046
 35.770    523.997    516.400      7.597    509.859    516.127    509.859    510.132    509.859
 35.870    490.000    515.744    -25.744    509.675    515.472    509.675    509.946    509.675
 35.970    543.650    515.167     28.483    509.491    514.895    509.491    509.763    509.491
 36.070    480.000    514.654    -34.654    509.310    514.384    509.310    509.580    509.310
 36.170    481.000    514.197    -33.197    509.129    513.926    509.129    509.400    509.129
 36.270    495.000    513.787    -18.787    508.950    513.517    508.950    509.221    508.950
 36.370    533.000    513.419     19.581    508.773    513.149    508.773    509.043    508.773
 36.470    507.000    513.090     -6.090    508.597    512.820    508.597    508.867    508.597
 36.570    512.520    512.799     -0.279    508.423    512.528    508.423    508.693    508.423
 36.670    501.000    512.546    -11.546    508.250    512.275    508.250    508.520    508.250
 36.770    534.000    512.337     21.663    508.078    512.066    508.078    508.349    508.078
 36.870    498.000    512.190    -14.190    507.908    511.919    507.908    508.180    507.908
 36.970    519.420    512.156      7.263    507.740    511.884    507.740    508.012    507.740
 37.070    505.000    512.356     -7.356    507.573    512.084    507.573    507.846    507.573
 37.170    477.130    513.026    -35.895    507.407    512.752    507.407    507.681    507.407
 37.270    530.000    514.505     15.495    507.244    514.231    507.244    507.518    507.244
 37.370    542.000    517.083     24.917    507.081    516.808    507.081    507.356    507.081
 37.470    505.458    520.677    -15.218    506.920    520.402    506.920    507.196    506.920
 37.570    550.658    524.473     26.185    506.761    524.198    506.761    507.038    506.761
 37.670    545.000    526.876     18.124    506.603    526.602    506.603    506.881    506.603
 37.770    496.000    526.546    -30.546    506.446    526.273    506.446    506.726    506.446
 37.870    498.000    523.828    -25.828    506.291    523.555    506.291    506.573    506.291
 37.970    514.000    520.184     -6.184    506.138    519.911    506.138    506.421    506.138
 38.070    523.000    516.749      6.251    505.986    516.475    505.986    506.270    505.986
 38.170    507.000    513.967     -6.967    505.835    513.690    505.835    506.121    505.835
 38.270    515.000    511.925      3.075    505.687    511.645    505.687    505.974    505.687
 38.370    471.000    510.532    -39.532    505.539    510.247    505.539    505.829    505.539
 38.470    471.240    509.618    -38.378    505.393    509.329    505.393    505.685    505.393
 38.570    538.000    509.021     28.979    505.249    508.729    505.249    505.542    505.249
 38.670    476.000    508.619    -32.619    505.106    508.324    505.106    505.401    505.106
 38.770    496.573    508.326    -11.753    504.965    508.029    504.965    505.262    504.965
 38.870    535.720    508.093     27.627    504.825    507.794    504.825    505.125    504.825
 38.970    483.000    507.893    -24.893    504.686    507.592    504.686    504.989    504.686
 39.070    476.000    507.715    -31.715    504.550    507.411    504.550    504.854    504.550
 39.170    507.000    507.552     -0.552    504.414    507.246    504.414    504.721    504.414
 39.270    535.000    507.402     27.598    504.280    507.093    504.280    504.590    504.280
 39.370    505.000    507.263     -2.263    504.148    506.951    504.148    504.460    504.148
 39.470    494.051    507.133    -13.082    504.017    506.818    504.017    504.332    504.017
 39.570    517.000    507.011      9.989    503.888    506.694    503.888    504.206    503.888
 39.670    527.000    506.898     20.102    503.760    506.578    503.760    504.081    503.760
 39.770    525.437    506.793     18.643    503.634    506.470    503.634    503.958    503.634
 39.870    501.000    506.696     -5.696    503.509    506.370    503.509    503.836    503.509
 39.970    518.000    506.607     11.393    503.386    506.277    503.386    503.716    503.386
 40.070    478.000    506.526    -28.526    503.264    506.193    503.264    503.598    503.264
 40.170    509.000    506.454      2.546    503.144    506.117    503.144    503.481    503.144
 40.270    483.000    506.392    -23.392    503.025    506.051    503.025    503.366    503.025
 40.370    555.000    506.339     48.661    502.908    505.995    502.908    503.253    502.908
 40.470    527.000    506.297     20.703    502.792    505.949    502.792    503.141    502.792
 40.570    497.000    506.268     -9.268    502.678    505.916    502.678    503.031    502.678
 40.670    517.871    506.253     11.617    502.565    505.897    502.565    502.922    502.565
 40.770    480.293    506.255    -25.962    502.454    505.895    502.454    502.815    502.454
 40.870    506.000    506.276     -0.276    502.345    505.911    502.345    502.710    502.345
 40.970    483.607    506.320    -22.713    502.236    505.951    502.236    502.606    502.236
 41.070    452.000    506.391    -54.391    502.130    506.017    502.130    502.504    502.130
 41.170    496.665    506.496     -9.831    502.024    506.118    502.024    502.403    502.024
 41.270    477.342    506.644    -29.302    501.921    506.261    501.921    502.305    501.921
 41.370    484.000    506.845    -22.845    501.818    506.457    501.818    502.207    501.818
 41.470    471.347    507.116    -35.769    501.718    506.723    501.718    502.112    501.718
 41.570    524.000    507.483     16.517    501.618    507.085    501.618    502.018    501.618
 41.670    528.000    507.993     20.007    501.521    507.589    501.521    501.926    501.521
 41.770    489.699    508.749    -19.050    501.424    508.340    501.424    501.836    501.424
 41.870    473.000    509.998    -36.998    501.329    509.583    501.329    501.747    501.329
 41.970    475.000    512.303    -37.303    501.236    511.883    501.236    501.660    501.236
 42.070    502.000    516.769    -14.769    501.144    516.344    501.144    501.574    501.144
 42.170    503.403    525.132    -21.729    501.054    524.705    501.054    501.491    501.054
 42.270    535.000    539.352     -4.352    500.965    538.924    500.965    501.409    500.965
 42.370    549.000    560.408    -11.408    500.878    559.982    500.878    501.329    500.878
 42.470    543.566    586.538    -42.972    500.792    586.119    500.792    501.250    500.792
 42.570    649.000    611.700     37.300    500.707    611.286    500.707    501.173    500.707
 42.670    634.722    626.087      8.635    500.624    625.675    500.624    501.098    500.624
 42.770    636.183    622.219     13.964    500.542    621.800    500.542    501.025    500.542
 42.870    613.000    602.373     10.627    500.462    601.937    500.462    500.954    500.462
 42.970    556.000    575.883    -19.883    500.384    575.425    500.384    500.884    500.384
 43.070    589.000    551.282     37.718    500.306    550.802    500.306    500.816    500.306
 43.170    515.042    532.821    -17.779    500.231    532.320    500.231    500.750    500.231
 43.270    494.152    520.992    -26.841    500.156    520.473    500.156    500.686    500.156
 43.370    536.573    514.270     22.302    500.083    513.737    500.083    500.624    500.083
 43.470    530.091    510.710     19.381    500.012    510.162    500.012    500.563    500.012
 43.570    551.940    508.817     43.123    499.942    508.257    499.942    500.505    499.942
 43.670    481.000    507.723    -26.723    499.873    507.150    499.873    500.448    499.873
 43.770    518.839    507.009     11.830    499.806    506.423    499.806    500.394    499.806
 43.870    518.460    506.495     11.965    499.741    505.895    499.741    500.341    499.741
 43.970    485.000    506.104    -21.104    499.676    505.491    499.676    500.291    499.676
 44.070    525.000    505.800     19.200    499.613    505.172    499.613    500.242    499.613
 44.170    533.000    505.562     27.438    499.552    504.919    499.552    500.196    499.552
 44.270    548.000    505.376     42.624    499.492    504.717    499.492    500.152    499.492
 44.370    501.619    505.231     -3.612    499.433    504.555    499.433    500.110    499.433
 44.470    486.000    505.121    -19.121    499.376    504.428    499.376    500.070    499.376
 44.570    472.000    505.041    -33.041    499.320    504.329    499.320    500.033    499.320
 44.670    517.669    504.985     12.684    499.266    504.254    499.266    499.998    499.266
 44.770    536.447    504.953     31.495    499.213    504.200    499.213    499.965    499.213
 44.870    478.434    504.940    -26.506    499.161    504.166    499.161    499.935    499.161
 44.970    518.000    504.947     13.053    499.111    504.150    499.111    499.908    499.111
 45.070    507.000    504.971      2.029    499.062    504.150    499.062    499.883    499.062
 45.170    491.000    505.013    -14.013    499.015    504.165    499.015    499.862    499.015
 45.270    496.000    505.071     -9.071    498.968    504.196    498.968    499.843    498.968
 45.370    486.000    505.147    -19.147    498.924    504.243    498.924    499.828    498.924
 45.470    537.000    505.240     31.760    498.880    504.305    498.880    499.815    498.880
 45.570    495.242    505.352    -10.110    498.838    504.383    498.838    499.807    498.838
 45.670    472.000    505.483    -33.483    498.798    504.478    498.798    499.802    498.798
 45.770    448.000    505.634    -57.634    498.758    504.592    498.758    499.800    498.758
 45.870    508.000    505.808      2.192    498.720    504.724    498.720    499.803    498.720
 45.970    485.730    506.006    -20.276    498.684    504.879    498.684    499.811    498.684
 46.070    516.000    506.232      9.768    498.649    505.057    498.649    499.823    498.649
 46.170    490.000    506.490    -16.490    498.615    505.263    498.615    499.840    498.615
 46.270    488.000    506.783    -18.783    498.582    505.501    498.582    499.864    498.582
 46.370    530.000    507.118     22.882    498.551    505.775    498.551    499.893    498.551
 46.470    537.860    507.503     30.357    498.521    506.094    498.521    499.929    498.521
 46.570    502.000    507.949     -5.949    498.492    506.468    498.492    499.972    498.492
 46.670    520.000    508.471     11.529    498.465    506.910    498.465    500.024    498.465
 46.770    472.241    509.097    -36.855    498.439    507.450    498.439    500.084    498.439
 46.870    503.000    509.884     -6.884    498.414    508.140    498.414    500.155    498.414
 46.970    478.000    510.957    -32.957    498.391    509.107    498.391    500.238    498.391
 47.070    500.000    512.586    -12.586    498.369    510.617    498.369    500.334    498.369
 47.170    520.000    515.286      4.714    498.348    513.184    498.348    500.444    498.348
 47.270    545.465    519.885     25.580    498.328    517.632    498.328    500.572    498.328
 47.370    551.000    527.414     23.586    498.310    524.990    498.310    500.720    498.310
 47.470    553.000    538.695     14.305    498.293    536.074    498.293    500.891    498.293
 47.570    532.105    553.625    -21.520    498.277    550.779    498.277    501.090    498.277
 47.670    588.000    570.415     17.585    498.263    567.311    498.263    501.321    498.263
 47.770    615.189    585.140     30.049    498.249    581.743    498.249    501.592    498.249
 47.870    635.000    592.582     42.418    498.237    588.852    498.237    501.909    498.237
 47.970    556.792    589.627    -32.835    498.227    585.514    498.227    502.286    498.227
 48.070    547.000    578.392    -31.392    498.217    573.829    498.217    502.737    498.217
 48.170    550.139    563.998    -13.858    498.209    558.889    498.209    503.287    498.209
 48.270    584.087    550.864     33.224    498.202    545.072    498.202    503.973    498.202
 48.370    512.000    541.383    -29.383    498.196    534.707    498.196    504.858    498.196
 48.470    527.855    536.162     -8.307    498.191    528.298    498.191    506.047    498.191
 48.570    557.620    534.764     22.856    498.188    525.240    498.188    507.706    498.188
 48.670    499.072    536.487    -37.416    498.186    524.581    498.186    510.088    498.186
 48.770    539.000    540.872     -1.872    498.185    525.515    498.185    513.538    498.185
 48.870    545.000    547.873     -2.873    498.185    527.572    498.185    518.481    498.185
 48.970    515.000    557.778    -42.778    498.186    530.606    498.186    525.353    498.186
 49.070    538.000    571.075    -33.075    498.189    534.783    498.189    534.476    498.189
 49.170    569.000    588.444    -19.444    498.192    540.757    498.192    545.874    498.192
 49.270    577.449    611.160    -33.711    498.197    550.323    498.197    559.026    498.197
 49.370    660.000    642.340     17.660    498.203    567.995    498.203    572.534    498.203
 49.470    669.847    689.448    -19.600    498.211    603.760    498.211    583.873    498.211
 49.570    804.000    767.897     36.103    498.219    676.217    498.219    589.853    498.219
 49.670    900.000    903.133     -3.133    498.228    812.927    498.228    588.355    498.228
 49.770   1113.393   1124.745    -11.352    498.239   1042.880    498.239    579.982    498.239
 49.870   1514.000   1447.549     66.451    498.251   1378.119    498.251    567.516    498.251
 49.970   1792.391   1845.726    -53.335    498.264   1789.825    498.264    553.983    498.264
 50.070   2280.000   2236.702     43.298    498.278   2193.375    498.278    541.456    498.278
 50.170   2487.912   2494.478     -6.566    498.293   2461.758    498.293    530.956    498.293
 50.270   2492.944   2510.134    -17.189    498.309   2485.742    498.309    522.765    498.309
 50.370   2195.000   2272.931    -77.931    498.326   2254.694    498.326    516.720    498.326
 50.470   1961.484   1880.935     80.549    498.345   1867.031    498.345    512.440    498.345
 50.570   1363.000   1464.843   -101.843    498.364   1453.900    498.364    509.483    498.364
 50.670   1010.000   1118.806   -108.806    498.385   1109.874    498.385    507.452    498.385
 50.770    860.000    880.149    -20.149    498.406    872.613    498.406    506.036    498.406
 50.870    663.000    740.717    -77.717    498.429    734.190    498.429    505.019    498.429
 50.970    657.786    670.265    -12.479    498.453    664.505    498.453    504.260    498.453
 51.070    587.345    636.798    -49.453    498.478    631.641    498.478    503.674    498.478
 51.170    625.000    617.388      7.612    498.503    612.717    498.503    503.208    498.503
 51.270    616.000    600.760     15.240    498.530    596.489    498.530    502.831    498.530
 51.370    643.000    584.324     58.676    498.558    580.384    498.558    502.522    498.558
 51.470    586.806    569.175     17.631    498.587    565.512    498.587    502.267    498.587
 51.570    545.201    556.734    -11.534    498.617    553.306    498.617    502.057    498.617
 51.670    528.693    547.623    -18.931    498.648    544.395    498.648    501.883    498.648
 51.770    572.474    541.642     30.831    498.680    538.586    498.680    501.741    498.680
 51.870    544.000    538.138      5.862    498.713    535.230    498.713    501.625    498.713
 51.970    565.000    536.396     28.604    498.747    533.614    498.747    501.531    498.747
 52.070    570.352    535.876     34.476    498.782    533.202    498.782    501.458    498.782
 52.170    582.000    536.292     45.708    498.817    533.710    498.817    501.401    498.817
 52.270    530.024    537.598     -7.574    498.854    535.095    498.854    501.359    498.854
 52.370    512.819    540.019    -27.200    498.892    537.582    498.892    501.330    498.892
 52.470    577.000    544.203     32.797    498.931    541.821    498.931    501.313    498.931
 52.570    551.000    551.574     -0.574    498.971    549.237    498.971    501.308    498.971
 52.670    524.879    564.868    -39.989    499.011    562.567    499.011    501.312    499.011
 52.770    589.000    588.637      0.363    499.053    586.363    499.053    501.325    499.053
 52.870    674.000    629.199     44.801    499.095    626.945    499.095    501.346    499.095
 52.970    688.000    693.317     -5.317    499.139    691.074    499.139    501.375    499.139
 53.070    792.521    785.192      7.329    499.183    782.955    499.183    501.412    499.183
 53.170    904.000    902.268      1.732    499.228    900.032    499.228    501.455    499.228
 53.270   1044.810   1031.200     13.609    499.274   1028.963    499.274    501.506    499.274
 53.370   1114.490   1145.947    -31.457    499.321   1143.707    499.321    501.563    499.321
 53.470   1146.000   1212.372    -66.372    499.369   1210.128    499.369    501.626    499.369
 53.570   1247.137   1205.389     41.748    499.418   1203.137    499.418    501.695    499.418
 53.670   1075.000   1128.162    -53.162    499.467   1125.891    499.467    501.771    499.467
 53.770    947.000   1009.144    -62.144    499.517   1006.843    499.517    501.853    499.517
 53.870    857.000    881.620    -24.620    499.569    879.278    499.569    501.942    499.569
 53.970    741.000    769.290    -28.290    499.621    766.899    499.621    502.036    499.621
 54.070    710.000    683.275     26.725    499.674    680.828    499.674    502.137    499.674
 54.170    624.520    624.574     -0.055    499.727    622.067    499.727    502.245    499.727
 54.270    605.000    588.248     16.752    499.782    585.677    499.782    502.360    499.782
 54.370    570.000    567.471      2.529    499.837    564.830    499.837    502.482    499.837
 54.470    562.000    556.215      5.785    499.893    553.500    499.893    502.612    499.893
 54.570    567.000    550.291     16.709    499.950    547.494    499.950    502.749    499.950
 54.670    580.000    547.240     32.760    500.008    544.354    500.008    502.895    500.008
 54.770    562.000    545.804     16.196    500.067    542.822    500.067    503.050    500.067
 54.870    577.000    545.402     31.598    500.126    542.314    500.126    503.215    500.126
 54.970    550.000    545.788      4.212    500.186    542.584    500.186    503.390    500.186
 55.070    502.712    546.872    -44.160    500.247    543.543    500.247    503.576    500.247
 55.170    552.000    548.643      3.357    500.308    545.177    500.308    503.774    500.308
 55.270    559.000    551.143      7.857    500.370    547.528    500.370    503.986    500.370
 55.370    588.820    554.466     34.354    500.433    550.688    500.433    504.212    500.433
 55.470    518.205    558.788    -40.583    500.497    554.832    500.497    504.453    500.497
 55.570    587.000    564.443     22.557    500.561    560.292    500.561    504.713    500.561
 55.670    569.000    572.131     -3.131    500.626    567.766    500.626    504.991    500.626
 55.770    596.660    583.349     13.310    500.692    578.749    500.692    505.291    500.692
 55.870    595.000    601.234     -6.234    500.759    596.374    500.759    505.615    500.759
 55.970    613.000    631.841    -18.841    500.826    626.693    500.826    505.967    500.826
 56.070    693.891    685.595      8.296    500.894    680.127    500.894    506.348    500.894
 56.170    721.000    777.945    -56.945    500.962    772.118    500.962    506.764    500.962
 56.270    965.000    927.613     37.387    501.031    921.386    501.031    507.220    501.031
 56.370   1087.000   1150.964    -63.964    501.101   1144.289    501.101    507.720    501.101
 56.470   1407.000   1452.542    -45.542    501.171   1445.375    501.171    508.272    501.171
 56.570   1725.000   1814.407    -89.407    501.242   1806.701    501.242    508.883    501.242
 56.670   2196.374   2188.432      7.942    501.314   2180.141    501.314    509.563    501.314
 56.770   2492.000   2496.562     -4.562    501.386   2487.636    501.386    510.324    501.386
 56.870   2570.000   2649.683    -79.683    501.459   2640.053    501.459    511.181    501.459
 56.970   2680.444   2594.345     86.099    501.532   2583.901    501.532    512.151    501.532
 57.070   2320.664   2352.362    -31.699    501.606   2340.941    501.606    513.257    501.606
 57.170   2047.000   2002.552     44.448    501.681   1989.943    501.681    514.531    501.681
 57.270   1698.000   1631.359     66.641    501.756   1617.317    501.756    516.017    501.756
 57.370   1268.611   1301.689    -33.078    501.832   1285.915    501.832    517.780    501.832
 57.470   1040.000   1045.302     -5.302    501.908   1027.411    501.908    519.925    501.908
 57.570    906.816    867.405     39.411    501.985    846.854    501.985    522.619    501.985
 57.670    769.000    756.579     12.421    502.062    732.565    502.062    526.127    502.062
 57.770    758.000    695.418     62.582    502.140    666.722    502.140    530.862    502.140
 57.870    685.000    668.333     16.667    502.218    633.131    502.218    537.432    502.218
 57.970    674.956    665.257      9.699    502.297    620.888    502.297    546.667    502.297
 58.070    682.070    682.011      0.058    502.376    624.778    502.376    559.601    502.376
 58.170    737.000    718.785     18.215    502.456    643.845    502.456    577.377    502.456
 58.270    757.000    777.824    -20.824    502.536    679.280    502.536    601.050    502.536
 58.370    786.000    860.959    -74.959    502.617    732.240    502.617    631.295    502.617
 58.470    953.000    967.327    -14.327    502.698    801.943    502.698    668.032    502.698
 58.570   1066.000   1091.551    -25.551    502.780    884.299    502.780    709.978    502.780
 58.670   1213.671   1222.885     -9.214    502.862    971.604    502.862    754.093    502.862
 58.770   1285.878   1346.444    -60.566    502.945   1054.344    502.945    795.006    502.945
 58.870   1417.497   1446.227    -28.730    503.028   1124.128    503.028    825.104    503.028
 58.970   1481.000   1507.935    -26.935    503.111   1174.338    503.111    836.705    503.111
 59.070   1512.729   1521.565     -8.835    503.195   1198.460    503.195    826.317    503.195
 59.170   1526.000   1486.045     39.955    503.279   1192.205    503.279    797.152    503.279
 59.270   1471.000   1412.542     58.458    503.364   1159.159    503.364    756.782    503.364
 59.370   1272.025   1320.879    -48.855    503.449   1111.473    503.449    712.877    503.449
 59.470   1207.374   1231.703    -24.329    503.534   1064.308    503.534    670.926    503.534
 59.570   1169.000   1162.416      6.584    503.620   1031.923    503.620    634.074    503.620
 59.670   1122.000   1127.778     -5.778    503.706   1027.722    503.706    603.678    503.706
 59.770   1157.000   1139.078     17.922    503.792   1062.865    503.792    579.869    503.792
 59.870   1158.000   1199.400    -41.400    503.879   1141.083    503.879    562.002    503.879
 59.970   1312.000   1298.980     13.020    503.966   1253.663    503.966    549.036    503.966
 60.070   1446.216   1413.915     32.301    504.054   1377.855    504.054    539.826    504.054
 60.170   1485.332   1508.915    -23.583    504.142   1479.425    504.142    533.332    504.142
 60.270   1610.000   1546.668     63.332    504.230   1521.906    504.230    528.713    504.230
 60.370   1485.875   1505.432    -19.557    504.318   1484.170    504.318    525.355    504.318
 60.470   1453.000   1392.196     60.804    504.407   1373.605    504.407    522.838    504.407
 60.570   1266.123   1235.782     30.341    504.496   1219.284    504.496    520.894    504.496
 60.670   1085.665   1069.478     16.188    504.585   1054.650    504.585    519.359    504.585
 60.770    939.000    919.233     19.767    504.674    905.747    504.674    518.135    504.674
 60.870    810.000    799.701     10.299    504.764    787.290    504.764    517.165    504.764
 60.970    717.612    715.062      2.551    504.854    703.493    504.854    516.417    504.854
 61.070    709.967    662.494     47.473    504.944    651.557    504.944    515.873    504.944
 61.170    642.000    636.569      5.431    505.034    626.071    505.034    515.520    505.034
 61.270    596.676    632.932    -36.256    505.125    622.693    505.125    515.343    505.125
 61.370    672.601    650.339     22.261    505.216    640.197    505.216    515.325    505.216
 61.470    702.000    690.822     11.178    505.307    680.644    505.307    515.434    505.307
 61.570    782.000    758.149     23.851    505.398    747.850    505.398    515.622    505.398
 61.670    889.491    854.969     34.522    505.489    844.538    505.489    515.816    505.489
 61.770    976.000    979.321     -3.321    505.581    968.845    505.581    515.920    505.581
 61.870   1168.921   1121.583     47.339    505.673   1111.248    505.673    515.841    505.673
 61.970   1265.000   1262.934      2.066    505.764   1252.989    505.764    515.525    505.764
 62.070   1332.000   1376.553    -44.553    505.856   1367.230    505.856    514.995    505.856
 62.170   1405.000   1433.955    -28.955    505.949   1425.417    505.949    514.325    505.949
 62.270   1372.692   1417.866    -45.174    506.041   1410.182    506.041    513.605    506.041
 62.370   1349.000   1333.010     15.990    506.133   1326.163    506.133    512.906    506.133
 62.470   1179.300   1202.728    -23.428    506.226   1196.646    506.226    512.272    506.226
 62.570   1004.818   1055.864    -51.047    506.318   1050.446    506.318    511.728    506.318
 62.670    931.402    916.378     15.024    506.411    911.515    506.411    511.279    506.411
 62.770    746.157    799.256    -53.099    506.504    794.847    506.504    510.924    506.504
 62.870    708.000    710.435     -2.435    506.596    706.392    506.596    510.650    506.596
 62.970    643.000    648.860     -5.860    506.689    645.112    506.689    510.445    506.689
 63.070    599.000    609.488    -10.488    506.782    605.979    506.782    510.294    506.782
 63.170    626.000    586.118     39.882    506.875    582.806    506.875    510.186    506.875
 63.270    610.000    573.305     36.695    506.968    570.161    506.968    510.109    506.968
 63.370    583.000    567.238     15.762    507.061    564.238    507.061    510.056    507.061
 63.470    565.971    565.855      0.116    507.154    562.981    507.154    510.021    507.154
 63.570    597.016    568.642     28.374    507.247    565.880    507.247    510.000    507.247
 63.670    549.617    576.356    -26.739    507.341    573.692    507.341    509.990    507.341
 63.770    553.675    590.745    -37.070    507.434    588.167    507.434    509.990    507.434
 63.870    640.049    614.176     25.873    507.527    611.673    507.527    509.998    507.527
 63.970    668.000    649.023     18.977    507.620    646.585    507.620    510.013    507.620
 64.070    733.631    696.775     36.856    507.713    694.391    507.713    510.034    507.713
 64.170    801.000    756.964     44.036    507.806    754.625    507.806    510.061    507.806
 64.270    856.684    826.161     30.523    507.899    823.862    507.899    510.092    507.899
 64.370    926.000    897.334     28.666    507.991    895.074    507.991    510.129    507.991
 64.470   1035.000    960.072     74.928    508.084    957.854    508.084    510.169    508.084
 64.570   1040.000   1002.779     37.221    508.177   1000.610    508.177    510.214    508.177
 64.670   1003.000   1017.199    -14.199    508.269   1015.089    508.269    510.262    508.269
 64.770    990.881   1002.121    -11.240    508.362   1000.076    508.362    510.314    508.362
 64.870    992.426    962.897     29.529    508.454    960.917    508.454    510.368    508.454
 64.970    880.651    908.532    -27.880    508.547    906.615    508.547    510.426    508.547
 65.070    839.716    848.706     -8.990    508.639    846.845    508.639    510.486    508.639
 65.170    737.559    791.167    -53.608    508.731    789.354    508.731    510.549    508.731
 65.270    790.000    740.292     49.708    508.823    738.518    508.823    510.614    508.823
 65.370    680.000    697.381    -17.381    508.914    695.639    508.914    510.681    508.914
 65.470    664.719    662.076      2.643    509.006    660.356    509.006    510.751    509.006
 65.570    660.868    633.617     27.251    509.098    631.913    509.098    510.823    509.098
 65.670    625.225    611.251     13.974    509.189    609.560    509.189    510.897    509.189
 65.770    609.000    594.201     14.799    509.280    592.521    509.280    510.972    509.280
 65.870    586.000    581.681      4.319    509.371    580.008    509.371    511.050    509.371
 65.970    577.000    572.940      4.060    509.461    571.275    509.461    511.129    509.461
 66.070    580.085    567.295     12.790    509.552    565.638    509.552    511.210    509.552
 66.170    535.369    564.141    -28.772    509.642    562.490    509.642    511.293    509.642
 66.270    523.913    562.973    -39.060    509.732    561.327    509.732    511.377    509.732
 66.370    572.000    563.420      8.580    509.822    561.778    509.822    511.463    509.822
 66.470    600.349    565.287     35.062    509.911    563.648    509.911    511.551    509.911
 66.570    543.775    568.616    -24.841    510.001    566.977    510.001    511.640    510.001
 66.670    544.000    573.796    -29.796    510.090    572.156    510.090    511.731    510.090
 66.770    559.994    581.768    -21.774    510.178    580.123    510.178    511.823    510.178
 66.870    606.000    594.352     11.648    510.267    592.701    510.267    511.917    510.267
 66.970    598.000    614.711    -16.711    510.355    613.050    510.355    512.013    510.355
 67.070    668.000    647.824     20.176    510.443    646.151    510.443    512.111    510.443
 67.170    638.000    700.763    -62.763    510.531    699.073    510.531    512.210    510.531
 67.270    729.084    782.365    -53.280    510.618    780.656    510.618    512.311    510.618
 67.370    867.000    901.945    -34.945    510.705    900.215    510.705    512.414    510.705
 67.470   1108.000   1066.818     41.182    510.791   1065.067    510.791    512.520    510.791
 67.570   1218.721   1278.888    -60.166    510.878   1277.120    510.878    512.627    510.878
 67.670   1551.000   1531.067     19.933    510.964   1529.291    510.964    512.736    510.964
 67.770   1765.000   1804.563    -39.563    511.049   1802.790    511.049    512.848    511.049
 67.870   2110.000   2068.019     41.981    511.134   2066.262    511.134    512.962    511.134
 67.970   2329.000   2279.930     49.070    511.219   2278.203    511.219    513.079    511.219
 68.070   2416.116   2397.337     18.779    511.304   2395.644    511.304    513.198    511.304
 68.170   2503.000   2392.087    110.913    511.388   2390.419    511.388    513.320    511.388
 68.270   2223.054   2265.616    -42.562    511.471   2263.946    511.471    513.445    511.471
 68.370   2087.185   2048.053     39.132    511.555   2046.345    511.555    513.574    511.555
 68.470   1834.000   1782.710     51.290    511.638   1780.932    511.638    513.707    511.638
 68.570   1514.000   1510.413      3.587    511.720   1508.541    511.720    513.844    511.720
 68.670   1269.000   1261.481      7.519    511.802   1259.503    511.802    513.985    511.802
 68.770   1016.429   1053.655    -37.226    511.884   1051.564    511.884    514.131    511.884
 68.870    873.505    893.144    -19.640    511.965    890.939    511.965    514.283    511.965
 68.970    785.000    777.452      7.548    512.045    775.134    512.045    514.440    512.045
 69.070    694.000    698.980     -4.980    512.126    696.553    512.126    514.604    512.126
 69.170    667.000    648.382     18.618    512.205    645.845    512.205    514.775    512.205
 69.270    578.724    616.933    -38.209    512.285    614.286    512.285    514.954    512.285
 69.370    574.000    597.732    -23.732    512.363    594.969    512.363    515.141    512.363
 69.470    556.905    585.948    -29.043    512.442    583.061    512.442    515.339    512.442
 69.570    573.000    578.518     -5.518    512.520    575.497    512.520    515.547    512.520
 69.670    603.000    573.655     29.345    512.597    570.489    512.597    515.767    512.597
 69.770    612.000    570.383     41.617    512.674    567.059    512.674    516.001    512.674
 69.870    556.316    568.196    -11.880    512.750    564.698    512.750    516.251    512.750
 69.970    584.000    566.842     17.158    512.826    563.151    512.826    516.518    512.826
 70.070    559.000    566.204     -7.204    512.901    562.300    512.901    516.805    512.901
 70.170    560.000    566.246     -6.246    512.975    562.106    512.975    517.114    512.975
 70.270    554.000    567.000    -13.000    513.049    562.598    513.049    517.450    513.049
 70.370    533.000    568.586    -35.586    513.123    563.891    513.123    517.816    513.123
 70.470    619.545    571.267     48.278    513.196    566.243    513.196    518.217    513.196
 70.570    577.000    575.553      1.447    513.268    570.157    513.268    518.658    513.268
 70.670    576.000    582.361     -6.361    513.340    576.545    513.340    519.148    513.340
 70.770    586.000    593.247     -7.247    513.411    586.950    513.411    519.696    513.411
 70.870    637.175    610.652     26.523    513.481    603.797    513.481    520.317    513.481
 70.970    611.000    638.104    -27.104    513.551    630.597    513.551    521.029    513.551
 71.070    672.014    680.230     -8.217    513.621    671.941    513.621    521.866    513.621
 71.170    739.000    742.391     -3.391    513.689    733.141    513.689    522.877    513.689
 71.270    834.000    829.809      4.191    513.757    819.340    513.757    524.139    513.757
 71.370    948.365    946.140      2.225    513.825    934.074    513.825    525.774    513.825
 71.470   1055.000   1091.710    -36.710    513.892   1077.488    513.892    527.964    513.892
 71.570   1292.021   1261.793     30.229    513.958   1244.598    513.958    530.973    513.958
 71.670   1426.000   1445.386    -19.386    514.023   1424.048    514.023    535.156    514.023
 71.770   1570.000   1624.887    -54.887    514.088   1597.788    514.088    540.968    514.088
 71.870   1804.000   1777.256     26.744    514.152   1742.259    514.152    548.933    514.152
 71.970   1899.000   1877.950     21.050    514.215   1832.370    514.215    559.601    514.215
 72.070   1935.499   1908.620     26.879    514.278   1849.292    514.278    573.446    514.278
 72.170   1881.000   1865.592     15.408    514.340   1789.059    514.340    590.753    514.340
 72.270   1833.957   1761.945     72.011    514.401   1664.790    514.401    611.475    514.401
 72.370   1770.000   1620.786    149.214    514.462   1500.114    514.462    635.084    514.462
 72.470   1511.000   1466.023     44.977    514.522   1320.073    514.522    660.444    514.522
 72.570   1327.278   1316.510     10.767    514.581   1145.386    514.581    685.692    514.581
 72.670   1151.000   1183.868    -32.868    514.640    990.303    514.640    708.199    514.640
 72.770   1050.000   1072.527    -22.527    514.697    862.418    514.697    724.805    514.697
 72.870    868.000    981.387   -113.387    514.754    763.582    514.754    732.558    514.754
 72.970    868.000    906.569    -38.569    514.810    691.491    514.810    729.887    514.810
 73.070    834.000    844.017    -10.017    514.866    641.500    514.866    717.381    514.866
 73.170    794.000    790.800      3.200    514.920    608.249    514.920    697.470    514.920
 73.270    703.000    745.139    -42.139    514.974    586.788    514.974    673.324    514.974
 73.370    662.816    706.010    -43.194    515.027    573.166    515.027    647.871    515.027
 73.470    671.000    672.831     -1.831    515.079    564.563    515.079    623.348    515.079
 73.570    598.000    645.255    -47.255    515.131    559.153    515.131    601.235    515.131
 73.670    591.000    623.014    -32.014    515.182    555.858    515.182    582.342    515.182
 73.770    570.000    605.789    -35.789    515.231    554.094    515.231    566.932    515.231
 73.870    618.130    593.135     24.995    515.280    553.556    515.280    554.869    515.280
 73.970    622.260    584.470     37.789    515.329    554.061    515.329    545.752    515.329
 74.070    566.169    579.104    -12.934    515.376    555.441    515.376    539.058    515.376
 74.170    624.445    576.267     48.178    515.423    557.473    515.423    534.241    515.423
 74.270    592.000    575.153     16.847    515.468    559.842    515.468    530.810    515.468
 74.370    581.787    574.940      6.847    515.513    562.130    515.513    528.359    515.513
 74.470    543.443    574.835    -31.392    515.557    563.850    515.557    526.583    515.557
 74.570    629.000    574.153     54.847    515.600    564.537    515.600    525.260    515.600
 74.670    641.000    572.452     68.548    515.643    563.896    515.643    524.242    515.643
 74.770    602.461    569.647     32.813    515.684    561.941    515.684    523.432    515.684
 74.870    646.000    565.996     80.004    515.724    558.991    515.724    522.767    515.724
 74.970    594.000    561.959     32.041    515.764    555.547    515.764    522.209    515.764
 75.070    522.896    558.058    -35.162    515.803    552.155    515.803    521.731    515.803
 75.170    565.000    554.799     10.201    515.841    549.341    515.841    521.318    515.841
 75.270    599.318    552.664     46.654    515.878    547.598    515.878    520.957    515.878
 75.370    526.000    552.125    -26.125    515.914    547.406    515.914    520.640    515.914
 75.470    591.371    553.666     37.705    515.949    549.256    515.949    520.360    515.949
 75.570    523.454    557.796    -34.342    515.983    553.663    515.983    520.112    515.983
 75.670    549.000    565.016    -16.016    516.016    561.130    516.016    519.891    516.016
 75.770    601.000    575.742     25.258    516.048    572.078    516.048    519.694    516.048
 75.870    598.522    590.172      8.350    516.080    586.709    516.080    519.518    516.080
 75.970    610.000    608.130      1.870    516.110    604.847    516.110    519.360    516.110
 76.070    638.000    628.912      9.088    516.140    625.790    516.140    519.218    516.140
 76.170    639.618    651.178    -11.560    516.168    648.205    516.168    519.090    516.168
 76.270    651.485    672.936    -21.451    516.196    670.099    516.196    518.974    516.196
 76.370    707.246    691.627     15.620    516.222    688.916    516.222    518.869    516.222
 76.470    700.000    704.447     -4.447    516.248    701.855    516.248    518.774    516.248
 76.570    709.524    709.048      0.476    516.272    706.570    516.272    518.687    516.272
 76.670    701.000    704.448     -3.448    516.296    702.078    516.296    518.608    516.296
 76.770    682.000    691.510     -9.510    516.319    689.244    516.319    518.536    516.319
 76.870    645.000    672.512    -27.512    516.340    670.343    516.340    518.469    516.340
 76.970    638.585    650.234    -11.649    516.361    648.156    516.361    518.408    516.361
 77.070    604.386    627.240    -22.855    516.381    625.246    516.381    518.352    516.381
 77.170    572.105    605.537    -33.432    516.399    603.620    516.399    518.300    516.399
 77.270    557.598    586.458    -28.860    516.417    584.612    516.417    518.252    516.417
 77.370    573.574    570.685      2.889    516.433    568.904    516.433    518.207    516.433
 77.470    549.000    558.340     -9.340    516.449    556.618    516.449    518.165    516.449
 77.570    511.521    549.143    -37.622    516.464    547.477    516.464    518.126    516.464
 77.670    553.649    542.582     11.067    516.477    540.967    516.477    518.090    516.477
 77.770    562.011    538.068     23.943    516.490    536.501    516.490    518.055    516.490
 77.870    488.000    535.043    -47.043    516.501    533.519    516.501    518.023    516.501
 77.970    552.000    533.043     18.957    516.511    531.561    516.511    517.992    516.511
 78.070    564.688    531.719     32.968    516.521    530.276    516.521    517.963    516.521
 78.170    484.741    530.830    -46.089    516.529    529.422    516.529    517.935    516.529
 78.270    512.000    530.216    -18.216    516.536    528.842    516.536    517.908    516.536
 78.370    530.203    529.766      0.437    516.542    528.424    516.542    517.883    516.542
 78.470    557.000    529.442     27.558    516.547    528.130    516.547    517.859    516.547
 78.570    526.271    529.251     -2.980    516.551    527.966    516.551    517.835    516.551
 78.670    558.000    529.165     28.835    516.554    527.905    516.554    517.813    516.554
 78.770    528.000    529.187     -1.187    516.556    527.950    516.556    517.792    516.556
 78.870    515.457    529.339    -13.883    516.556    528.123    516.556    517.772    516.556
 78.970    538.000    529.645      8.355    516.556    528.447    516.556    517.753    516.556
 79.070    568.111    530.135     37.976    516.555    528.952    516.555    517.736    516.555
 79.170    506.000    530.842    -24.842    516.552    529.670    516.552    517.722    516.552
 79.270    523.237    531.798     -8.561    516.548    530.634    516.548    517.710    516.548
 79.370    491.000    533.033    -42.033    516.543    531.871    516.543    517.702    516.543
 79.470    517.000    534.577    -17.577    516.537    533.412    516.537    517.699    516.537
 79.570    492.000    536.464    -44.464    516.530    535.289    516.530    517.701    516.530
 79.670    497.000    538.744    -41.744    516.522    537.553    516.522    517.709    516.522
 79.770    542.000    541.505      0.495    516.513    540.289    516.513    517.724    516.513
 79.870    543.000    544.887     -1.887    516.502    543.639    516.502    517.745    516.502
 79.970    593.609    549.113     44.496    516.491    547.825    516.491    517.774    516.491
 80.070    555.011    554.512      0.500    516.478    553.177    516.478    517.808    516.478
 80.170    602.796    561.518     41.278    516.464    560.133    516.464    517.846    516.464
 80.270    601.000    570.624     30.376    516.449    569.187    516.449    517.884    516.449
 80.370    601.811    582.276     19.536    516.433    580.790    516.433    517.920    516.433
 80.470    544.000    596.757    -52.757    516.416    595.231    516.416    517.947    516.416
 80.570    572.000    614.079    -42.079    516.398    612.525    516.398    517.960    516.398
 80.670    594.000    633.891    -39.891    516.378    632.330    516.378    517.953    516.378
 80.770    654.000    655.447     -1.447    516.357    653.900    516.357    517.923    516.357
 80.870    699.132    677.622     21.510    516.335    676.113    516.335    517.870    516.335
 80.970    680.013    699.043    -19.030    516.312    697.589    516.312    517.797    516.312
 81.070    692.000    718.278    -26.278    516.288    716.895    516.288    517.709    516.288
 81.170    744.000    734.037      9.963    516.262    732.731    516.262    517.613    516.262
 81.270    781.000    745.281     35.719    516.236    744.055    516.236    517.513    516.236
 81.370    721.000    751.309    -30.309    516.208    750.159    516.208    517.414    516.208
 81.470    724.000    751.833    -27.833    516.179    750.755    516.179    517.318    516.179
 81.570    759.000    746.994     12.006    516.149    745.980    516.149    517.228    516.149
 81.670    722.000    737.304    -15.304    516.118    736.346    516.118    517.143    516.118
 81.770    699.972    723.624    -23.652    516.085    722.711    516.085    517.065    516.085
 81.870    700.000    707.121     -7.121    516.051    706.245    516.051    516.993    516.051
 81.970    641.268    689.112    -47.844    516.017    688.266    516.017    516.927    516.017
 82.070    724.000    670.790     53.210    515.980    669.966    515.980    516.865    515.980
 82.170    655.000    653.008      1.992    515.943    652.201    515.943    516.808    515.943
 82.270    642.455    636.233      6.223    515.905    635.438    515.905    516.753    515.905
 82.370    576.000    620.656    -44.656    515.865    619.870    515.865    516.700    515.865
 82.470    642.000    606.364     35.636    515.824    605.585    515.824    516.648    515.824
 82.570    544.000    593.471    -49.471    515.782    592.694    515.782    516.597    515.782
 82.670    593.000    582.135     10.865    515.739    581.359    515.739    516.547    515.739
 82.770    552.000    572.532    -20.532    515.694    571.755    515.694    516.496    515.694
 82.870    571.000    564.813      6.187    515.649    564.034    515.649    516.445    515.649
 82.970    530.655    559.093    -28.438    515.602    558.312    515.602    516.394    515.602
 83.070    528.000    555.432    -27.432    515.553    554.647    515.553    516.342    515.553
 83.170    582.000    553.819     28.181    515.504    553.030    515.504    516.290    515.504
 83.270    545.000    554.154     -9.154    515.454    553.360    515.454    516.236    515.454
 83.370    544.000    556.227    -12.227    515.402    555.428    515.402    516.182    515.402
 83.470    544.000    559.709    -15.709    515.349    558.905    515.349    516.127    515.349
 83.570    543.000    564.150    -21.150    515.294    563.342    515.294    516.072    515.294
 83.670    542.673    568.996    -26.323    515.239    568.182    515.239    516.015    515.239
 83.770    558.179    573.608    -15.429    515.182    572.791    515.182    515.957    515.182
 83.870    550.074    577.321    -27.246    515.124    576.501    515.124    515.899    515.124
 83.970    544.000    579.524    -35.524    515.065    578.703    515.065    515.840    515.065
 84.070    602.899    579.788     23.111    515.005    578.968    515.005    515.779    515.005
 84.170    570.000    577.984     -7.984    514.943    577.166    514.943    515.718    514.943
 84.270    537.000    574.311    -37.311    514.881    573.497    514.881    515.656    514.881
 84.370    529.378    569.218    -39.840    514.817    568.407    514.817    515.593    514.817
 84.470    537.000    563.259    -26.259    514.751    562.453    514.751    515.529    514.751
 84.570    538.212    556.983    -18.771    514.685    556.180    514.685    515.464    514.685
 84.670    554.966    550.857      4.109    514.617    550.057    514.617    515.398    514.617
 84.770    579.000    545.236     33.764    514.548    544.438    514.548    515.332    514.548
 84.870    534.000    540.348     -6.348    514.478    539.551    514.478    515.264    514.478
 84.970    568.141    536.306     31.836    514.407    535.508    514.407    515.195    514.407
 85.070    536.756    533.119      3.638    514.334    532.320    514.334    515.125    514.334
 85.170    542.000    530.727     11.273    514.260    529.926    514.260    515.055    514.260
 85.270    561.634    529.029     32.605    514.185    528.225    514.185    514.983    514.185
 85.370    547.000    527.910     19.090    514.109    527.103    514.109    514.911    514.109
 85.470    545.000    527.265     17.735    514.031    526.454    514.031    514.837    514.031
 85.570    544.000    527.014     16.986    513.952    526.198    513.952    514.763    513.952
 85.670    544.000    527.111     16.889    513.872    526.291    513.872    514.688    513.872
 85.770    511.000    527.553    -16.553    513.791    526.726    513.791    514.612    513.791
 85.870    486.889    528.377    -41.488    513.709    527.543    513.709    514.535    513.709
 85.970    516.000    529.663    -13.663    513.625    528.822    513.625    514.457    513.625
 86.070    513.000    531.535    -18.535    513.540    530.685    513.540    514.378    513.540
 86.170    514.000    534.151    -20.151    513.454    533.291    513.454    514.298    513.454
 86.270    514.000    537.692    -23.692    513.367    536.821    513.367    514.217    513.367
 86.370    540.000    542.343     -2.343    513.278    541.458    513.278    514.136    513.278
 86.470    512.238    548.265    -36.027    513.188    547.366    513.188    514.054    513.188
 86.570    584.940    555.561     29.379    513.097    554.645    513.097    513.970    513.097
 86.670    591.300    564.233     27.066    513.005    563.298    513.005    513.887    513.005
 86.770    552.196    574.145    -21.949    512.912    573.190    512.912    513.802    512.912
 86.870    594.000    584.991      9.009    512.817    584.015    512.817    513.716    512.817
 86.970    632.933    596.279     36.654    512.721    595.282    512.721    513.630    512.721
 87.070    650.000    607.332     42.668    512.624    606.313    512.624    513.543    512.624
 87.170    584.000    617.308    -33.308    512.526    616.270    512.526    513.455    512.526
 87.270    593.388    625.313    -31.925    512.426    624.258    512.426    513.367    512.426
 87.370    585.969    630.505    -44.537    512.325    629.437    512.325    513.278    512.325
 87.470    636.000    632.289      3.711    512.223    631.211    512.223    513.188    512.223
 87.570    659.000    630.507     28.493    512.120    629.423    512.120    513.098    512.120
 87.670    625.000    625.485     -0.485    512.016    624.398    512.016    513.007    512.016
 87.770    604.000    617.926    -13.926    511.910    616.837    511.910    512.916    511.910
 87.870    652.909    608.733     44.176    511.804    607.642    511.804    512.824    511.804
 87.970    561.271    598.864    -37.593    511.696    597.772    511.696    512.732    511.696
 88.070    610.000    589.225     20.775    511.586    588.128    511.586    512.639    511.586
 88.170    639.000    580.599     58.401    511.476    579.497    511.476    512.546    511.476
 88.270    641.000    573.607     67.393    511.364    572.497    511.364    512.453    511.364
 88.370    580.000    568.675     11.325    511.252    567.556    511.252    512.359    511.252
 88.470    546.181    566.031    -19.851    511.138    564.900    511.138    512.266    511.138
 88.570    609.000    565.709     43.291    511.023    564.565    511.023    512.172    511.023
 88.670    603.353    567.556     35.797    510.906    566.397    510.906    512.078    510.906
 88.770    529.373    571.257    -41.884    510.789    570.082    510.789    511.985    510.789
 88.870    537.562    576.351    -38.789    510.670    575.158    510.670    511.891    510.670
 88.970    580.189    582.260     -2.071    510.551    581.048    510.551    511.798    510.551
 89.070    613.000    588.313     24.687    510.430    587.080    510.430    511.706    510.430
 89.170    577.510    593.791    -16.281    510.308    592.534    510.308    511.614    510.308
 89.270    620.000    597.982     22.018    510.184    596.699    510.184    511.522    510.184
 89.370    616.000    600.278     15.722    510.060    598.966    510.060    511.432    510.060
 89.470    604.000    600.290      3.710    509.934    598.944    509.934    511.342    509.934
 89.570    606.000    597.933      8.067    509.808    596.549    509.808    511.254    509.808
 89.670    624.659    593.441     31.218    509.680    592.014    509.680    511.167    509.680
 89.770    533.000    587.281    -54.281    509.551    585.805    509.551    511.082    509.551
 89.870    564.000    580.028    -16.028    509.420    578.500    509.420    510.999    509.420
 89.970    568.000    572.265     -4.265    509.289    570.680    509.289    510.919    509.289
 90.070    565.000    564.507      0.493    509.157    562.860    509.157    510.841    509.157
 90.170    544.000    557.170    -13.170    509.023    555.458    509.023    510.767    509.023
 90.270    500.000    550.557    -50.557    508.889    548.775    508.889    510.696    508.889
 90.370    563.975    544.852     19.123    508.753    542.995    508.753    510.630    508.753
 90.470    508.257    540.134    -31.877    508.616    538.196    508.616    510.569    508.616
 90.570    495.000    536.398    -41.398    508.478    534.372    508.478    510.515    508.478
 90.670    522.000    533.573    -11.573    508.339    531.450    508.339    510.469    508.339
 90.770    523.000    531.554     -8.554    508.199    529.326    508.199    510.432    508.199
 90.870    518.000    530.227    -12.227    508.057    527.878    508.057    510.409    508.057
 90.970    496.000    529.485    -33.485    507.915    526.997    507.915    510.404    507.915
 91.070    506.000    529.243    -23.243    507.771    526.594    507.771    510.421    507.771
 91.170    571.028    529.451     41.577    507.627    526.609    507.627    510.468    507.627
 91.270    487.000    530.100    -43.100    507.481    527.026    507.481    510.554    507.481
 91.370    509.295    531.224    -21.930    507.335    527.865    507.335    510.691    507.335
 91.470    558.000    532.904     25.096    507.187    529.193    507.187    510.893    507.187
 91.570    559.000    535.259     23.741    507.038    531.111    507.038    511.181    507.038
 91.670    516.000    538.424    -22.424    506.888    533.731    506.888    511.574    506.888
 91.770    543.000    542.680      0.320    506.737    537.309    506.737    512.098    506.737
 91.870    561.000    548.247     12.753    506.585    542.039    506.585    512.780    506.585
 91.970    538.000    555.357    -17.357    506.433    548.124    506.433    513.649    506.433
 92.070    545.127    564.242    -19.115    506.279    555.768    506.279    514.731    506.279
 92.170    546.549    575.101    -28.552    506.124    565.147    506.124    516.050    506.124
 92.270    575.000    588.068    -13.068    505.968    576.376    505.968    517.627    505.968
 92.370    591.070    603.179    -12.109    505.811    589.482    505.811    519.469    505.811
 92.470    590.000    620.352    -30.352    505.653    604.384    505.653    521.573    505.653
 92.570    675.725    639.358     36.367    505.494    620.876    505.494    523.921    505.494
 92.670    693.000    659.812     33.188    505.334    638.608    505.334    526.477    505.334
 92.770    717.000    681.169     35.831    505.173    657.094    505.173    529.180    505.173
 92.870    681.000    702.734    -21.734    505.011    675.723    505.011    531.949    505.011
 92.970    719.000    723.722     -4.722    504.848    693.821    504.848    534.671    504.848
 93.070    715.932    743.349    -27.416    504.684    710.742    504.684    537.211    504.684
 93.170    775.000    760.961     14.039    504.519    725.995    504.519    539.404    504.519
 93.270    828.000    776.158     51.842    504.353    739.351    504.353    541.080    504.353
 93.370    810.000    788.831     21.169    504.187    750.859    504.187    542.079    504.187
 93.470    751.840    799.103    -47.262    504.019    760.756    504.019    542.288    504.019
 93.570    855.000    807.268     47.732    503.850    769.372    503.850    541.671    503.850
 93.670    841.000    813.730     27.270    503.681    777.062    503.681    540.276    503.681
 93.770    802.000    818.983    -16.983    503.511    784.198    503.511    538.225    503.511
 93.870    871.463    823.626     47.837    503.339    791.217    503.339    535.680    503.339
 93.970    849.564    828.348     21.217    503.167    798.635    503.167    532.814    503.167
 94.070    784.034    833.830    -49.795    502.994    806.974    502.994    529.786    502.994
 94.170    880.000    840.579     39.421    502.820    816.607    502.820    526.731    502.820
 94.270    918.000    848.756     69.244    502.645    827.587    502.645    523.755    502.645
 94.370    830.000    858.059    -28.059    502.470    839.534    502.470    520.938    502.470
 94.470    941.000    867.703     73.297    502.293    851.606    502.293    518.336    502.293
 94.570    930.000    876.476     53.524    502.116    862.561    502.116    515.982    502.116
 94.670    940.330    882.883     57.447    501.938    870.884    501.938    513.893    501.938
 94.770    890.670    885.361      5.309    501.759    875.013    501.759    512.071    501.759
 94.870    929.000    882.577     46.423    501.579    873.624    501.579    510.504    501.579
 94.970    919.000    873.742     45.258    501.398    865.947    501.398    509.173    501.398
 95.070    921.000    858.827     62.173    501.217    851.978    501.217    508.054    501.217
 95.170    830.911    838.581     -7.670    501.035    832.493    501.035    507.119    501.035
 95.270    905.000    814.370     90.630    500.852    808.884    500.852    506.340    500.852
 95.370    785.000    787.926     -2.926    500.668    782.910    500.668    505.690    500.668
 95.470    769.942    761.126      8.816    500.484    756.472    500.484    505.145    500.484
 95.570    789.000    735.834     53.166    500.299    731.456    500.299    504.684    500.299
 95.670    717.000    713.799      3.201    500.113    709.628    500.113    504.290    500.113
 95.770    695.699    696.586     -0.887    499.926    692.568    499.926    503.947    499.926
 95.870    718.000    685.607     32.393    499.739    681.701    499.739    503.642    499.739
 95.970    646.532    682.036    -35.504    499.551    678.206    499.551    503.371    499.551
 96.070    666.000    686.841    -20.841    499.362    683.060    499.362    503.126    499.362
 96.170    731.505    700.798     30.708    499.172    697.042    499.172    502.901    499.172
 96.270    679.955    724.462    -44.507    498.982    720.714    498.982    502.693    498.982
 96.370    722.339    758.138    -35.799    498.791    754.381    498.791    502.500    498.791
 96.470    782.000    801.805    -19.805    498.600    798.025    498.600    502.320    498.600
 96.570    833.000    855.028    -22.028    498.408    851.213    498.408    502.151    498.408
 96.670    905.000    916.865    -11.865    498.215    913.004    498.215    501.994    498.215
 96.770   1008.000    985.787     22.213    498.022    981.869    498.022    501.847    498.022
 96.870   1121.822   1059.606     62.216    497.828   1055.623    497.828    501.711    497.828
 96.970   1113.309   1135.473    -22.164    497.633   1131.416    497.633    501.585    497.633
 97.070   1246.170   1209.908     36.262    497.438   1205.770    497.438    501.470    497.438
 97.170   1316.000   1278.921     37.079    497.242   1274.694    497.242    501.367    497.242
 97.270   1321.671   1338.235    -16.564    497.046   1333.912    497.046    501.275    497.046
 97.370   1448.528   1383.704     64.823    496.849   1379.277    496.849    501.195    496.849
 97.470   1371.081   1411.884    -40.803    496.652   1407.342    496.652    501.129    496.652
 97.570   1431.290   1420.660     10.630    496.454   1415.993    496.454    501.078    496.454
 97.670   1444.000   1409.678     34.322    496.256   1404.869    496.256    501.042    496.256
 97.770   1389.000   1380.358      8.642    496.057   1375.387    496.057    501.025    496.057
 97.870   1283.000   1335.522    -52.522    495.858   1330.366    495.858    501.029    495.858
 97.970   1310.140   1278.832     31.309    495.658   1273.462    495.658    501.057    495.658
 98.070   1212.000   1214.285     -2.285    495.457   1208.669    495.457    501.114    495.457
 98.170   1147.000   1145.846      1.154    495.257   1139.943    495.257    501.207    495.257
 98.270   1020.083   1077.216    -57.134    495.055   1070.979    495.055    501.343    495.055
 98.370    974.000   1011.699    -37.699    494.854   1005.068    494.854    501.534    494.854
 98.470    983.000    952.128     30.872    494.652    945.031    494.652    501.794    494.652
 98.570    884.000    900.848    -16.848    494.449    893.192    494.449    502.144    494.449
 98.670    807.919    859.732    -51.813    494.247    851.401    494.247    502.608    494.247
 98.770    806.000    830.220    -24.220    494.043    821.068    494.043    503.218    494.043
 98.870    826.000    813.389     12.611    493.840    803.229    493.840    504.014    493.840
 98.970    780.726    810.014    -29.288    493.636    798.611    493.636    505.042    493.636
 99.070    799.000    820.627    -21.627    493.432    807.692    493.432    506.362    493.432
 99.170    834.000    845.549    -11.549    493.227    830.725    493.227    508.037    493.227
 99.270    912.000    884.887     27.113    493.022    867.746    493.022    510.143    493.022
 99.370    922.468    938.493    -16.026    492.817    918.527    492.817    512.759    492.817
 99.470   1007.000   1005.900      1.100    492.612    982.517    492.612    515.968    492.612
 99.570   1040.000   1086.220    -46.220    492.406   1058.748    492.406    519.850    492.406
 99.670   1168.334   1178.097     -9.763    492.200   1145.792    492.200    524.479    492.200
 99.770   1263.000   1279.568    -16.568    491.994   1241.627    491.994    529.916    491.994
 99.870   1341.000   1388.014    -47.014    491.788   1343.594    491.788    536.198    491.788
 99.970   1527.000   1500.155     26.845    491.582   1448.403    491.582    543.337    491.582
100.070   1656.000   1612.116     43.884    491.375   1552.208    491.375    551.304    491.375
100.170   1745.000   1719.610     25.390    491.168   1650.792    491.168    560.029    491.168
100.270   1826.000   1818.259      7.741    490.961   1739.897    490.961    569.390    490.961
100.370   1968.451   1903.978     64.474    490.754   1815.615    490.754    579.209    490.754
100.470   1972.000   1973.306     -1.306    490.547   1874.725    490.547    589.246    490.547
100.570   2070.000   2023.564     46.436    490.339   1914.849    490.339    599.196    490.339
100.670   2141.134   2052.841     88.293    490.132   1934.448    490.132    608.688    490.132
100.770   2105.000   2059.961     45.039    489.924   1932.774    489.924    617.292    489.924
100.870   1984.927   2044.588    -59.660    489.717   1909.959    489.717    624.540    489.717
100.970   1959.927   2007.488    -47.562    489.509   1867.235    489.509    629.966    489.509
101.070   1917.450   1950.783    -33.333    489.301   1807.122    489.301    633.169    489.301
101.170   1903.000   1877.961     25.039    489.094   1733.378    489.094    633.883    489.094
101.270   1827.000   1793.570     33.430    488.886   1650.622    488.886    632.033    488.886
101.370   1663.200   1702.657    -39.458    488.679   1563.772    488.679    627.753    488.679
101.470   1637.386   1610.188     27.197    488.471   1477.481    488.471    621.354    488.471
101.570   1511.000   1520.566     -9.566    488.263   1395.727    488.263    613.264    488.263
101.670   1412.000   1437.330    -25.330    488.056   1321.577    488.056    603.954    488.056
101.770   1381.000   1362.995     18.005    487.849   1257.086    487.849    593.887    487.849
101.870   1347.516   1299.009     48.508    487.642   1203.288    487.642    583.477    487.642
101.970   1231.000   1245.784    -14.784    487.434   1160.245    487.434    573.076    487.434
102.070   1103.000   1202.791    -99.791    487.228   1127.139    487.228    562.970    487.228
102.170   1208.446   1168.687     39.759    487.021   1102.410    487.021    553.381    487.021
102.270   1121.000   1141.495    -20.495    486.814   1083.918    486.814    544.470    486.814
102.370   1175.834   1118.822     57.012    486.608   1069.164    486.608    536.342    486.608
102.470   1135.957   1098.130     37.826    486.402   1055.551    486.402    529.056    486.402
102.570   1058.000   1077.042    -19.042    486.196   1040.688    486.196    522.626    486.196
102.670   1047.000   1053.652     -6.652    485.990   1022.684    485.990    517.035    485.990
102.770   1030.000   1026.751      3.249    485.785   1000.377    485.785    512.236    485.785
102.870   1043.383    995.903     47.480    485.580    973.396    485.580    508.165    485.580
102.970    948.000    961.365    -13.365    485.375    942.073    485.375    504.745    485.375
103.070    918.033    923.894     -5.861    485.171    907.246    485.171    501.894    485.171
103.170    907.000    884.530     22.470    484.967    870.039    484.967    499.530    484.967
103.270    904.000    844.418     59.582    484.763    831.674    484.763    497.575    484.763
103.370    836.000    804.678     31.322    484.560    793.344    484.560    495.956    484.560
103.470    814.000    766.323     47.677    484.357    756.126    484.357    494.611    484.357
103.570    699.152    730.204    -31.051    484.154    720.923    484.154    493.485    484.154
103.670    679.915    696.973    -17.058    483.952    688.437    483.952    492.532    483.952
103.770    712.283    667.078     45.204    483.751    659.150    483.751    491.716    483.751
103.870    630.110    640.757    -10.648    483.550    633.332    483.550    491.007    483.550
103.970    664.000    618.062     45.938    483.349    611.055    483.349    490.381    483.349
104.070    560.000    598.882    -38.882    483.149    592.231    483.149    489.821    483.149
104.170    603.000    582.988     20.012    482.950    576.642    482.950    489.313    482.950
104.270    593.371    570.066     23.305    482.751    563.984    482.751    488.846    482.751
104.370    584.000    559.757     24.243    482.553    553.907    482.553    488.413    482.553
104.470    527.043    551.693    -24.650    482.355    546.047    482.355    488.008    482.355
104.570    555.000    545.519      9.481    482.158    540.056    482.158    487.626    482.158
104.670    556.000    540.906     15.094    481.962    535.606    481.962    487.265    481.962
104.770    543.000    537.590      5.410    481.766    532.436    481.766    486.921    481.766
104.870    554.000    535.342     18.658    481.572    530.320    481.572    486.594    481.572
104.970    486.000    533.991    -47.991    481.377    529.086    481.377    486.280    481.377
105.070    537.000    533.418      3.582    481.184    528.619    481.184    485.980    481.184
105.170    559.000    533.553     25.447    480.991    528.848    480.991    485.691    480.991
105.270    549.000    534.370     14.630    480.799    529.749    480.799    485.414    480.799
105.370    506.641    535.886    -29.244    480.608    531.339    480.608    485.146    480.608
105.470    561.160    538.148     23.013    480.418    533.667    480.418    484.889    480.418
105.570    541.000    541.230     -0.230    480.229    536.806    480.229    484.640    480.229
105.670    586.553    545.226     41.328    480.040    540.851    480.040    484.401    480.040
105.770    570.000    550.230     19.770    479.853    545.896    479.853    484.169    479.853
105.870    593.202    556.329     36.873    479.666    552.030    479.666    483.946    479.666
105.970    537.000    563.587    -26.587    479.480    559.315    479.480    483.729    479.480
106.070    544.000    572.028    -28.028    479.296    567.777    479.296    483.520    479.296
106.170    591.000    581.626      9.374    479.112    577.390    479.112    483.319    479.112
106.270    572.000    592.298    -20.298    478.929    588.071    478.929    483.124    478.929
106.370    613.000    603.893      9.107    478.748    599.670    478.748    482.935    478.748
106.470    575.000    616.196    -41.196    478.567    611.971    478.567    482.753    478.567
106.570    590.000    628.925    -38.925    478.388    624.692    478.388    482.578    478.388
106.670    625.737    641.739    -16.003    478.209    637.496    478.209    482.409    478.209
106.770    650.000    654.253     -4.253    478.032    649.994    478.032    482.246    478.032
106.870    626.000    666.050    -40.050    477.856    661.770    477.856    482.090    477.856
106.970    631.000    676.710    -45.710    477.681    672.405    477.681    481.939    477.681
107.070    683.324    685.844     -2.520    477.508    681.511    477.508    481.795    477.508
107.170    713.000    693.150     19.850    477.335    688.784    477.335    481.657    477.335
107.270    683.609    698.454    -14.845    477.164    694.052    477.164    481.526    477.164
107.370    689.000    701.756    -12.756    476.995    697.312    476.995    481.401    476.995
107.470    715.000    703.232     11.768    476.826    698.742    476.826    481.282    476.826
107.570    744.741    703.213     41.528    476.659    698.672    476.659    481.170    476.659
107.670    666.066    702.124    -36.058    476.493    697.527    476.493    481.064    476.493
107.770    738.000    700.421     37.579    476.329    695.763    476.329    480.966    476.329
107.870    636.000    698.536    -62.536    476.166    693.810    476.166    480.874    476.166
107.970    607.000    696.827    -89.827    476.004    692.028    476.004    480.790    476.004
108.070    653.411    695.552    -42.142    475.844    690.674    475.844    480.713    475.844
108.170    689.000    694.850     -5.850    475.686    689.887    475.686    480.644    475.686
108.270    704.255    694.730      9.525    475.529    689.679    475.529    480.578    475.529
108.370    703.000    695.086      7.914    475.374    689.937    475.374    480.524    475.374
108.470    666.000    695.683    -29.683    475.220    690.428    475.220    480.480    475.220
108.570    664.000    696.193    -32.193    475.068    690.824    475.068    480.445    475.068
108.670    721.054    696.219     24.835    474.917    690.728    474.917    480.419    474.917
108.770    732.000    695.342     36.658    474.768    689.721    474.768    480.402    474.768
108.870    708.726    693.178     15.548    474.621    687.419    474.621    480.396    474.621
108.970    722.000    689.436     32.564    474.476    683.529    474.476    480.401    474.476
109.070    643.000    683.962    -40.962    474.332    677.897    474.332    480.417    474.332
109.170    697.000    676.760     20.240    474.190    670.527    474.190    480.444    474.190
109.270    657.000    667.977    -10.977    474.050    661.573    474.050    480.475    474.050
109.370    633.198    657.893    -24.695    473.911    651.298    473.911    480.528    473.911
109.470    641.000    646.838     -5.838    473.775    640.038    473.775    480.596    473.775
109.570    626.706    635.173     -8.467    473.641    628.154    473.641    480.679    473.641
109.670    642.000    623.262     18.738    473.508    616.010    473.508    480.779    473.508
109.770    600.000    611.442    -11.442    473.377    603.941    473.377    480.896    473.377
109.870    625.000    600.015     24.985    473.249    592.247    473.249    481.032    473.249
109.970    588.000    589.234     -1.234    473.122    581.181    473.122    481.188    473.122
110.070    600.000    579.302     20.698    472.997    570.944    472.997    481.366    472.997
110.170    590.851    570.365     20.486    472.875    561.679    472.875    481.570    472.875
110.270    552.000    562.495    -10.495    472.754    553.455    472.754    481.801    472.754
110.370    568.000    555.766     12.234    472.636    546.343    472.636    482.064    472.636
110.470    505.914    550.198    -44.284    472.520    540.360    472.520    482.362    472.520
110.570    524.000    545.737    -21.737    472.406    535.444    472.406    482.701    472.406
110.670    541.035    542.321     -1.286    472.294    531.527    472.294    483.089    472.294
110.770    602.000    539.869     62.131    472.185    528.520    472.185    483.533    472.185
110.870    570.000    538.294     31.706    472.077    526.325    472.077    484.044    472.077
110.970    567.891    537.504     30.387    471.973    524.837    471.973    484.636    471.973
111.070    578.760    537.414     41.347    471.870    523.953    471.870    485.326    471.870
111.170    519.000    537.945    -18.945    471.770    523.576    471.770    486.134    471.770
111.270    519.676    539.035    -19.359    471.672    523.615    471.672    487.085    471.672
111.370    535.000    540.632     -5.632    471.577    523.992    471.577    488.210    471.577
111.470    537.000    542.706     -5.706    471.484    524.638    471.484    489.546    471.484
111.570    536.000    545.242     -9.242    471.394    525.494    471.394    491.134    471.394
111.670    524.000    548.243    -24.243    471.306    526.514    471.306    493.026    471.306
111.770    509.035    551.731    -42.696    471.221    527.662    471.221    495.281    471.221
111.870    559.000    555.748      3.252    471.138    528.914    471.138    497.962    471.138
111.970    575.000    560.352     14.648    471.058    530.256    471.058    501.145    471.058
112.070    561.000    565.620     -4.620    470.981    531.683    470.981    504.908    470.981
112.170    581.000    571.645      9.355    470.906    533.204    470.906    509.337    470.906
112.270    588.365    578.530      9.835    470.834    534.833    470.834    514.522    470.834
112.370    578.000    586.391     -8.391    470.765    536.594    470.765    520.552    470.765
112.470    598.000    595.347      2.653    470.699    538.519    470.699    527.516    470.699
112.570    603.000    605.523     -2.523    470.635    540.650    470.635    535.498    470.635
112.670    587.000    617.042    -30.042    470.575    543.037    470.575    544.568    470.575
112.770    625.000    630.026     -5.026    470.517    545.745    470.517    554.787    470.517
112.870    619.000    644.596    -25.596    470.462    548.856    470.462    566.190    470.462
112.970    618.571    660.872    -42.301    470.410    552.479    470.410    578.791    470.410
113.070    679.523    678.977      0.546    470.361    556.753    470.361    592.572    470.361
113.170    698.000    699.042     -1.042    470.316    561.863    470.316    607.481    470.316
113.270    722.000    721.217      0.783    470.273    568.050    470.273    623.424    470.273
113.370    768.422    745.682     22.740    470.234    575.633    470.234    640.265    470.234
113.470    810.567    772.665     37.903    470.197    585.020    470.197    657.821    470.197
113.570    791.000    802.459    -11.459    470.164    596.742    470.164    675.857    470.164
113.670    838.000    835.448      2.552    470.134    611.470    470.134    694.085    470.134
113.770    867.348    872.133     -4.785    470.107    630.043    470.107    712.164    470.107
113.870    955.000    913.152     41.848    470.084    653.499    470.084    729.697    470.084
113.970    920.087    959.320    -39.232    470.063    683.095    470.063    746.239    470.063
114.070    997.125   1011.648    -14.523    470.047    720.331    470.047    761.303    470.047
114.170   1084.000   1071.381     12.619    470.033    766.956    470.033    774.383    470.033
114.270   1105.286   1140.024    -34.738    470.023    824.974    470.023    784.982    470.023
114.370   1251.000   1219.368     31.632    470.017    896.620    470.017    792.652    470.017
114.470   1283.000   1311.494    -28.494    470.014    984.327    470.014    797.042    470.014
114.570   1452.679   1418.757     33.922    470.014   1090.664    470.014    797.940    470.014
114.670   1534.000   1543.726     -9.726    470.019   1218.243    470.019    795.300    470.019
114.770   1708.000   1689.073     18.927    470.026   1369.606    470.026    789.252    470.026
114.870   1867.098   1857.410      9.688    470.038   1547.081    470.038    780.082    470.038
114.970   2114.000   2051.088     62.912    470.053   1752.614    470.053    768.194    470.053
115.070   2335.000   2271.966     63.034    470.072   1987.587    470.072    754.067    470.072
115.170   2583.000   2521.179     61.821    470.094   2252.629    470.094    738.207    470.094
115.270   2939.000   2798.911    140.089    470.121   2547.427    470.121    721.113    470.121
115.370   3062.902   3104.210    -41.309    470.151   2870.561    470.151    703.255    470.151
115.470   3461.040   3434.830     26.210    470.185   3219.365    470.185    685.054    470.185
115.570   3838.012   3787.131     50.881    470.224   3589.831    470.224    666.881    470.224
115.670   3975.000   4156.039   -181.039    470.266   3976.573    470.266    649.050    470.266
115.770   4472.000   4535.059    -63.059    470.312   4372.838    470.312    631.823    470.312
115.870   4892.187   4916.365    -24.178    470.362   4770.592    470.362    615.408    470.362
115.970   5157.258   5290.949   -133.691    470.416   5160.669    470.416    599.965    470.416
116.070   5465.000   5648.849   -183.849    470.475   5532.994    470.475    585.609    470.475
116.170   5938.000   5979.456    -41.456    470.537   5876.889    470.537    572.413    470.537
116.270   6185.818   6271.934    -86.116    470.604   6181.482    470.604    560.411    470.604
116.370   6369.000   6515.760   -146.760    470.675   6436.247    470.675    549.606    470.675
116.470   6745.000   6701.389     43.611    470.750   6631.666    470.750    539.971    470.750
116.570   6981.485   6821.020    160.464    470.830   6759.982    470.830    531.459    470.830
116.670   6777.338   6869.341    -92.003    470.914   6815.945    470.914    524.004    470.914
116.770   6983.000   6844.099    138.901    471.002   6797.376    471.002    517.527    471.002
116.870   6792.000   6746.356     45.644    471.095   6705.419    471.095    511.943    471.095
116.970   6754.000   6580.346    173.654    471.192   6544.391    471.192    507.162    471.192
117.070   6329.000   6352.976    -23.976    471.294   6321.287    471.294    503.093    471.294
117.170   6186.513   6073.120    113.393    471.400   6045.063    471.400    499.649    471.400
117.270   5731.000   5750.847    -19.847    471.512   5725.872    471.512    496.748    471.512
117.370   5299.000   5396.746    -97.746    471.627   5374.375    471.627    494.313    471.627
117.470   4998.000   5021.383    -23.383    471.748   5001.211    471.748    492.273    471.748
117.570   4636.000   4634.772      1.228    471.873   4616.453    471.873    490.568    471.873
117.670   4340.000   4246.112     93.888    472.003   4229.358    472.003    489.144    472.003
117.770   3901.740   3863.539     38.202    472.138   3848.109    472.138    487.952    472.138
117.870   3644.000   3493.960    150.040    472.277   3479.655    472.277    486.955    472.277
117.970   3283.000   3142.964    140.036    472.422   3129.621    472.422    486.118    472.422
118.070   2981.000   2814.807    166.193    472.571   2802.290    472.571    485.413    472.571
118.170   2592.000   2512.446     79.554    472.726   2500.647    472.726    484.819    472.726
118.270   2328.000   2237.637     90.363    472.886   2226.467    472.886    484.317    472.886
118.370   2072.870   1991.063     81.807    473.050   1980.449    473.050    483.891    473.050
118.470   1716.000   1772.487    -56.487    473.220   1762.370    473.220    483.530    473.220
118.570   1571.000   1580.924     -9.924    473.395   1571.256    473.395    483.224    473.395
118.670   1363.000   1414.811    -51.811    473.575   1405.551    473.575    482.966    473.575
118.770   1249.000   1272.174    -23.174    473.761   1263.289    473.761    482.750    473.761
118.870   1176.082   1150.785     25.297    473.952   1142.247    473.952    482.571    473.952
118.970   1106.129   1048.299     57.830    474.148   1040.085    474.148    482.425    474.148
119.070    898.000    962.372    -64.372    474.350    954.459    474.350    482.310    474.350
119.170    892.861    890.748      2.113    474.557    883.116    474.557    482.222    474.557
119.270    809.000    831.326    -22.326    474.769    823.957    474.769    482.161    474.769
119.370    770.225    782.202    -11.977    474.987    775.081    474.987    482.124    474.987
119.470    694.803    741.691    -46.889    475.211    734.801    475.211    482.111    475.211
119.570    713.000    708.333      4.667    475.440    701.658    475.440    482.121    475.440
119.670    736.000    680.881     55.119    475.675    674.407    475.675    482.153    475.675
119.770    646.492    658.292    -11.800    475.916    652.004    475.916    482.206    475.916
119.870    643.262    639.703      3.559    476.163    633.585    476.163    482.281    476.163
119.970    588.000    624.408    -36.408    476.415    618.447    476.415    482.378    476.415
120.070    623.000    611.839     11.161    476.673    606.018    476.673    482.496    476.673
120.170    568.000    601.538    -33.538    476.938    595.841    476.938    482.636    476.938
120.270    598.000    593.143      4.857    477.208    587.554    477.208    482.798    477.208
120.370    547.000    586.365    -39.365    477.484    580.869    477.484    482.983    477.484
120.470    566.000    580.981    -14.981    477.766    575.559    477.766    483.191    477.766
120.570    572.696    576.813     -4.117    478.054    571.448    478.054    483.422    478.054
120.670    567.000    573.723     -6.723    478.349    568.397    478.349    483.678    478.349
120.770    559.000    571.603    -12.603    478.650    566.298    478.650    483.960    478.650
120.870    606.633    570.369     36.264    478.957    565.063    478.957    484.267    478.957
120.970    599.731    569.949     29.782    479.270    564.625    479.270    484.600    479.270
121.070    539.000    570.289    -31.289    479.590    564.925    479.590    484.961    479.590
121.170    552.000    571.336    -19.336    479.916    565.911    479.916    485.348    479.916
121.270    613.000    573.043     39.957    480.248    567.538    480.248    485.763    480.248
121.370    585.777    575.362     10.415    480.587    569.755    480.587    486.205    480.587
121.470    587.000    578.242      8.758    480.933    572.514    480.933    486.674    480.933
121.570    533.921    581.628    -47.707    481.285    575.758    481.285    487.170    481.285
121.670    594.000    585.455      8.545    481.644    579.426    481.644    487.690    481.644
121.770    623.000    589.654     33.346    482.009    583.449    482.009    488.234    482.009
121.870    572.000    594.144    -22.144    482.382    587.747    482.382    488.800    482.382
121.970    634.000    598.837     35.163    482.761    592.236    482.761    489.386    482.761
122.070    617.528    603.636     13.892    483.147    596.821    483.147    489.989    483.147
122.170    623.000    608.437     14.563    483.540    601.401    483.540    490.606    483.540
122.270    655.368    613.129     42.240    483.940    605.869    483.940    491.233    483.940
122.370    652.000    617.599     34.401    484.346    610.116    484.346    491.865    484.346
122.470    624.005    621.732      2.273    484.760    614.032    484.760    492.498    484.760
122.570    634.000    625.418      8.582    485.182    617.512    485.182    493.128    485.182
122.670    619.341    628.555     -9.214    485.610    620.460    485.610    493.747    485.610
122.770    649.347    631.058     18.289    486.045    622.796    486.045    494.351    486.045
122.870    629.000    632.860     -3.860    486.488    624.459    486.488    494.934    486.488
122.970    646.000    633.921     12.079    486.938    625.415    486.938    495.490    486.938
123.070    656.581    634.226     22.355    487.396    625.654    487.396    496.014    487.396
123.170    667.000    633.790     33.210    487.861    625.194    487.861    496.502    487.861
123.270    607.413    632.648    -25.235    488.333    624.074    488.333    496.953    488.333
123.370    658.000    630.860     27.140    488.813    622.353    488.813    497.364    488.813
123.470    613.000    628.495    -15.495    489.301    620.102    489.301    497.736    489.301
123.570    671.376    625.636     45.741    489.796    617.399    489.796    498.073    489.796
123.670    672.008    622.368     49.640    490.299    614.328    490.299    498.377    490.299
123.770    607.000    618.779    -11.779    490.810    610.971    490.810    498.653    490.810
123.870    613.458    614.953     -1.494    491.328    607.406    491.328    498.907    491.328
123.970    586.000    610.969    -24.969    491.855    603.708    491.855    499.145    491.855
124.070    622.000    606.898     15.102    492.389    599.943    492.389    499.371    492.389
124.170    592.000    602.804    -10.804    492.931    596.167    492.931    499.593    492.931
124.270    617.000    598.738     18.262    493.482    592.427    493.482    499.814    493.482
124.370    562.000    594.741    -32.741    494.040    588.759    494.040    500.040    494.040
124.470    571.293    590.842    -19.549    494.607    585.189    494.607    500.275    494.607
124.570    570.000    587.060    -17.060    495.182    581.733    495.182    500.523    495.182
124.670    547.000    583.407    -36.407    495.765    578.397    495.765    500.786    495.765
124.770    541.000    579.885    -38.885    496.357    575.184    496.357    501.066    496.357
124.870    562.249    576.494    -14.245    496.956    572.089    496.956    501.368    496.956
124.970    579.373    573.229      6.144    497.565    569.105    497.565    501.694    497.565
