neutron_powder_diffraction_0181
R_wp: 3.814
Temperature (K): 1074.000
Counts: 83964.00
Wavelength (Ã…): 2.52098
COMMENTS
Test file for demonstrating the .xyy file format in Reel1.0
END OF HEADER
   tth       Y_obs     Y_calc      Y_res    Background    Phase_1_Nuc    Phase_1_Mag    Phase_2_Nuc    Phase_2_Mag
  9.970    574.000    572.835      1.165    572.193    572.806    572.193    572.221    572.193
 10.070    561.000    572.971    -11.971    572.277    572.942    572.277    572.305    572.277
 10.170    627.000    573.109     53.891    572.355    573.080    572.355    572.384    572.355
 10.270    591.000    573.252     17.748    572.428    573.222    572.428    572.457    572.428
 10.370    557.994    573.409    -15.414    572.495    573.369    572.495    572.534    572.495
 10.470    575.786    573.565      2.220    572.556    573.524    572.556    572.596    572.556
 10.570    612.000    573.732     38.268    572.612    573.691    572.612    572.652    572.612
 10.670    615.000    573.915     41.085    572.662    573.874    572.662    572.703    572.662
 10.770    594.000    574.121     19.879    572.707    574.079    572.707    572.748    572.707
 10.870    581.000    574.356      6.644    572.746    574.314    572.746    572.787    572.746
 10.970    602.000    574.633     27.367    572.780    574.591    572.780    572.822    572.780
 11.070    598.000    574.969     23.031    572.809    574.926    572.809    572.851    572.809
 11.170    620.000    575.386     44.614    572.833    575.343    572.833    572.875    572.833
 11.270    589.000    575.922     13.078    572.851    575.877    572.851    572.894    572.851
 11.370    579.000    576.642      2.358    572.865    576.593    572.865    572.912    572.865
 11.470    608.693    577.674     31.019    572.873    577.623    572.873    572.921    572.873
 11.570    565.000    579.401    -14.401    572.876    579.349    572.876    572.924    572.876
 11.670    565.320    582.950    -17.630    572.874    582.896    572.874    572.923    572.874
 11.770    553.619    591.076    -37.457    572.867    591.017    572.867    572.916    572.867
 11.870    605.997    608.440     -2.443    572.856    608.371    572.856    572.905    572.856
 11.970    683.000    638.921     44.079    572.839    638.835    572.839    572.889    572.839
 12.070    682.000    678.790      3.210    572.818    678.682    572.818    572.868    572.818
 12.170    703.000    710.411     -7.411    572.792    710.285    572.792    572.842    572.792
 12.270    671.000    711.418    -40.418    572.762    711.290    572.762    572.812    572.762
 12.370    683.874    680.863      3.011    572.726    680.753    572.726    572.777    572.726
 12.470    685.508    640.727     44.781    572.686    640.639    572.686    572.737    572.686
 12.570    569.846    609.458    -39.612    572.642    609.386    572.642    572.693    572.642
 12.670    561.000    591.413    -30.413    572.593    591.351    572.593    572.644    572.593
 12.770    598.788    582.889     15.899    572.540    582.832    572.540    572.591    572.540
 12.870    561.000    579.141    -18.141    572.482    579.086    572.482    572.533    572.482
 12.970    550.000    577.307    -27.307    572.420    577.252    572.420    572.471    572.420
 13.070    583.000    576.199      6.801    572.353    576.144    572.353    572.406    572.353
 13.170    563.000    575.418    -12.418    572.282    575.361    572.282    572.338    572.282
 13.270    546.382    574.821    -28.439    572.207    574.764    572.207    572.263    572.207
 13.370    541.000    574.347    -33.347    572.128    574.289    572.128    572.185    572.128
 13.470    544.721    573.956    -29.235    572.045    573.898    572.045    572.102    572.045
 13.570    585.000    573.625     11.375    571.957    573.567    571.957    572.015    571.957
 13.670    599.799    573.339     26.461    571.866    573.280    571.866    571.925    571.866
 13.770    567.000    573.084     -6.084    571.771    573.025    571.771    571.829    571.771
 13.870    576.766    572.853      3.913    571.671    572.793    571.671    571.730    571.671
 13.970    578.685    572.640      6.045    571.568    572.580    571.568    571.627    571.568
 14.070    579.685    572.441      7.244    571.461    572.380    571.461    571.520    571.461
 14.170    583.689    572.251     11.438    571.350    572.191    571.350    571.410    571.350
 14.270    604.201    572.069     32.132    571.235    572.009    571.235    571.295    571.235
 14.370    607.152    571.893     35.259    571.116    571.832    571.116    571.177    571.116
 14.470    557.000    571.721    -14.721    570.994    571.660    570.994    571.055    570.994
 14.570    556.000    571.552    -15.552    570.868    571.490    570.868    570.930    570.868
 14.670    570.000    571.387     -1.387    570.739    571.325    570.739    570.801    570.739
 14.770    568.558    571.222     -2.664    570.606    571.160    570.606    570.668    570.606
 14.870    552.774    571.056    -18.283    570.469    570.994    570.469    570.532    570.469
 14.970    585.000    570.890     14.110    570.329    570.827    570.329    570.392    570.329
 15.070    552.438    570.724    -18.285    570.186    570.660    570.186    570.249    570.186
 15.170    556.000    570.556    -14.556    570.039    570.492    570.039    570.102    570.039
 15.270    563.000    570.388     -7.388    569.888    570.323    569.888    569.952    569.888
 15.370    599.000    570.218     28.782    569.735    570.153    569.735    569.799    569.735
 15.470    543.000    570.046    -27.046    569.578    569.981    569.578    569.643    569.578
 15.570    510.000    569.873    -59.873    569.418    569.808    569.418    569.483    569.418
 15.670    557.047    569.698    -12.652    569.255    569.632    569.255    569.320    569.255
 15.770    551.000    569.523    -18.523    569.088    569.455    569.088    569.155    569.088
 15.870    580.000    569.344     10.656    568.919    569.276    568.919    568.986    568.919
 15.970    592.907    569.163     23.744    568.746    569.094    568.746    568.814    568.746
 16.070    570.000    568.980      1.020    568.570    568.911    568.570    568.639    568.570
 16.170    590.000    568.794     21.206    568.392    568.725    568.392    568.461    568.392
 16.270    527.757    568.607    -40.849    568.210    568.537    568.210    568.279    568.210
 16.370    553.000    568.417    -15.417    568.025    568.347    568.025    568.095    568.025
 16.470    567.000    568.226     -1.226    567.838    568.156    567.838    567.908    567.838
 16.570    562.000    568.034     -6.034    567.648    567.963    567.648    567.719    567.648
 16.670    550.000    567.837    -17.837    567.455    567.766    567.455    567.526    567.455
 16.770    562.000    567.638     -5.638    567.259    567.567    567.259    567.331    567.259
 16.870    580.488    567.437     13.050    567.060    567.365    567.060    567.133    567.060
 16.970    567.000    567.234     -0.234    566.859    567.162    566.859    566.932    566.859
 17.070    552.000    567.029    -15.029    566.655    566.956    566.655    566.728    566.655
 17.170    553.740    566.821    -13.082    566.449    566.748    566.449    566.522    566.449
 17.270    532.000    566.611    -34.611    566.240    566.537    566.240    566.314    566.240
 17.370    548.000    566.400    -18.400    566.028    566.325    566.028    566.103    566.028
 17.470    588.044    566.188     21.857    565.814    566.112    565.814    565.889    565.814
 17.570    547.000    565.972    -18.972    565.598    565.896    565.598    565.673    565.598
 17.670    548.385    565.753    -17.368    565.379    565.677    565.379    565.455    565.379
 17.770    571.000    565.533      5.467    565.157    565.456    565.157    565.234    565.157
 17.870    580.854    565.310     15.544    564.934    565.233    564.934    565.011    564.934
 17.970    529.000    565.086    -36.086    564.708    565.008    564.708    564.786    564.708
 18.070    507.000    564.863    -57.863    564.479    564.781    564.479    564.562    564.479
 18.170    554.000    564.636    -10.636    564.249    564.551    564.249    564.334    564.249
 18.270    555.697    564.406     -8.709    564.016    564.320    564.016    564.101    564.016
 18.370    605.141    564.173     40.968    563.781    564.087    563.781    563.867    563.781
 18.470    568.842    563.939      4.903    563.544    563.852    563.544    563.631    563.544
 18.570    593.000    563.704     29.296    563.305    563.616    563.305    563.392    563.305
 18.670    560.725    563.466     -2.741    563.063    563.378    563.063    563.151    563.063
 18.770    504.000    563.226    -59.226    562.820    563.137    562.820    562.909    562.820
 18.870    543.000    562.985    -19.985    562.575    562.895    562.575    562.664    562.575
 18.970    566.000    562.742      3.258    562.327    562.652    562.327    562.418    562.327
 19.070    577.505    562.497     15.007    562.078    562.407    562.078    562.169    562.078
 19.170    587.000    562.251     24.749    561.827    562.159    561.827    561.919    561.827
 19.270    491.000    562.003    -71.003    561.574    561.911    561.574    561.666    561.574
 19.370    593.463    561.754     31.709    561.319    561.661    561.319    561.412    561.319
 19.470    558.000    561.503     -3.503    561.063    561.409    561.063    561.157    561.063
 19.570    586.095    561.251     24.844    560.804    561.156    560.804    560.899    560.804
 19.670    605.002    560.997     44.005    560.544    560.901    560.544    560.640    560.544
 19.770    558.329    560.742     -2.413    560.282    560.646    560.282    560.379    560.282
 19.870    563.000    560.486      2.514    560.019    560.389    560.019    560.116    560.019
 19.970    594.496    560.229     34.267    559.754    560.131    559.754    559.852    559.754
 20.070    564.000    559.973      4.027    559.487    559.874    559.487    559.586    559.487
 20.170    549.000    559.726    -10.726    559.218    559.627    559.218    559.318    559.218
 20.270    531.000    559.476    -28.476    558.949    559.375    558.949    559.049    558.949
 20.370    556.142    559.215     -3.072    558.677    559.113    558.677    558.779    558.677
 20.470    543.000    558.952    -15.952    558.404    558.849    558.404    558.507    558.404
 20.570    535.474    558.688    -23.215    558.130    558.585    558.130    558.234    558.130
 20.670    549.000    558.424     -9.424    557.854    558.319    557.854    557.959    557.854
 20.770    542.000    558.159    -16.159    557.577    558.053    557.577    557.683    557.577
 20.870    551.000    557.893     -6.893    557.299    557.787    557.299    557.405    557.299
 20.970    518.000    557.627    -39.627    557.019    557.519    557.019    557.127    557.019
 21.070    582.000    557.360     24.640    556.738    557.251    556.738    556.847    556.738
 21.170    518.433    557.093    -38.660    556.455    556.983    556.455    556.565    556.455
 21.270    539.532    556.834    -17.302    556.172    556.723    556.172    556.283    556.172
 21.370    591.000    556.654     34.346    555.887    556.542    555.887    555.999    555.887
 21.470    572.000    556.411     15.589    555.601    556.298    555.601    555.714    555.601
 21.570    578.000    556.168     21.832    555.314    556.053    555.314    555.429    555.314
 21.670    561.000    555.932      5.068    555.025    555.815    555.025    555.142    555.025
 21.770    563.000    555.669      7.331    554.736    555.551    554.736    554.854    554.736
 21.870    577.000    555.403     21.597    554.445    555.284    554.445    554.564    554.445
 21.970    532.704    555.139    -22.435    554.154    555.019    554.154    554.274    554.154
 22.070    513.000    554.876    -41.876    553.861    554.754    553.861    553.983    553.861
 22.170    582.216    554.620     27.596    553.568    554.496    553.568    553.692    553.568
 22.270    552.000    554.409     -2.409    553.273    554.281    553.273    553.401    553.273
 22.370    539.129    554.171    -15.043    552.978    554.042    552.978    553.108    552.978
 22.470    568.000    553.919     14.081    552.682    553.788    552.682    552.813    552.682
 22.570    543.404    553.670    -10.266    552.385    553.536    552.385    552.518    552.385
 22.670    574.000    553.424     20.576    552.087    553.289    552.087    552.222    552.087
 22.770    578.496    553.186     25.310    551.788    553.049    551.788    551.925    551.788
 22.870    562.000    552.957      9.043    551.488    552.818    551.488    551.627    551.488
 22.970    585.550    552.732     32.818    551.188    552.591    551.188    551.329    551.188
 23.070    541.000    552.517    -11.517    550.887    552.374    550.887    551.030    550.887
 23.170    584.000    552.315     31.685    550.585    552.170    550.585    550.731    550.585
 23.270    551.000    552.129     -1.129    550.282    551.981    550.282    550.430    550.282
 23.370    568.877    551.963     16.914    549.979    551.813    549.979    550.130    549.979
 23.470    556.000    551.824      4.176    549.675    551.672    549.675    549.828    549.675
 23.570    548.000    551.721     -3.721    549.371    551.566    549.371    549.527    549.371
 23.670    518.000    551.665    -33.665    549.066    551.507    549.066    549.224    549.066
 23.770    580.000    551.675     28.325    548.761    551.515    548.761    548.922    548.761
 23.870    579.706    551.781     27.925    548.455    551.618    548.455    548.619    548.455
 23.970    558.115    552.028      6.086    548.148    551.863    548.148    548.315    548.148
 24.070    577.730    552.538     25.193    547.841    552.369    547.841    548.011    547.841
 24.170    570.000    553.654     16.346    547.533    553.483    547.533    547.707    547.533
 24.270    535.315    556.338    -21.023    547.225    556.165    547.225    547.403    547.225
 24.370    566.000    562.701      3.299    546.917    562.530    546.917    547.099    546.917
 24.470    622.000    575.812     46.188    546.608    575.646    546.608    546.794    546.608
 24.570    601.000    597.361      3.639    546.299    597.207    546.299    546.489    546.299
 24.670    583.225    623.205    -39.980    545.990    623.065    545.990    546.184    545.990
 24.770    615.000    640.432    -25.432    545.680    640.300    545.680    545.879    545.680
 24.870    633.000    636.241     -3.241    545.370    636.102    545.370    545.574    545.370
 24.970    612.000    614.094     -2.094    545.060    613.933    545.060    545.269    545.060
 25.070    555.000    588.371    -33.371    544.749    588.186    544.749    544.964    544.749
 25.170    596.000    569.052     26.948    544.438    568.848    544.438    544.659    544.438
 25.270    541.891    557.909    -16.018    544.127    557.691    544.127    544.354    544.127
 25.370    571.000    552.475     18.525    543.816    552.246    543.816    544.050    543.816
 25.470    577.000    549.923     27.077    543.505    549.685    543.505    543.746    543.505
 25.570    546.000    548.555     -2.555    543.194    548.309    543.194    543.442    543.194
 25.670    560.000    547.660     12.340    542.882    547.405    542.882    543.139    542.882
 25.770    522.608    546.989    -24.381    542.570    546.725    542.570    542.836    542.570
 25.870    537.012    546.455     -9.443    542.259    546.181    542.259    542.534    542.259
 25.970    531.000    546.019    -15.019    541.947    545.734    541.947    542.232    541.947
 26.070    525.000    545.656    -20.656    541.635    545.360    541.635    541.932    541.635
 26.170    590.000    545.358     44.642    541.324    545.050    541.324    541.632    541.324
 26.270    566.688    545.140     21.549    541.012    544.819    541.012    541.333    541.012
 26.370    534.675    544.970    -10.295    540.700    544.634    540.700    541.035    540.700
 26.470    590.000    544.829     45.171    540.388    544.478    540.388    540.739    540.388
 26.570    513.767    544.741    -30.974    540.077    544.373    540.077    540.444    540.077
 26.670    538.000    544.714     -6.714    539.765    544.328    539.765    540.151    539.765
 26.770    545.000    544.761      0.239    539.454    544.355    539.454    539.860    539.454
 26.870    545.000    544.896      0.104    539.143    544.467    539.143    539.571    539.143
 26.970    604.000    545.132     58.868    538.832    544.678    538.832    539.285    538.832
 27.070    525.024    545.513    -20.490    538.521    545.032    538.521    539.002    538.521
 27.170    562.000    546.084     15.916    538.210    545.572    538.210    538.722    538.210
 27.270    598.000    546.878     51.122    537.900    546.331    537.900    538.446    537.900
 27.370    589.000    548.015     40.985    537.590    547.428    537.590    538.175    537.590
 27.470    571.000    549.655     21.345    537.280    549.023    537.280    537.909    537.280
 27.570    563.000    552.271     10.729    536.970    551.589    536.970    537.650    536.970
 27.670    583.992    557.416     26.576    536.661    556.675    536.661    537.398    536.661
 27.770    535.868    569.988    -34.120    536.352    569.177    536.352    537.155    536.352
 27.870    596.000    601.555     -5.555    536.043    600.656    536.043    536.923    536.043
 27.970    648.669    668.909    -20.240    535.735    667.899    535.735    536.705    535.735
 28.070    815.792    778.189     37.603    535.427    777.043    535.427    536.504    535.427
 28.170    927.355    898.719     28.636    535.119    897.421    535.119    536.323    535.119
 28.270    928.000    958.192    -30.192    534.812    956.744    534.812    536.168    534.812
 28.370    899.000    908.700     -9.700    534.506    907.100    534.506    536.047    534.506
 28.470    815.087    801.602     13.486    534.199    799.805    534.199    535.971    534.199
 28.570    710.000    718.073     -8.073    533.893    715.997    533.893    535.958    533.893
 28.670    737.407    700.159     37.248    533.588    697.696    533.588    536.037    533.588
 28.770    728.000    743.851    -15.851    533.283    740.853    533.283    536.263    533.283
 28.870    795.000    810.544    -15.544    532.979    806.783    532.979    536.729    532.979
 28.970    811.101    841.912    -30.810    532.675    837.003    532.675    537.588    532.675
 29.070    854.192    803.145     51.046    532.372    796.477    532.372    539.054    532.372
 29.170    710.000    724.282    -14.282    532.069    714.980    532.069    541.384    532.069
 29.270    597.000    651.646    -54.646    531.767    638.626    531.767    544.795    531.767
 29.370    566.000    606.279    -40.279    531.465    588.431    531.465    549.316    531.465
 29.470    618.000    585.932     32.068    531.164    562.576    531.164    554.519    531.164
 29.570    557.068    579.304    -22.235    530.864    551.035    530.864    559.130    530.864
 29.670    639.000    576.332     62.668    530.564    545.791    530.564    561.101    530.564
 29.770    603.817    571.845     31.972    530.265    542.946    530.265    559.161    530.265
 29.870    573.000    565.406      7.594    529.967    541.091    529.967    554.279    529.967
 29.970    564.000    558.605      5.395    529.670    539.786    529.670    548.486    529.670
 30.070    522.155    552.721    -30.566    529.373    538.883    529.373    543.207    529.373
 30.170    578.000    548.279     29.721    529.076    538.355    529.076    538.997    529.076
 30.270    611.000    545.424     65.576    528.781    538.314    528.781    535.888    528.781
 30.370    589.000    544.414     44.586    528.486    539.209    528.486    533.686    528.486
 30.470    622.000    546.159     75.841    528.192    542.208    528.192    532.137    528.192
 30.570    554.000    552.559      1.441    527.899    549.431    527.899    531.014    527.899
 30.670    580.000    565.711     14.289    527.607    563.138    527.607    530.156    527.607
 30.770    581.000    585.370     -4.370    527.315    583.190    527.315    529.458    527.315
 30.870    645.345    605.710     39.635    527.024    603.821    527.024    528.862    527.024
 30.970    639.167    614.971     24.196    526.734    613.317    526.734    528.333    526.734
 31.070    659.000    605.351     53.649    526.445    603.899    526.445    527.852    526.445
 31.170    625.000    584.086     40.914    526.157    582.806    526.157    527.408    526.157
 31.270    542.000    562.932    -20.932    525.870    561.794    525.870    526.991    525.870
 31.370    584.000    547.959     36.041    525.583    546.938    525.583    526.596    525.583
 31.470    548.093    539.515      8.577    525.298    538.590    525.298    526.219    525.298
 31.570    571.000    535.386     35.614    525.013    534.539    525.013    525.857    525.013
 31.670    523.783    533.400     -9.618    524.729    532.621    524.729    525.506    524.729
 31.770    542.000    532.316      9.684    524.447    531.595    524.447    525.166    524.447
 31.870    536.000    531.616      4.384    524.165    530.945    524.165    524.834    524.165
 31.970    543.000    531.122     11.878    523.884    530.494    523.884    524.510    523.884
 32.070    548.000    530.773     17.227    523.604    530.184    523.604    524.192    523.604
 32.170    548.765    530.545     18.220    523.325    529.990    523.325    523.879    523.325
 32.270    538.000    530.429      7.571    523.047    529.904    523.047    523.571    523.047
 32.370    512.458    530.425    -17.968    522.770    529.927    522.770    523.268    522.770
 32.470    588.000    530.543     57.457    522.495    530.068    522.495    522.968    522.495
 32.570    540.000    530.797      9.203    522.220    530.344    522.220    522.672    522.220
 32.670    584.000    531.215     52.785    521.946    530.781    521.946    522.379    521.946
 32.770    536.000    531.835      4.165    521.673    531.418    521.673    522.089    521.673
 32.870    549.241    532.715     16.526    521.402    532.313    521.402    521.802    521.402
 32.970    553.000    533.937     19.063    521.131    533.550    521.131    521.518    521.131
 33.070    575.000    535.634     39.366    520.862    535.259    520.862    521.236    520.862
 33.170    578.700    538.042     40.659    520.594    537.678    520.594    520.956    520.594
 33.270    552.000    541.707     10.293    520.326    541.353    520.326    520.678    520.326
 33.370    574.424    548.105     26.319    520.060    547.760    520.060    520.402    520.060
 33.470    573.990    561.067     12.923    519.795    560.728    519.795    520.129    519.795
 33.570    579.000    588.807     -9.807    519.532    588.471    519.532    519.857    519.532
 33.670    633.426    644.180    -10.754    519.269    643.842    519.269    519.587    519.269
 33.770    714.000    738.680    -24.680    519.008    738.334    519.008    519.319    519.008
 33.870    892.486    868.429     24.057    518.747    868.073    518.747    519.052    518.747
 33.970   1029.000    998.347     30.653    518.488    997.987    518.488    518.788    518.488
 34.070   1085.000   1061.977     23.023    518.230   1061.632    518.230    518.525    518.230
 34.170   1060.000   1014.143     45.857    517.974   1013.828    517.974    518.263    517.974
 34.270    954.000    890.251     63.749    517.718    889.964    517.718    518.004    517.718
 34.370    735.000    757.188    -22.188    517.464    756.915    517.464    517.745    517.464
 34.470    644.000    655.602    -11.602    517.211    655.334    517.211    517.489    517.211
 34.570    556.740    593.665    -36.924    516.959    593.396    516.959    517.234    516.959
 34.670    571.000    561.499      9.501    516.709    561.230    516.709    516.980    516.709
 34.770    561.000    546.015     14.985    516.460    545.747    516.460    516.728    516.460
 34.870    507.390    538.198    -30.808    516.212    537.932    516.212    516.478    516.212
 34.970    509.462    533.599    -24.137    515.965    533.334    515.965    516.229    515.965
 35.070    535.000    530.438      4.562    515.720    530.176    515.720    515.982    515.720
 35.170    508.000    528.054    -20.054    515.475    527.794    515.475    515.736    515.475
 35.270    547.000    526.171     20.829    515.233    525.912    515.233    515.491    515.233
 35.370    565.868    524.640     41.228    514.991    524.383    514.991    515.248    514.991
 35.470    539.721    523.370     16.351    514.751    523.114    514.751    515.007    514.751
 35.570    513.000    522.298     -9.298    514.512    522.043    514.512    514.767    514.512
 35.670    580.000    521.377     58.623    514.275    521.123    514.275    514.529    514.275
 35.770    481.581    520.577    -38.996    514.039    520.323    514.039    514.292    514.039
 35.870    486.237    519.872    -33.635    513.804    519.619    513.804    514.056    513.804
 35.970    543.962    519.245     24.717    513.570    518.993    513.570    513.822    513.570
 36.070    504.000    518.682    -14.682    513.338    518.431    513.338    513.590    513.338
 36.170    495.000    518.174    -23.174    513.108    517.923    513.108    513.359    513.108
 36.270    513.000    517.713     -4.713    512.878    517.462    512.878    513.130    512.878
 36.370    525.000    517.293      7.707    512.651    517.042    512.651    512.902    512.651
 36.470    497.179    516.911    -19.732    512.424    516.660    512.424    512.675    512.424
 36.570    539.000    516.565     22.435    512.199    516.314    512.199    512.450    512.199
 36.670    506.000    516.257    -10.257    511.975    516.006    511.975    512.227    511.975
 36.770    533.000    515.991     17.009    511.753    515.739    511.753    512.005    511.753
 36.870    513.000    515.784     -2.784    511.532    515.532    511.532    511.784    511.532
 36.970    509.000    515.683     -6.683    511.313    515.431    511.313    511.565    511.313
 37.070    511.000    515.811     -4.811    511.095    515.558    511.095    511.348    511.095
 37.170    524.000    516.410      7.590    510.878    516.156    510.878    511.132    510.878
 37.270    516.000    517.848     -1.848    510.663    517.594    510.663    510.918    510.663
 37.370    532.000    520.450     11.550    510.449    520.195    510.449    510.705    510.449
 37.470    489.000    524.146    -35.146    510.237    523.891    510.237    510.494    510.237
 37.570    504.228    528.073    -23.845    510.026    527.818    510.026    510.284    510.026
 37.670    571.101    530.534     40.567    509.817    530.280    509.817    510.076    509.817
 37.770    527.501    530.106     -2.605    509.609    529.852    509.609    509.869    509.609
 37.870    511.213    527.159    -15.946    509.403    526.906    509.403    509.664    509.403
 37.970    537.000    523.264     13.736    509.198    523.011    509.198    509.461    509.198
 38.070    550.077    519.645     30.432    508.995    519.391    508.995    509.259    508.995
 38.170    522.951    516.770      6.182    508.793    516.513    508.793    509.059    508.793
 38.270    504.000    514.694    -10.694    508.593    514.434    508.593    508.860    508.593
 38.370    499.000    513.287    -14.287    508.394    513.022    508.394    508.663    508.394
 38.470    546.171    512.355     33.816    508.196    512.087    508.196    508.467    508.196
 38.570    489.670    511.732    -22.062    508.000    511.461    508.000    508.273    508.000
 38.670    519.000    511.294      7.706    507.806    511.020    507.806    508.081    507.806
 38.770    551.647    510.960     40.687    507.613    510.684    507.613    507.890    507.613
 38.870    492.000    510.682    -18.682    507.422    510.404    507.422    507.701    507.422
 38.970    483.000    510.435    -27.435    507.232    510.155    507.232    507.513    507.232
 39.070    486.000    510.209    -24.209    507.044    509.926    507.044    507.327    507.044
 39.170    511.327    509.997      1.329    506.857    509.713    506.857    507.143    506.857
 39.270    511.000    509.798      1.202    506.672    509.511    506.672    506.960    506.672
 39.370    503.000    509.609     -6.609    506.489    509.319    506.489    506.779    506.489
 39.470    497.000    509.429    -12.429    506.307    509.136    506.307    506.599    506.307
 39.570    472.765    509.257    -36.492    506.126    508.962    506.126    506.421    506.126
 39.670    498.966    509.093    -10.127    505.947    508.795    505.947    506.245    505.947
 39.770    478.000    508.937    -30.937    505.770    508.637    505.770    506.071    505.770
 39.870    518.000    508.789      9.211    505.594    508.486    505.594    505.898    505.594
 39.970    523.000    508.649     14.351    505.419    508.342    505.419    505.726    505.419
 40.070    517.000    508.517      8.483    505.247    508.207    505.247    505.557    505.247
 40.170    493.000    508.393    -15.393    505.076    508.080    505.076    505.389    505.076
 40.270    500.000    508.278     -8.278    504.906    507.962    504.906    505.223    504.906
 40.370    500.000    508.174     -8.174    504.738    507.854    504.738    505.058    504.738
 40.470    518.000    508.080      9.920    504.571    507.756    504.571    504.895    504.571
 40.570    523.089    507.998     15.091    504.407    507.671    504.407    504.734    504.407
 40.670    518.000    507.930     10.070    504.243    507.599    504.243    504.575    504.243
 40.770    536.000    507.878     28.122    504.082    507.544    504.082    504.417    504.082
 40.870    526.000    507.845     18.155    503.921    507.507    503.921    504.261    503.921
 40.970    450.000    507.834    -57.834    503.763    507.491    503.763    504.106    503.763
 41.070    496.000    507.850    -11.850    503.606    507.503    503.606    503.954    503.606
 41.170    499.000    507.899     -8.899    503.451    507.547    503.451    503.803    503.451
 41.270    496.000    507.988    -11.988    503.297    507.632    503.297    503.654    503.297
 41.370    500.670    508.129     -7.459    503.145    507.769    503.145    503.506    503.145
 41.470    508.000    508.338     -0.338    502.994    507.973    502.994    503.361    502.994
 41.570    516.000    508.639      7.361    502.845    508.269    502.845    503.217    502.845
 41.670    498.000    509.076    -11.076    502.698    508.701    502.698    503.074    502.698
 41.770    549.502    509.747     39.755    502.552    509.367    502.552    502.934    502.552
 41.870    492.518    510.891    -18.373    502.407    510.505    502.407    502.795    502.407
 41.970    522.557    513.054      9.503    502.265    512.663    502.265    502.659    502.265
 42.070    534.000    517.332     16.668    502.124    516.938    502.124    502.524    502.124
 42.170    550.447    525.482     24.965    501.984    525.085    501.984    502.391    501.984
 42.270    526.000    539.520    -13.520    501.847    539.123    501.847    502.259    501.847
 42.370    518.423    560.504    -42.081    501.710    560.111    501.710    502.130    501.710
 42.470    575.500    586.709    -11.208    501.576    586.322    501.576    502.002    501.576
 42.570    579.000    612.027    -33.027    501.443    611.648    501.443    501.876    501.443
 42.670    575.000    626.510    -51.510    501.311    626.133    501.311    501.752    501.311
 42.770    609.000    622.554    -13.554    501.181    622.171    501.181    501.630    501.181
 42.870    576.000    602.476    -26.476    501.053    602.077    501.053    501.510    501.053
 42.970    530.000    575.756    -45.756    500.927    575.335    500.927    501.392    500.927
 43.070    564.000    551.046     12.954    500.801    550.602    500.801    501.275    500.801
 43.170    492.000    532.615    -40.615    500.678    532.150    500.678    501.161    500.678
 43.270    502.000    520.896    -18.896    500.556    520.414    500.556    501.049    500.556
 43.370    550.777    514.288     36.489    500.436    513.792    500.436    500.938    500.436
 43.470    543.615    510.803     32.812    500.317    510.294    500.317    500.830    500.317
 43.570    508.000    508.944     -0.944    500.200    508.424    500.200    500.724    500.200
 43.670    511.250    507.854      3.397    500.085    507.321    500.085    500.619    500.085
 43.770    460.000    507.126    -47.126    499.971    506.581    499.971    500.517    499.971
 43.870    492.000    506.589    -14.589    499.859    506.032    499.859    500.417    499.859
 43.970    470.868    506.171    -35.303    499.748    505.601    499.748    500.319    499.748
 44.070    501.482    505.837     -4.355    499.639    505.253    499.639    500.224    499.639
 44.170    539.415    505.566     33.849    499.532    504.968    499.532    500.130    499.532
 44.270    476.000    505.345    -29.345    499.426    504.733    499.426    500.039    499.426
 44.370    488.101    505.166    -17.065    499.321    504.537    499.321    499.950    499.321
 44.470    469.296    505.020    -35.723    499.219    504.375    499.219    499.864    499.219
 44.570    487.000    504.902    -17.902    499.118    504.240    499.118    499.780    499.118
 44.670    496.000    504.810     -8.810    499.018    504.130    499.018    499.699    499.018
 44.770    521.000    504.740     16.260    498.920    504.040    498.920    499.620    498.920
 44.870    508.000    504.690      3.310    498.824    503.970    498.824    499.544    498.824
 44.970    512.751    504.659      8.092    498.729    503.918    498.729    499.470    498.729
 45.070    488.000    504.646    -16.646    498.636    503.882    498.636    499.400    498.636
 45.170    517.766    504.651     13.116    498.544    503.863    498.544    499.332    498.544
 45.270    534.000    504.672     29.328    498.454    503.859    498.454    499.268    498.454
 45.370    545.000    504.711     40.289    498.366    503.870    498.366    499.207    498.366
 45.470    495.233    504.768     -9.535    498.279    503.898    498.279    499.149    498.279
 45.570    462.000    504.843    -42.843    498.194    503.942    498.194    499.094    498.194
 45.670    480.000    504.938    -24.938    498.110    504.004    498.110    499.044    498.110
 45.770    520.000    505.053     14.947    498.028    504.084    498.028    498.997    498.028
 45.870    505.749    505.192      0.557    497.947    504.184    497.947    498.954    497.947
 45.970    505.000    505.355     -0.355    497.868    504.306    497.868    498.916    497.868
 46.070    466.454    505.547    -39.093    497.790    504.453    497.790    498.883    497.790
 46.170    498.163    505.770     -7.606    497.714    504.628    497.714    498.855    497.714
 46.270    475.000    506.029    -31.029    497.640    504.836    497.640    498.833    497.640
 46.370    484.000    506.330    -22.330    497.567    505.080    497.567    498.816    497.567
 46.470    485.271    506.681    -21.410    497.496    505.369    497.496    498.806    497.496
 46.570    530.576    507.091     23.484    497.426    505.713    497.426    498.803    497.426
 46.670    534.496    507.576     26.920    497.358    506.123    497.358    498.809    497.358
 46.770    477.936    508.163    -30.227    497.291    506.629    497.291    498.823    497.291
 46.870    505.000    508.907     -3.907    497.226    507.284    497.226    498.847    497.226
 46.970    498.000    509.929    -11.929    497.162    508.207    497.162    498.882    497.162
 47.070    502.000    511.491     -9.491    497.100    509.658    497.100    498.930    497.100
 47.170    514.000    514.105     -0.105    497.039    512.147    497.039    498.992    497.039
 47.270    501.000    518.607    -17.607    496.980    516.508    496.980    499.071    496.980
 47.370    527.000    526.055      0.945    496.923    523.796    496.923    499.169    496.923
 47.470    521.000    537.314    -16.314    496.867    534.871    496.867    499.288    496.867
 47.570    571.000    552.313     18.687    496.812    549.658    496.812    499.434    496.812
 47.670    562.000    569.251     -7.251    496.759    566.354    496.759    499.611    496.759
 47.770    639.000    584.148     54.852    496.708    580.977    496.708    499.825    496.708
 47.870    558.445    591.681    -33.237    496.657    588.198    496.657    500.083    496.657
 47.970    604.000    588.695     15.305    496.609    584.854    496.609    500.397    496.609
 48.070    533.661    577.342    -43.681    496.562    573.081    496.562    500.780    496.562
 48.170    568.572    562.825      5.747    496.516    558.055    496.516    501.255    496.516
 48.270    561.823    549.637     12.187    496.472    544.232    496.472    501.856    496.472
 48.370    570.854    540.193     30.661    496.429    533.969    496.429    502.640    496.429
 48.470    504.000    535.075    -31.075    496.388    527.748    496.388    503.707    496.388
 48.570    560.000    533.798     26.202    496.349    524.922    496.349    505.219    496.349
 48.670    506.199    535.661    -29.462    496.310    524.532    496.310    507.435    496.310
 48.770    552.000    540.216     11.784    496.273    525.764    496.273    510.722    496.273
 48.870    531.000    547.474    -16.474    496.238    528.159    496.238    515.548    496.238
 48.970    566.000    557.816      8.184    496.204    531.599    496.204    522.415    496.204
 49.070    553.000    571.835    -18.835    496.172    536.283    496.172    531.716    496.172
 49.170    591.000    590.312      0.688    496.141    542.914    496.141    543.530    496.141
 49.270    632.918    614.596     18.322    496.111    553.361    496.111    557.334    496.111
 49.370    669.000    647.806     21.194    496.083    572.222    496.083    571.649    496.083
 49.470    718.000    697.252     20.748    496.056    609.528    496.056    583.751    496.056
 49.570    764.266    777.911    -13.646    496.031    683.745    496.031    590.148    496.031
 49.670    949.000    914.568     34.432    496.007    821.997    496.007    588.497    496.007
 49.770   1085.921   1136.212    -50.291    495.984   1052.609    495.984    579.467    495.984
 49.870   1506.000   1457.557     48.443    495.963   1387.240    495.963    566.124    495.963
 49.970   1951.000   1853.613     97.387    495.943   1797.628    495.943    551.762    495.943
 50.070   2298.087   2243.212     54.875    495.925   2200.406    495.925    538.603    495.925
 50.170   2458.219   2500.759    -42.540    495.908   2468.921    495.908    527.715    495.908
 50.270   2585.000   2516.288     68.712    495.893   2492.917    495.893    519.355    495.893
 50.370   2221.000   2278.786    -57.786    495.878   2261.547    495.878    513.298    495.878
 50.470   1822.000   1887.357    -65.357    495.865   1874.342    495.865    509.089    495.865
 50.570   1489.777   1472.649     17.128    495.854   1462.459    495.854    506.231    495.854
 50.670   1094.750   1127.553    -32.803    495.844   1119.249    495.844    504.291    495.844
 50.770    850.000    888.661    -38.661    495.835    881.651    495.835    502.944    495.835
 50.870    704.000    748.048    -44.048    495.828    741.972    495.828    501.972    495.828
 50.970    686.710    676.075     10.635    495.821    670.708    495.821    501.239    495.821
 51.070    621.000    641.150    -20.150    495.817    636.343    495.817    500.666    495.817
 51.170    655.933    620.459     35.474    495.813    616.106    495.813    500.203    495.813
 51.270    658.000    602.703     55.297    495.811    598.723    495.811    499.823    495.811
 51.370    613.000    585.277     27.723    495.810    581.606    495.810    499.506    495.810
 51.470    531.148    569.298    -38.150    495.811    565.885    495.811    499.241    495.811
 51.570    569.000    556.215     12.785    495.813    553.021    495.813    499.018    495.813
 51.670    581.000    546.641     34.359    495.816    543.635    495.816    498.830    495.816
 51.770    541.000    540.333      0.667    495.820    537.487    495.820    498.672    495.820
 51.870    571.218    536.579     34.639    495.826    533.871    495.826    498.538    495.826
 51.970    539.292    534.615      4.678    495.833    532.025    495.833    498.426    495.833
 52.070    511.413    533.874    -22.461    495.841    531.385    495.841    498.332    495.841
 52.170    567.000    534.060     32.940    495.850    531.658    495.850    498.255    495.850
 52.270    570.000    535.128     34.872    495.861    532.799    495.861    498.192    495.861
 52.370    546.030    537.293      8.737    495.873    535.025    495.873    498.142    495.873
 52.470    558.000    541.186     16.814    495.886    538.970    495.886    498.103    495.886
 52.570    563.000    548.211     14.789    495.900    546.037    495.900    498.075    495.900
 52.670    586.439    561.100     25.339    495.916    558.960    495.916    498.057    495.916
 52.770    570.587    584.460    -13.873    495.933    582.345    495.933    498.047    495.933
 52.870    633.000    624.765      8.235    495.951    622.669    495.951    498.045    495.951
 52.970    643.149    689.045    -45.896    495.970    686.960    495.970    498.051    495.970
 53.070    814.825    781.779     33.046    495.991    779.701    495.991    498.064    495.991
 53.170    954.000    900.508     53.492    496.012    898.433    496.012    498.084    496.012
 53.270    999.967   1031.632    -31.665    496.035   1029.558    496.035    498.111    496.035
 53.370   1174.118   1148.485     25.633    496.059   1146.411    496.059    498.144    496.059
 53.470   1166.968   1216.145    -49.177    496.084   1214.070    496.084    498.184    496.084
 53.570   1132.000   1208.975    -76.975    496.111   1206.893    496.111    498.230    496.111
 53.670   1093.000   1130.207    -37.207    496.138   1128.107    496.138    498.282    496.138
 53.770   1022.000   1008.922     13.078    496.167   1006.792    496.167    498.340    496.167
 53.870    843.000    879.184    -36.184    496.197    877.013    496.197    498.404    496.197
 53.970    735.000    765.251    -30.251    496.227    763.032    496.227    498.474    496.227
 54.070    700.000    678.425     21.575    496.259    676.152    496.259    498.551    496.259
 54.170    581.104    619.561    -38.458    496.293    617.232    496.293    498.635    496.293
 54.270    619.700    583.432     36.268    496.327    581.041    496.327    498.725    496.327
 54.370    579.132    562.960     16.172    496.362    560.504    496.362    498.823    496.362
 54.470    616.000    551.981     64.019    496.399    549.456    496.399    498.928    496.399
 54.570    544.000    546.262     -2.262    496.436    543.660    496.436    499.040    496.436
 54.670    533.000    543.351    -10.351    496.475    540.666    496.475    499.161    496.475
 54.770    550.000    542.012      7.988    496.514    539.237    496.514    499.291    496.514
 54.870    591.000    541.680     49.320    496.555    538.807    496.555    499.430    496.555
 54.970    563.000    542.121     20.879    496.597    539.141    496.597    499.579    496.597
 55.070    559.000    543.253     15.747    496.640    540.156    496.640    499.738    496.640
 55.170    572.000    545.069     26.931    496.684    541.844    496.684    499.910    496.684
 55.270    550.000    547.612      2.388    496.729    544.249    496.729    500.093    496.729
 55.370    568.000    550.980     17.020    496.774    547.464    496.774    500.291    496.774
 55.470    568.611    555.346     13.265    496.821    551.664    496.821    500.504    496.821
 55.570    566.000    561.038      4.962    496.869    557.175    496.869    500.734    496.869
 55.670    585.000    568.737     16.263    496.918    564.674    496.918    500.982    496.918
 55.770    598.000    579.900     18.100    496.968    575.618    496.968    501.250    496.968
 55.870    600.076    597.599      2.477    497.019    593.075    497.019    501.541    497.019
 55.970    659.437    627.827     31.610    497.071    623.035    497.071    501.858    497.071
 56.070    666.250    681.016    -14.766    497.124    675.925    497.124    502.204    497.124
 56.170    773.000    772.805      0.195    497.178    767.380    497.178    502.582    497.178
 56.270    885.000    922.405    -37.405    497.232    916.607    497.232    502.997    497.232
 56.370   1126.000   1146.944    -20.944    497.288   1140.731    497.288    503.454    497.288
 56.470   1501.533   1451.756     49.777    497.344   1445.085    497.344    503.960    497.344
 56.570   1868.995   1819.232     49.763    497.402   1812.063    497.402    504.522    497.402
 56.670   2212.000   2200.588     11.412    497.460   2192.881    497.460    505.149    497.460
 56.770   2568.000   2515.769     52.231    497.520   2507.476    497.520    505.853    497.520
 56.870   2574.000   2672.675    -98.675    497.580   2663.734    497.580    506.646    497.580
 56.970   2683.325   2615.831     67.494    497.641   2606.136    497.641    507.545    497.641
 57.070   2431.000   2367.917     63.083    497.703   2357.309    497.703    508.572    497.703
 57.170   2004.000   2010.565     -6.565    497.766   1998.842    497.766    509.756    497.766
 57.270   1691.000   1632.765     58.235    497.829   1619.695    497.829    511.136    497.829
 57.370   1284.812   1298.681    -13.868    497.894   1283.991    497.894    512.772    497.894
 57.470   1092.560   1040.141     52.419    497.959   1023.478    497.959    514.757    497.959
 57.570    907.756    861.709     46.047    498.026    842.577    498.026    517.245    498.026
 57.670    732.000    751.139    -19.139    498.093    728.797    498.093    520.486    498.093
 57.770    719.000    690.393     28.607    498.160    663.698    498.160    524.884    498.160
 57.870    712.305    663.571     48.734    498.229    630.764    498.229    531.048    498.229
 57.970    648.000    660.560    -12.560    498.299    619.014    498.299    539.844    498.299
 58.070    665.000    677.297    -12.297    498.369    623.267    498.369    552.388    498.369
 58.170    691.000    714.160    -23.160    498.440    642.624    498.440    569.955    498.440
 58.270    759.000    773.613    -14.613    498.512    678.319    498.512    593.772    498.512
 58.370    867.527    857.687      9.840    498.584    731.542    498.584    624.684    498.584
 58.470    926.700    965.653    -38.953    498.657    801.532    498.657    662.722    498.657
 58.570   1124.000   1092.086     31.914    498.731    884.157    498.731    706.599    498.731
 58.670   1280.000   1225.994     54.006    498.806    971.632    498.806    753.109    498.806
 58.770   1337.995   1351.960    -13.965    498.882   1054.276    498.882    796.516    498.882
 58.870   1541.000   1453.477     87.523    498.958   1123.795    498.958    828.606    498.958
 58.970   1510.000   1515.793     -5.793    499.035   1173.809    499.035    841.005    499.035
 59.070   1497.000   1528.576    -31.576    499.112   1197.820    499.112    829.876    499.112
 59.170   1501.000   1490.834     10.166    499.191   1191.301    499.191    798.748    499.191
 59.270   1429.672   1414.312     15.361    499.270   1157.729    499.270    755.882    499.270
 59.370   1355.688   1319.595     36.093    499.349   1109.409    499.349    709.554    499.349
 59.470   1268.000   1227.844     40.156    499.429   1061.638    499.429    665.631    499.429
 59.570   1131.859   1156.616    -24.757    499.510   1028.658    499.510    627.430    499.510
 59.670   1076.000   1120.633    -44.633    499.592   1023.819    499.592    596.323    499.592
 59.770   1140.000   1131.149      8.851    499.674   1058.356    499.674    572.334    499.674
 59.870   1198.000   1191.304      6.696    499.757   1136.225    499.757    554.649    499.757
 59.970   1321.000   1291.445     29.555    499.840   1248.994    499.840    542.052    499.840
 60.070   1462.000   1407.641     54.359    499.924   1374.022    499.924    533.266    499.924
 60.170   1528.730   1504.192     24.539    500.009   1476.747    500.009    527.165    500.009
 60.270   1544.000   1542.980      1.020    500.094   1519.936    500.094    522.872    500.094
 60.370   1557.000   1501.690     55.310    500.180   1481.890    500.180    519.767    500.180
 60.470   1413.001   1387.594     25.407    500.266   1370.271    500.266    517.440    500.266
 60.570   1201.000   1230.291    -29.291    500.353   1214.915    500.353    515.639    500.353
 60.670   1114.000   1063.600     50.400    500.440   1049.781    500.440    514.213    500.440
 60.770    941.000    913.553     27.447    500.528    900.988    500.528    513.074    500.528
 60.870    818.139    794.612     23.527    500.617    783.049    500.617    512.173    500.617
 60.970    711.743    710.686      1.057    500.706    699.905    500.706    511.482    500.706
 61.070    628.057    658.737    -30.680    500.795    648.538    500.795    510.988    500.795
 61.170    644.339    633.226     11.114    500.885    623.419    500.885    510.680    500.885
 61.270    622.000    629.798     -7.798    500.976    620.206    500.976    510.548    500.976
 61.370    656.000    647.315      8.685    501.066    637.774    501.066    510.576    501.066
 61.470    682.000    688.007     -6.007    501.158    678.383    501.158    510.732    501.158
 61.570    770.000    755.927     14.073    501.250    746.135    501.250    510.969    501.250
 61.670    804.000    854.039    -50.039    501.342    844.068    501.342    511.211    501.342
 61.770    938.000    980.619    -42.619    501.435    970.563    501.435    511.358    501.435
 61.870   1101.000   1126.049    -25.049    501.528   1116.105    501.528    511.311    501.528
 61.970   1239.000   1271.122    -32.122    501.621   1261.551    501.621    511.015    501.621
 62.070   1386.000   1388.128     -2.128    501.715   1379.176    501.715    510.492    501.715
 62.170   1404.000   1447.374    -43.374    501.810   1439.208    501.810    509.824    501.810
 62.270   1366.000   1430.748    -64.748    501.904   1423.438    501.904    509.106    501.904
 62.370   1289.628   1343.217    -53.589    501.999   1336.743    501.999    508.411    501.999
 62.470   1199.655   1209.210     -9.555    502.095   1203.494    502.095    507.786    502.095
 62.570   1034.000   1058.694    -24.694    502.191   1053.629    502.191    507.256    502.191
 62.670    914.754    916.317     -1.562    502.287    911.790    502.287    506.826    502.287
 62.770    783.000    797.281    -14.281    502.383    793.188    502.383    506.492    502.383
 62.870    680.155    707.411    -27.256    502.480    703.663    502.480    506.241    502.480
 62.970    640.059    645.384     -5.325    502.577    641.911    502.577    506.059    502.577
 63.070    565.000    605.875    -40.875    502.675    602.623    502.675    505.930    502.675
 63.170    559.000    582.473    -23.473    502.773    579.404    502.773    505.841    502.773
 63.270    570.591    569.617      0.974    502.871    566.702    502.871    505.783    502.871
 63.370    594.000    563.443     30.557    502.969    560.660    502.969    505.747    502.969
 63.470    604.000    561.873     42.127    503.067    559.206    503.067    505.727    503.067
 63.570    525.612    564.386    -38.774    503.166    561.822    503.166    505.721    503.166
 63.670    587.782    571.736     16.045    503.265    569.263    503.265    505.725    503.265
 63.770    630.000    585.687     44.313    503.365    583.294    503.365    505.738    503.365
 63.870    628.000    608.646     19.354    503.464    606.323    503.464    505.758    503.464
 63.970    683.206    643.064     40.142    503.564    640.799    503.564    505.786    503.564
 64.070    690.000    690.523     -0.523    503.664    688.308    503.664    505.819    503.664
 64.170    806.000    750.645     55.355    503.764    748.471    503.764    505.858    503.764
 64.270    832.699    820.038     12.661    503.864    817.901    503.864    505.901    503.864
 64.370    891.000    891.630     -0.630    503.965    889.528    503.965    505.949    503.965
 64.470   1003.000    954.879     48.121    504.066    952.816    504.066    506.002    504.066
 64.570   1052.418    997.994     54.423    504.166    995.978    504.166    506.058    504.166
 64.670    958.799   1012.555    -53.756    504.267   1010.594    504.267    506.118    504.267
 64.770   1055.154    997.299     57.855    504.368    995.400    504.368    506.181    504.368
 64.870    956.690    957.645     -0.955    504.470    955.809    504.470    506.247    504.470
 64.970    939.000    902.751     36.249    504.571    900.975    504.571    506.316    504.571
 65.070    860.861    842.480     18.380    504.673    840.757    504.673    506.388    504.673
 65.170    751.480    784.712    -33.231    504.774    783.034    504.774    506.462    504.774
 65.270    775.264    733.857     41.407    504.876    732.216    504.876    506.539    504.876
 65.370    727.000    691.175     35.825    504.977    689.562    504.977    506.618    504.977
 65.470    655.000    656.216     -1.216    505.079    654.623    505.079    506.699    505.079
 65.570    583.000    628.124    -45.124    505.181    626.546    505.181    506.783    505.181
 65.670    566.680    606.076    -39.396    505.283    604.509    505.283    506.869    505.283
 65.770    579.000    589.268    -10.268    505.385    587.710    505.385    506.956    505.385
 65.870    614.215    576.920     37.295    505.487    575.369    505.487    507.046    505.487
 65.970    606.619    568.304     38.315    505.589    566.759    505.589    507.137    505.589
 66.070    599.967    562.755     37.212    505.691    561.217    505.691    507.230    505.691
 66.170    533.936    559.680    -25.744    505.793    558.148    505.793    507.325    505.793
 66.270    598.000    558.577     39.423    505.895    557.050    505.895    507.422    505.895
 66.370    540.000    559.074    -19.074    505.996    557.550    505.996    507.520    505.996
 66.470    549.000    560.967    -11.967    506.098    559.446    506.098    507.620    506.098
 66.570    521.000    564.286    -43.286    506.200    562.767    506.200    507.720    506.200
 66.670    573.000    569.399      3.601    506.302    567.879    506.302    507.823    506.302
 66.770    532.000    577.208    -45.208    506.404    575.684    506.404    507.929    506.404
 66.870    574.513    589.484    -14.971    506.505    587.954    506.505    508.035    506.505
 66.970    587.851    609.336    -21.486    506.607    607.799    506.607    508.144    506.607
 67.070    579.000    641.724    -62.724    506.708    640.174    506.708    508.255    506.708
 67.170    699.000    693.764      5.236    506.810    692.201    506.810    508.367    506.810
 67.270    842.000    774.474     67.526    506.911    772.892    506.911    508.481    506.911
 67.370    848.000    893.492    -45.492    507.012    891.893    507.012    508.597    507.012
 67.470   1107.000   1058.580     48.420    507.113   1056.963    507.113    508.715    507.113
 67.570   1247.000   1272.083    -25.083    507.214   1270.454    507.214    508.835    507.214
 67.670   1498.000   1527.173    -29.173    507.314   1525.540    507.314    508.958    507.314
 67.770   1770.000   1804.938    -34.938    507.415   1803.314    507.415    509.083    507.415
 67.870   2039.000   2073.393    -34.393    507.515   2071.793    507.515    509.210    507.515
 67.970   2331.274   2289.884     41.390    507.615   2288.320    507.615    509.339    507.615
 68.070   2378.000   2410.033    -32.033    507.715   2408.509    507.715    509.472    507.715
 68.170   2498.000   2404.661     93.339    507.815   2403.166    507.815    509.607    507.815
 68.270   2327.000   2275.259     51.741    507.915   2273.763    507.915    509.746    507.915
 68.370   2121.670   2053.048     68.621    508.014   2051.513    508.014    509.888    508.014
 68.470   1757.622   1782.751    -25.129    508.113   1781.145    508.113    510.033    508.113
 68.570   1490.000   1506.303    -16.303    508.212   1504.602    508.212    510.183    508.212
 68.670   1252.000   1254.607     -2.607    508.311   1252.798    508.311    510.337    508.311
 68.770   1043.278   1045.483     -2.205    508.409   1043.561    508.409    510.495    508.409
 68.870    876.000    884.858     -8.858    508.507    882.824    508.507    510.659    508.507
 68.970    733.845    769.788    -35.942    508.605    767.645    508.605    510.828    508.605
 69.070    718.000    692.236     25.764    508.702    689.989    508.702    511.003    508.702
 69.170    726.000    642.543     83.457    508.800    640.193    508.800    511.185    508.800
 69.270    685.000    611.822     73.178    508.897    609.367    508.897    511.374    508.897
 69.370    584.000    593.129     -9.129    508.993    590.565    508.993    511.572    508.993
 69.470    594.000    581.662     12.338    509.089    578.983    509.089    511.778    509.089
 69.570    616.000    574.411     41.589    509.185    571.608    509.185    511.995    509.185
 69.670    539.935    569.640    -29.705    509.281    566.703    509.281    512.224    509.281
 69.770    578.000    566.410     11.590    509.376    563.325    509.376    512.465    509.376
 69.870    583.000    564.236     18.764    509.471    560.989    509.471    512.721    509.471
 69.970    548.983    562.879    -13.896    509.565    559.453    509.565    512.994    509.565
 70.070    611.000    562.226     48.774    509.660    558.602    509.660    513.285    509.660
 70.170    540.000    562.242    -22.242    509.753    558.398    509.753    513.597    509.753
 70.270    564.000    562.954      1.046    509.846    558.866    509.846    513.934    509.846
 70.370    561.000    564.476     -3.476    509.939    560.115    509.939    514.299    509.939
 70.470    546.253    567.054    -20.801    510.032    562.387    510.032    514.696    510.032
 70.570    590.000    571.175     18.825    510.124    566.162    510.124    515.132    510.124
 70.670    565.000    577.727    -12.727    510.215    572.323    510.215    515.612    510.215
 70.770    621.000    588.225     32.775    510.307    582.374    510.307    516.146    510.307
 70.870    612.071    605.086      6.985    510.397    598.718    510.397    516.748    510.397
 70.970    623.000    631.837     -8.837    510.487    624.864    510.487    517.434    510.487
 71.070    627.000    673.157    -46.157    510.577    665.461    510.577    518.233    510.577
 71.170    709.000    734.537    -25.537    510.666    725.953    510.666    519.191    510.666
 71.270    844.206    821.402     22.804    510.755    811.695    510.755    520.380    510.755
 71.370    903.000    937.665    -34.665    510.843    926.482    510.843    521.914    510.843
 71.470   1092.000   1083.883      8.117    510.931   1070.700    510.931    523.972    510.931
 71.570   1221.000   1255.446    -34.446    511.018   1239.481    511.018    526.813    511.018
 71.670   1488.546   1441.265     47.280    511.105   1421.378    511.105    530.799    511.105
 71.770   1682.055   1623.410     58.646    511.191   1597.997    511.191    536.399    511.191
 71.870   1824.420   1778.286     46.135    511.277   1745.192    511.277    544.170    511.277
 71.970   1805.094   1880.676    -75.582    511.362   1837.153    511.362    554.707    511.362
 72.070   1932.963   1911.701     21.262    511.446   1854.462    511.446    568.542    511.446
 72.170   1891.000   1867.609     23.391    511.530   1793.021    511.530    586.014    511.530
 72.270   1760.000   1761.941     -1.941    511.613   1666.371    511.613    607.115    511.613
 72.370   1671.000   1618.517     52.483    511.696   1498.849    511.696    631.322    511.696
 72.470   1474.000   1461.873     12.127    511.778   1316.166    511.778    657.462    511.778
 72.570   1254.301   1311.237    -56.936    511.859   1139.496    511.859    683.588    511.859
 72.670   1177.698   1178.300     -0.602    511.940    983.285    511.940    706.946    511.940
 72.770   1081.240   1067.298     13.942    512.021    855.091    512.021    724.218    512.021
 72.870    941.000    976.780    -35.780    512.100    756.566    512.100    732.303    512.100
 72.970    925.093    902.519     22.573    512.179    685.142    512.179    729.544    512.179
 73.070    818.438    840.253    -21.815    512.257    635.935    512.257    716.563    512.257
 73.170    741.000    787.008    -46.008    512.335    603.415    512.335    695.917    512.335
 73.270    726.129    741.078    -14.950    512.412    582.545    512.412    670.936    512.412
 73.370    668.000    701.561    -33.561    512.488    569.353    512.488    644.689    512.488
 73.470    689.000    667.995     21.005    512.564    561.036    512.564    619.518    512.564
 73.570    617.000    640.128    -23.128    512.639    555.801    512.639    596.964    512.639
 73.670    657.691    617.740     39.950    512.713    552.604    512.713    577.850    512.713
 73.770    612.000    600.512     11.488    512.786    550.885    512.786    562.417    512.786
 73.870    608.000    587.970     20.030    512.859    550.358    512.859    550.478    512.859
 73.970    545.384    579.488    -34.105    512.931    550.855    512.931    541.577    512.931
 74.070    608.343    574.332     34.012    513.002    552.216    513.002    535.135    513.002
 74.170    585.000    571.701     13.299    513.073    554.226    513.073    530.571    513.073
 74.270    526.106    570.769    -44.664    513.143    556.573    513.143    527.369    513.143
 74.370    606.000    570.712     35.288    513.212    558.845    513.212    525.114    513.212
 74.470    646.000    570.739     75.261    513.280    560.561    513.280    523.498    513.280
 74.570    561.928    570.174     -8.246    513.347    561.259    513.347    522.306    513.347
 74.670    585.484    568.584     16.899    513.414    560.647    513.414    521.396    513.414
 74.770    651.000    565.890     85.110    513.480    558.736    513.480    520.675    513.480
 74.870    639.000    562.348     76.652    513.545    555.843    513.545    520.087    513.545
 74.970    565.944    558.415      7.529    513.609    552.459    513.609    519.597    513.609
 75.070    602.000    554.607     47.393    513.672    549.125    513.672    519.180    513.672
 75.170    556.000    551.423      4.577    513.735    546.354    513.735    518.823    513.735
 75.270    532.000    549.335    -17.335    513.797    544.630    513.797    518.515    513.797
 75.370    545.181    548.807     -3.626    513.858    544.424    513.858    518.248    513.858
 75.470    513.029    550.319    -37.290    513.918    546.224    513.918    518.015    513.918
 75.570    554.000    554.380     -0.380    513.977    550.542    513.977    517.811    513.977
 75.670    550.000    561.503    -11.503    514.035    557.895    514.035    517.633    514.035
 75.770    578.861    572.121      6.740    514.093    568.720    514.093    517.478    514.093
 75.870    580.000    586.461     -6.461    514.150    583.245    514.150    517.342    514.150
 75.970    612.030    604.370      7.660    514.205    601.321    514.205    517.222    514.205
 76.070    621.000    625.160     -4.160    514.260    622.262    514.260    517.118    514.260
 76.170    625.000    647.498    -22.498    514.314    644.737    514.314    517.026    514.314
 76.270    622.000    669.377    -47.377    514.367    666.742    514.367    516.946    514.367
 76.370    691.000    688.209      2.791    514.419    685.691    514.419    516.876    514.419
 76.470    669.078    701.156    -32.078    514.470    698.749    514.470    516.815    514.470
 76.570    652.000    705.832    -53.832    514.521    703.530    514.521    516.761    514.521
 76.670    669.592    701.239    -31.647    514.570    699.039    514.570    516.715    514.570
 76.770    675.000    688.257    -13.257    514.618    686.153    514.618    516.675    514.618
 76.870    686.000    669.197     16.803    514.666    667.184    514.666    516.641    514.666
 76.970    671.003    646.877     24.126    514.712    644.949    514.712    516.612    514.712
 77.070    600.000    623.894    -23.894    514.758    622.044    514.758    516.587    514.758
 77.170    571.000    602.267    -31.267    514.802    600.489    514.802    516.566    514.802
 77.270    601.000    583.331     17.669    514.846    581.618    514.846    516.548    514.846
 77.370    550.413    567.750    -17.337    514.888    566.098    514.888    516.534    514.888
 77.470    502.000    555.626    -53.626    514.930    554.030    514.930    516.522    514.930
 77.570    516.250    546.654    -30.405    514.970    545.109    514.970    516.513    514.970
 77.670    524.951    540.303    -15.352    515.010    538.805    515.010    516.506    515.010
 77.770    541.213    535.970      5.242    515.048    534.516    515.048    516.501    515.048
 77.870    532.000    533.094     -1.094    515.086    531.681    515.086    516.498    515.086
 77.970    506.179    531.213    -25.034    515.122    529.838    515.122    516.496    515.122
 78.070    498.000    529.983    -31.983    515.158    528.644    515.158    516.496    515.158
 78.170    525.000    529.168     -4.168    515.192    527.862    515.192    516.497    515.192
 78.270    519.648    528.617     -8.969    515.226    527.343    515.226    516.499    515.226
 78.370    525.294    528.239     -2.944    515.258    526.994    515.258    516.502    515.258
 78.470    510.896    527.989    -17.092    515.289    526.771    515.289    516.506    515.289
 78.570    505.000    527.844    -22.844    515.320    526.652    515.320    516.511    515.320
 78.670    510.869    527.801    -16.932    515.349    526.632    515.349    516.517    515.349
 78.770    513.000    527.866    -14.866    515.377    526.718    515.377    516.524    515.377
 78.870    478.000    528.039    -50.039    515.404    526.910    515.404    516.532    515.404
 78.970    514.000    528.360    -14.360    515.430    527.249    515.430    516.541    515.430
 79.070    499.000    528.896    -29.896    515.455    527.798    515.455    516.552    515.455
 79.170    494.143    529.655    -35.512    515.478    528.567    515.478    516.565    515.478
 79.270    524.000    530.665     -6.665    515.501    529.584    515.501    516.580    515.501
 79.370    502.357    531.957    -29.600    515.523    530.877    515.523    516.600    515.523
 79.470    578.000    533.554     44.446    515.543    532.470    515.543    516.624    515.543
 79.570    506.000    535.487    -29.487    515.562    534.392    515.562    516.653    515.562
 79.670    527.000    537.799    -10.799    515.581    536.686    515.581    516.689    515.581
 79.770    602.000    540.567     61.433    515.598    539.427    515.598    516.732    515.598
 79.870    544.205    543.920      0.285    515.614    542.745    515.614    516.783    515.614
 79.970    561.000    548.069     12.931    515.628    546.851    515.628    516.841    515.628
 80.070    571.000    553.333     17.667    515.642    552.065    515.642    516.905    515.642
 80.170    559.000    560.139     -1.139    515.654    558.817    515.654    516.973    515.654
 80.270    565.000    568.977     -3.977    515.666    567.599    515.666    517.043    515.666
 80.370    594.000    580.297     13.703    515.676    578.866    515.676    517.109    515.676
 80.470    575.000    594.394    -19.394    515.685    592.918    515.685    517.167    515.685
 80.570    633.824    611.296     22.528    515.693    609.790    515.693    517.210    515.693
 80.670    609.774    630.677    -20.904    515.699    629.161    515.699    517.231    515.699
 80.770    625.000    651.812    -26.812    515.705    650.310    515.705    517.228    515.705
 80.870    701.450    673.597     27.853    515.709    672.133    515.709    517.201    515.709
 80.970    724.539    694.672     29.867    515.712    693.266    515.712    517.152    515.712
 81.070    706.000    713.619     -7.619    515.714    712.287    515.714    517.088    515.714
 81.170    748.000    729.161     18.839    515.715    727.909    515.715    517.014    515.715
 81.270    739.652    740.271     -0.619    515.715    739.102    515.715    516.937    515.715
 81.370    723.000    746.249    -23.249    515.713    745.160    515.713    516.861    515.713
 81.470    733.000    746.805    -13.805    515.710    745.790    515.710    516.789    515.710
 81.570    761.000    742.072     18.928    515.706    741.122    515.706    516.723    515.706
 81.670    716.304    732.554    -16.251    515.701    731.660    515.701    516.664    515.701
 81.770    730.000    719.095     10.905    515.694    718.247    515.694    516.611    515.694
 81.870    680.000    702.847    -22.847    515.686    702.036    515.686    516.565    515.686
 81.970    699.000    685.115     13.885    515.677    684.332    515.677    516.525    515.677
 82.070    680.000    667.080     12.920    515.667    666.319    515.667    516.490    515.667
 82.170    653.000    649.588      3.412    515.656    648.844    515.656    516.459    515.656
 82.270    657.000    633.099     23.901    515.643    632.366    515.643    516.431    515.643
 82.370    637.691    617.797     19.894    515.629    617.072    515.629    516.404    515.629
 82.470    603.756    603.768     -0.012    515.614    603.048    515.614    516.379    515.614
 82.570    595.000    591.121      3.879    515.598    590.403    515.598    516.355    515.598
 82.670    545.000    580.014    -35.014    515.580    579.296    515.580    516.330    515.580
 82.770    596.000    570.617     25.383    515.561    569.898    515.561    516.306    515.561
 82.870    538.000    563.076    -25.076    515.541    562.355    515.541    516.281    515.541
 82.970    546.000    557.496    -11.496    515.519    556.772    515.519    516.255    515.519
 83.070    598.000    553.933     44.067    515.497    553.205    515.497    516.229    515.497
 83.170    536.000    552.374    -16.374    515.473    551.642    515.473    516.202    515.473
 83.270    580.993    552.721     28.271    515.448    551.985    515.448    516.174    515.448
 83.370    521.937    554.772    -32.835    515.421    554.030    515.421    516.145    515.421
 83.470    571.000    558.207     12.793    515.393    557.461    515.393    516.116    515.393
 83.570    574.731    562.591     12.140    515.364    561.839    515.364    516.085    515.364
 83.670    574.106    567.379      6.727    515.334    566.623    515.334    516.054    515.334
 83.770    613.346    571.948     41.398    515.302    571.188    515.302    516.021    515.302
 83.870    582.000    575.637      6.363    515.269    574.874    515.269    515.988    515.269
 83.970    588.182    577.841     10.341    515.235    577.078    515.235    515.953    515.235
 84.070    553.475    578.132    -24.657    515.199    577.369    515.199    515.918    515.199
 84.170    561.507    576.382    -14.875    515.163    575.621    515.163    515.882    515.163
 84.270    599.000    572.793     26.207    515.125    572.036    515.125    515.844    515.125
 84.370    539.000    567.815    -28.815    515.085    567.061    515.085    515.806    515.085
 84.470    551.688    562.002    -10.314    515.044    561.252    515.044    515.766    515.044
 84.570    560.056    555.896      4.159    515.003    555.150    515.003    515.726    515.003
 84.670    586.000    549.958     36.042    514.959    549.215    514.959    515.684    514.959
 84.770    554.000    544.530      9.470    514.915    543.789    514.915    515.641    514.915
 84.870    534.573    539.833     -5.260    514.869    539.093    514.869    515.598    514.869
 84.970    569.022    535.967     33.055    514.822    535.227    514.822    515.553    514.822
 85.070    568.477    532.938     35.539    514.773    532.197    514.773    515.507    514.773
 85.170    497.519    530.680    -33.160    514.723    529.937    514.723    515.461    514.723
 85.270    501.519    529.089    -27.571    514.672    528.344    514.672    515.413    514.672
 85.370    556.829    528.052     28.777    514.620    527.304    514.620    515.364    514.620
 85.470    559.000    527.466     31.534    514.566    526.713    514.566    515.314    514.566
 85.570    518.000    527.252     -9.252    514.511    526.495    514.511    515.263    514.511
 85.670    555.000    527.370     27.630    514.454    526.608    514.454    515.211    514.454
 85.770    546.084    527.817     18.267    514.397    527.049    514.397    515.158    514.397
 85.870    510.000    528.634    -18.634    514.338    527.861    514.338    515.104    514.338
 85.970    491.141    529.909    -38.767    514.277    529.128    514.277    515.049    514.277
 86.070    499.000    531.767    -32.767    514.216    530.978    514.216    514.993    514.216
 86.170    498.516    534.374    -35.858    514.153    533.576    514.153    514.936    514.153
 86.270    507.000    537.919    -30.919    514.089    537.110    514.089    514.878    514.089
 86.370    580.703    542.596     38.107    514.023    541.774    514.023    514.819    514.023
 86.470    569.000    548.575     20.425    513.956    547.739    513.956    514.759    513.956
 86.570    513.318    555.966    -42.648    513.888    555.114    513.888    514.698    513.888
 86.670    535.870    564.775    -28.905    513.818    563.905    513.818    514.636    513.818
 86.770    621.000    574.864     46.136    513.747    573.974    513.747    514.574    513.747
 86.870    585.000    585.909     -0.909    513.675    584.998    513.675    514.510    513.675
 86.970    575.208    597.418    -22.210    513.602    596.487    513.602    514.445    513.602
 87.070    604.556    608.703     -4.147    513.527    607.751    513.527    514.380    513.527
 87.170    649.000    618.900     30.100    513.451    617.930    513.451    514.314    513.451
 87.270    651.000    627.075     23.925    513.373    626.089    513.373    514.247    513.373
 87.370    623.000    632.357     -9.357    513.295    631.358    513.295    514.179    513.295
 87.470    624.188    634.144     -9.957    513.214    633.137    513.214    514.110    513.214
 87.570    674.000    632.281     41.719    513.133    631.268    513.133    514.041    513.133
 87.670    636.000    627.104      8.896    513.050    626.089    513.050    513.971    513.050
 87.770    668.000    619.335     48.665    512.966    618.319    512.966    513.900    512.966
 87.870    655.996    609.904     46.092    512.881    608.887    512.881    513.828    512.881
 87.970    564.606    599.788    -35.182    512.794    598.770    512.794    513.756    512.794
 88.070    635.000    589.908     45.092    512.706    588.888    512.706    513.684    512.706
 88.170    600.000    581.061     18.939    512.617    580.037    512.617    513.611    512.617
 88.270    607.000    573.870     33.130    512.527    572.840    512.527    513.537    512.527
 88.370    536.000    568.765    -32.765    512.435    567.726    512.435    513.463    512.435
 88.470    595.000    565.972     29.028    512.342    564.922    512.342    513.389    512.342
 88.570    590.262    565.521     24.741    512.247    564.460    512.247    513.315    512.247
 88.670    585.000    567.259     17.741    512.152    566.185    512.152    513.240    512.152
 88.770    574.000    570.870      3.130    512.055    569.781    512.055    513.165    512.055
 88.870    594.000    575.893     18.107    511.956    574.787    511.956    513.090    511.956
 88.970    633.000    581.749     51.251    511.857    580.626    511.857    513.015    511.857
 89.070    574.000    587.770    -13.770    511.756    586.628    511.756    512.941    511.756
 89.170    563.647    593.234    -29.588    511.653    592.071    511.653    512.867    511.653
 89.270    579.072    597.429    -18.357    511.550    596.242    511.550    512.793    511.550
 89.370    616.000    599.741     16.259    511.445    598.527    511.445    512.720    511.445
 89.470    611.000    599.777     11.223    511.339    598.533    511.339    512.646    511.339
 89.570    569.308    597.455    -28.147    511.232    596.176    511.232    512.574    511.232
 89.670    547.000    593.013    -46.013    511.123    591.693    511.123    512.504    511.123
 89.770    572.506    586.922    -14.416    511.014    585.557    511.014    512.435    511.014
 89.870    555.000    579.761    -24.761    510.902    578.346    510.902    512.368    510.902
 89.970    552.598    572.112    -19.515    510.790    570.644    510.790    512.303    510.790
 90.070    573.165    564.491      8.674    510.676    562.965    510.676    512.241    510.676
 90.170    547.000    557.308    -10.308    510.562    555.721    510.562    512.181    510.562
 90.270    542.000    550.860     -8.860    510.445    549.206    510.445    512.124    510.445
 90.370    584.362    545.322     39.040    510.328    543.598    510.328    512.071    510.328
 90.470    524.649    540.768    -16.119    510.209    538.968    510.209    512.024    510.209
 90.570    576.000    537.183     38.817    510.090    535.301    510.090    511.982    510.090
 90.670    538.359    534.492      3.867    509.968    532.521    509.968    511.947    509.968
 90.770    528.000    532.587     -4.587    509.846    530.517    509.846    511.922    509.846
 90.870    509.000    531.351    -22.351    509.723    529.169    509.723    511.908    509.723
 90.970    547.266    530.676     16.591    509.598    528.365    509.598    511.910    509.598
 91.070    529.000    530.476     -1.476    509.472    528.016    509.472    511.932    509.472
 91.170    529.000    530.704     -1.704    509.345    528.066    509.345    511.982    509.345
 91.270    510.000    531.349    -21.349    509.216    528.495    509.216    512.068    509.216
 91.370    523.000    532.447     -9.447    509.087    529.328    509.087    512.203    509.087
 91.470    477.000    534.073    -57.073    508.956    530.625    508.956    512.400    508.956
 91.570    535.000    536.318     -1.318    508.824    532.457    508.824    512.679    508.824
 91.670    514.000    539.423    -25.423    508.691    535.043    508.691    513.063    508.691
 91.770    547.000    543.587      3.413    508.556    538.557    508.556    513.577    508.556
 91.870    573.000    549.036     23.964    508.421    543.193    508.421    514.251    508.421
 91.970    550.000    556.020     -6.020    508.284    549.174    508.284    515.114    508.284
 92.070    574.000    564.784      9.216    508.146    556.711    508.146    516.198    508.146
 92.170    613.255    575.537     37.719    508.007    565.988    508.007    517.529    508.007
 92.270    545.000    588.428    -43.428    507.867    577.132    507.867    519.130    507.867
 92.370    583.000    603.501    -20.501    507.725    590.175    507.725    521.013    507.725
 92.470    643.000    620.681     22.319    507.583    605.041    507.583    523.177    507.583
 92.570    627.029    639.741    -12.711    507.439    621.523    507.439    525.604    507.439
 92.670    652.000    660.294     -8.294    507.295    639.273    507.295    528.256    507.295
 92.770    683.959    681.785      2.174    507.149    657.795    507.149    531.072    507.149
 92.870    738.000    703.507     34.493    507.002    676.473    507.002    533.964    507.002
 92.970    731.000    724.656      6.344    506.854    694.616    506.854    536.817    506.854
 93.070    749.000    744.426      4.574    506.704    711.568    506.704    539.485    506.704
 93.170    725.000    762.153    -37.153    506.554    726.832    506.554    541.796    506.554
 93.270    775.450    777.423     -1.973    506.403    740.178    506.403    543.569    506.403
 93.370    757.824    790.119    -32.295    506.250    751.657    506.250    544.634    506.250
 93.470    795.000    800.386     -5.386    506.097    761.534    506.097    544.873    506.097
 93.570    815.000    808.553      6.447    505.942    770.176    505.942    544.246    505.942
 93.670    822.251    815.049      7.201    505.786    777.960    505.786    542.804    505.786
 93.770    871.000    820.408     50.592    505.630    785.292    505.630    540.677    505.630
 93.870    800.000    825.266    -25.266    505.472    792.634    505.472    538.037    505.472
 93.970    817.000    830.345    -13.345    505.313    800.527    505.313    535.067    505.313
 94.070    857.912    836.350     21.563    505.153    809.507    505.153    531.934    505.153
 94.170    842.000    843.796     -1.796    504.992    819.950    504.992    528.779    504.992
 94.270    838.000    852.837    -14.837    504.830    831.894    504.830    525.716    504.830
 94.370    871.000    863.141      7.859    504.667    844.924    504.667    522.830    504.667
 94.470    901.000    873.865     27.135    504.504    858.142    504.504    520.176    504.504
 94.570    918.000    883.721     34.279    504.339    870.223    504.339    517.790    504.339
 94.670    951.000    891.109     59.891    504.173    879.555    504.173    515.687    504.173
 94.770    913.334    894.354     18.981    504.006    884.461    504.006    513.866    504.006
 94.870    934.000    892.021     41.979    503.838    883.522    503.838    512.314    503.838
 94.970    909.000    883.259     25.741    503.669    875.907    503.669    511.007    503.669
 95.070    916.769    868.033     48.737    503.500    861.609    503.500    509.917    503.500
 95.170    898.000    847.146     50.854    503.329    841.461    503.329    509.015    503.329
 95.270    834.000    822.050     11.950    503.158    816.945    503.158    508.270    503.158
 95.370    814.000    794.577     19.423    502.985    789.919    502.985    507.653    502.985
 95.470    747.000    766.693    -19.693    502.812    762.377    502.812    507.140    502.812
 95.570    767.000    740.333     26.667    502.638    736.276    502.638    506.707    502.638
 95.670    714.000    717.300     -3.300    502.463    713.435    502.463    506.338    502.463
 95.770    708.000    699.214      8.786    502.287    695.489    502.287    506.018    502.287
 95.870    730.280    687.481     42.799    502.110    683.856    502.110    505.735    502.110
 95.970    636.057    683.285    -47.228    501.932    679.729    501.932    505.482    501.932
 96.070    642.000    687.653    -45.653    501.753    684.140    501.753    505.252    501.753
 96.170    679.000    701.378    -22.378    501.574    697.888    501.574    505.040    501.574
 96.270    759.405    725.043     34.362    501.394    721.559    501.394    504.844    501.394
 96.370    713.000    758.986    -45.986    501.213    755.493    501.213    504.661    501.213
 96.470    802.000    803.227     -1.227    501.031    799.712    501.031    504.490    501.031
 96.570    839.485    857.358    -17.874    500.848    853.810    500.848    504.329    500.848
 96.670    905.000    920.448    -15.448    500.665    916.856    500.665    504.179    500.665
 96.770    968.000    990.946    -22.946    500.481    987.302    500.481    504.038    500.481
 96.870   1013.012   1066.620    -53.608    500.296   1062.916    500.296    503.907    500.296
 96.970   1154.000   1144.537      9.463    500.110   1140.765    500.110    503.785    500.110
 97.070   1163.000   1221.098    -58.098    499.924   1217.251    499.924    503.673    499.924
 97.170   1293.000   1292.157      0.843    499.737   1288.228    499.737    503.572    499.737
 97.270   1308.169   1353.262    -45.094    499.549   1349.246    499.549    503.481    499.549
 97.370   1459.047   1400.087     58.960    499.361   1395.976    499.361    503.402    499.361
 97.470   1456.000   1429.032     26.968    499.172   1424.816    499.172    503.335    499.172
 97.570   1376.933   1437.888    -60.956    498.982   1433.558    498.982    503.282    498.982
 97.670   1410.317   1426.290    -15.973    498.791   1421.830    498.791    503.243    498.791
 97.770   1441.502   1395.732     45.770    498.600   1391.123    498.600    503.221    498.600
 97.870   1353.000   1349.167      3.833    498.408   1344.388    498.408    503.218    498.408
 97.970   1312.390   1290.425     21.965    498.216   1285.449    498.216    503.237    498.216
 98.070   1269.033   1223.673     45.360    498.023   1218.468    498.023    503.282    498.023
 98.170   1124.073   1153.031    -28.959    497.829   1147.560    497.829    503.359    497.829
 98.270   1138.000   1082.334     55.666    497.635   1076.553    497.635    503.477    497.635
 98.370   1035.000   1014.984     20.016    497.441   1008.839    497.441    503.644    497.441
 98.470    894.000    953.876    -59.876    497.245    947.299    497.245    503.876    497.245
 98.570    940.343    901.382     38.961    497.050    894.287    497.050    504.191    497.050
 98.670    871.000    859.374     11.626    496.853    851.651    496.853    504.613    496.853
 98.770    809.000    829.275    -20.275    496.657    820.786    496.657    505.172    496.657
 98.870    816.472    812.137      4.335    496.459    802.704    496.459    505.909    496.459
 98.970    728.000    808.717    -80.717    496.261    798.114    496.261    506.872    496.261
 99.070    853.000    819.536     33.464    496.063    807.480    496.063    508.118    496.063
 99.170    875.000    844.919     30.081    495.865    831.058    495.865    509.715    495.865
 99.270    924.502    884.984     39.519    495.665    868.892    495.665    511.741    495.665
 99.370    894.882    939.602    -44.720    495.466    920.767    495.466    514.279    495.466
 99.470   1053.564   1008.318     45.246    495.266    986.140    495.266    517.419    495.266
 99.570   1096.000   1090.247      5.753    495.066   1064.040    495.066    521.249    495.066
 99.670   1226.000   1184.018     41.982    494.865   1153.013    494.865    525.850    494.865
 99.770   1302.000   1287.622     14.378    494.664   1250.982    494.664    531.290    494.664
 99.870   1356.260   1398.357    -42.097    494.463   1355.201    494.463    537.617    494.463
 99.970   1445.000   1512.829    -67.829    494.261   1462.258    494.261    544.845    494.261
100.070   1613.000   1627.013    -14.013    494.059   1568.151    494.059    552.954    494.059
100.170   1776.000   1736.450     39.550    493.857   1668.491    493.857    561.871    493.857
100.270   1783.175   1836.595    -53.421    493.654   1758.857    493.654    571.474    493.654
100.370   1896.760   1923.231    -26.471    493.451   1835.213    493.451    581.578    493.451
100.470   2030.557   1992.829     37.729    493.248   1894.280    493.248    591.931    493.248
100.570   2025.000   2042.713    -17.713    493.045   1933.701    493.045    602.216    493.045
100.670   2131.719   2071.040     60.679    492.841   1952.017    492.841    612.044    492.841
100.770   2118.530   2076.734     41.796    492.638   1948.604    492.638    620.965    492.638
100.870   2097.000   2059.573     37.427    492.434   1923.729    492.434    628.490    492.434
100.970   2001.947   2020.435    -18.488    492.230   1878.754    492.230    634.130    492.230
101.070   1996.000   1961.546     34.454    492.026   1816.327    492.026    637.466    492.026
101.170   1893.000   1886.496      6.504    491.821   1740.318    491.821    638.218    491.821
101.270   1792.000   1799.926     -7.926    491.617   1655.447    491.617    636.307    491.617
101.370   1642.000   1706.973    -64.973    491.412   1566.709    491.412    631.874    491.412
101.470   1563.114   1612.673    -49.560    491.208   1478.819    491.208    625.246    491.208
101.570   1583.000   1521.493     61.507    491.003   1395.793    491.003    616.870    491.003
101.670   1484.239   1437.009     47.230    490.799   1320.717    490.799    607.241    490.799
101.770   1422.577   1361.756     60.821    490.594   1255.642    490.594    596.842    490.594
101.870   1321.000   1297.180     23.820    490.389   1201.583    490.389    586.106    490.389
101.970   1287.998   1243.672     44.326    490.185   1158.562    490.185    575.401    490.185
102.070   1172.350   1200.661    -28.311    489.980   1125.709    489.980    565.028    489.980
102.170   1142.000   1166.749    -24.749    489.776   1101.398    489.776    555.216    489.776
102.270   1130.000   1139.897     -9.897    489.572   1083.421    489.572    546.132    489.572
102.370   1056.000   1117.641    -61.641    489.367   1069.207    489.367    537.884    489.367
102.470   1094.000   1097.374     -3.374    489.163   1056.092    489.163    530.527    489.163
102.570   1050.000   1076.659    -26.659    488.959   1041.629    488.959    524.072    488.959
102.670   1083.617   1053.545     30.073    488.755   1023.891    488.755    518.493    488.755
102.770   1020.000   1026.798     -6.798    488.552   1001.699    488.552    513.736    488.552
102.870    996.000    995.986      0.014    488.348    974.691    488.348    509.728    488.348
102.970   1020.000    961.382     58.618    488.145    943.225    488.145    506.386    488.145
103.070    880.773    923.772    -42.999    487.942    908.176    487.942    503.619    487.942
103.170    873.000    884.232    -11.232    487.739    870.708    487.739    501.341    487.739
103.270    897.072    843.940     53.132    487.537    832.081    487.537    499.468    487.537
103.370    775.835    804.048    -28.213    487.335    793.522    487.335    497.927    487.335
103.470    749.365    765.591    -16.226    487.133    756.132    487.133    496.652    487.133
103.570    747.601    729.435     18.165    486.932    720.832    486.932    495.588    486.932
103.670    679.000    696.242    -17.242    486.731    688.329    486.731    494.689    486.731
103.770    707.000    666.455     40.545    486.530    659.104    486.530    493.920    486.530
103.870    610.039    640.305    -30.267    486.330    633.418    486.330    493.250    486.330
103.970    647.000    617.830     29.170    486.130    611.329    486.130    492.658    486.130
104.070    612.824    598.903     13.920    485.931    592.730    485.931    492.126    485.931
104.170    567.759    583.277    -15.518    485.732    577.385    485.732    491.642    485.732
104.270    556.000    570.623    -14.623    485.534    564.975    485.534    491.195    485.534
104.370    535.478    560.566    -25.088    485.336    555.132    485.336    490.780    485.336
104.470    587.615    552.737     34.878    485.139    547.492    485.139    490.390    485.139
104.570    566.000    546.769     19.231    484.942    541.694    484.942    490.022    484.942
104.670    578.497    542.334     36.163    484.746    537.411    484.746    489.672    484.746
104.770    508.159    539.155    -30.995    484.551    534.368    484.551    489.339    484.551
104.870    553.838    537.006     16.832    484.356    532.341    484.356    489.020    484.356
104.970    554.000    535.720     18.280    484.162    531.165    484.162    488.715    484.162
105.070    542.000    535.178      6.822    483.969    530.722    483.969    488.421    483.969
105.170    551.000    535.315     15.685    483.776    530.947    483.776    488.139    483.776
105.270    563.000    536.107     26.893    483.584    531.818    483.584    487.867    483.584
105.370    523.000    537.573    -14.573    483.393    533.354    483.393    487.605    483.393
105.470    582.336    539.765     42.571    483.202    535.606    483.202    487.351    483.202
105.570    552.000    542.760      9.240    483.013    538.655    483.013    487.107    483.013
105.670    586.000    546.657     39.343    482.824    542.598    482.824    486.870    482.824
105.770    536.000    551.557    -15.557    482.637    547.537    482.637    486.641    482.637
105.870    551.000    557.553     -6.553    482.450    553.564    482.450    486.419    482.450
105.970    588.000    564.714     23.286    482.264    560.751    482.264    486.205    482.264
106.070    576.000    573.071      2.929    482.079    569.128    482.079    485.997    482.079
106.170    602.100    582.605     19.495    481.895    578.676    481.895    485.796    481.895
106.270    562.000    593.235    -31.235    481.712    589.314    481.712    485.601    481.712
106.370    616.222    604.813     11.408    481.530    600.896    481.530    485.412    481.530
106.470    611.800    617.125     -5.325    481.349    613.206    481.349    485.230    481.349
106.570    583.249    629.883    -46.635    481.169    625.959    481.169    485.053    481.169
106.670    619.000    642.741    -23.741    480.990    638.811    480.990    484.878    480.990
106.770    626.000    655.312    -29.312    480.812    651.368    480.812    484.713    480.812
106.870    617.000    667.165    -50.165    480.636    663.202    480.636    484.554    480.636
106.970    652.885    677.867    -24.982    480.460    673.882    480.460    484.401    480.460
107.070    648.000    687.021    -39.021    480.286    683.010    480.286    484.254    480.286
107.170    697.000    694.309      2.691    480.114    690.268    480.114    484.113    480.114
107.270    669.000    699.554    -30.554    479.942    695.480    479.942    483.978    479.942
107.370    657.000    702.752    -45.752    479.772    698.639    479.772    483.849    479.772
107.470    642.000    704.084    -62.084    479.603    699.930    479.603    483.726    479.603
107.570    657.000    703.890    -46.890    479.435    699.690    479.435    483.608    479.435
107.670    725.131    702.599     22.532    479.269    698.357    479.269    483.489    479.269
107.770    675.000    700.700    -25.700    479.104    696.402    479.104    483.384    479.104
107.870    702.000    698.628      3.372    478.941    694.269    478.941    483.286    478.941
107.970    691.000    696.754     -5.754    478.779    692.327    478.779    483.196    478.779
108.070    695.000    695.342     -0.342    478.619    690.843    478.619    483.113    478.619
108.170    681.000    694.539    -13.539    478.460    689.961    478.460    483.037    478.460
108.270    651.184    694.360    -43.176    478.303    689.697    478.303    482.968    478.303
108.370    671.000    694.692    -23.692    478.147    689.937    478.147    482.907    478.147
108.470    663.000    695.303    -32.303    477.993    690.449    477.993    482.855    477.993
108.570    672.000    695.859    -23.859    477.841    690.901    477.841    482.811    477.841
108.670    735.693    695.963     39.730    477.690    690.892    477.690    482.775    477.690
108.770    686.000    695.190     -9.190    477.541    689.999    477.541    482.749    477.541
108.870    686.000    693.152     -7.152    477.394    687.833    477.394    482.733    477.394
108.970    660.000    689.552    -29.552    477.248    684.096    477.248    482.727    477.248
109.070    697.000    684.233     12.767    477.104    678.630    477.104    482.731    477.104
109.170    684.430    677.193      7.236    476.963    671.434    476.963    482.747    476.963
109.270    668.000    668.582     -0.582    476.823    662.655    476.823    482.774    476.823
109.370    642.000    658.662    -16.662    476.685    652.556    476.685    482.814    476.685
109.470    648.000    647.764      0.236    476.548    641.468    476.548    482.868    476.548
109.570    605.586    636.251    -30.665    476.414    629.752    476.414    482.936    476.414
109.670    594.873    624.485    -29.612    476.282    617.769    476.282    483.019    476.282
109.770    638.914    612.803     26.111    476.152    605.856    476.152    483.118    476.152
109.870    645.000    601.505     43.495    476.024    594.311    476.024    483.235    476.024
109.970    641.000    590.824     50.176    475.898    583.365    475.898    483.371    475.898
110.070    580.622    580.990     -0.368    475.774    573.249    475.774    483.528    475.774
110.170    565.030    572.172     -7.142    475.652    564.126    475.652    483.708    475.652
110.270    590.000    564.443     25.557    475.533    556.070    475.533    483.913    475.533
110.370    555.000    557.846     -2.846    475.416    549.119    475.416    484.148    475.416
110.470    532.930    552.381    -19.451    475.301    543.271    475.301    484.415    475.301
110.570    538.000    548.014    -10.014    475.188    538.484    475.188    484.720    475.188
110.670    602.000    544.682     57.318    475.077    534.691    475.077    485.069    475.077
110.770    566.000    542.305     23.695    474.969    531.804    474.969    485.470    474.969
110.870    539.000    540.794     -1.794    474.864    529.723    474.864    485.933    474.864
110.970    568.772    540.057     28.715    474.761    528.344    474.761    486.470    474.761
111.070    578.000    540.007     37.993    474.660    527.565    474.660    487.098    474.660
111.170    525.000    540.567    -15.567    474.562    527.288    474.562    487.835    474.562
111.270    550.000    541.671      8.329    474.466    527.425    474.466    488.706    474.466
111.370    554.000    543.270     10.730    474.373    527.896    474.373    489.741    474.373
111.470    525.000    545.333    -20.333    474.282    528.633    474.282    490.974    474.282
111.570    538.000    547.843     -9.843    474.195    529.580    474.195    492.449    474.195
111.670    530.000    550.806    -20.806    474.109    530.690    474.109    494.216    474.109
111.770    581.511    554.245     27.267    474.027    531.929    474.027    496.334    474.027
111.870    561.199    558.202      2.997    473.947    533.271    473.947    498.868    473.947
111.970    554.000    562.739     -8.739    473.870    534.705    473.870    501.895    473.870
112.070    563.000    567.936     -4.936    473.796    536.226    473.796    505.496    473.796
112.170    530.000    573.890    -43.890    473.725    537.842    473.725    509.761    473.725
112.270    583.484    580.710      2.775    473.657    539.570    473.657    514.785    473.657
112.370    647.000    588.516     58.484    473.591    541.432    473.591    520.664    473.591
112.470    628.996    597.437     31.559    473.529    543.461    473.529    527.492    473.529
112.570    644.416    607.602     36.814    473.470    545.697    473.470    535.361    473.470
112.670    572.000    619.143    -47.143    473.413    548.190    473.413    544.352    473.413
112.770    605.000    632.187    -27.187    473.360    551.002    473.360    554.530    473.360
112.870    632.000    646.860    -14.860    473.310    554.213    473.310    565.941    473.310
112.970    678.000    663.284     14.716    473.263    557.926    473.263    578.604    473.263
113.070    679.732    681.581     -1.850    473.220    562.275    473.220    592.506    473.220
113.170    701.000    701.878     -0.878    473.179    567.437    473.179    607.599    473.179
113.270    732.000    724.315      7.685    473.142    573.644    473.142    623.789    473.142
113.370    746.000    749.058     -3.058    473.108    581.201    473.108    640.939    473.108
113.470    800.298    776.316     23.982    473.078    590.506    473.078    658.858    473.078
113.570    763.686    806.360    -42.675    473.051    602.072    473.051    677.305    473.051
113.670    833.000    839.547     -6.547    473.027    616.555    473.027    695.980    473.027
113.770    879.000    876.346      2.654    473.007    634.778    473.007    714.530    473.007
113.870    954.000    917.367     36.633    472.991    657.764    472.991    732.541    472.991
113.970    950.000    963.395    -13.395    472.978    686.760    472.978    749.551    472.978
114.070    956.312   1015.419    -59.107    472.968    723.258    472.968    765.055    472.968
114.170   1066.000   1074.667     -8.667    472.962    769.014    472.962    778.528    472.962
114.270   1130.000   1142.640    -12.640    472.960    826.043    472.960    789.453    472.960
114.370   1191.000   1221.139    -30.139    472.962    896.611    472.962    797.365    472.962
114.470   1282.000   1312.279    -30.279    472.968    983.198    472.968    801.899    472.968
114.570   1353.692   1418.472    -64.780    472.977   1088.438    472.977    802.833    472.977
114.670   1548.000   1542.371      5.629    472.990   1215.030    472.990    800.121    472.990
114.770   1706.000   1686.760     19.240    473.007   1365.622    473.007    793.898    473.007
114.870   1927.000   1854.388     72.612    473.028   1542.668    473.028    784.460    473.028
114.970   2150.000   2047.759    102.241    473.053   1748.250    473.053    772.229    473.053
115.070   2311.498   2268.897     42.601    473.082   1983.896    473.082    757.701    473.082
115.170   2556.000   2519.097     36.903    473.115   2250.378    473.115    741.403    473.115
115.270   2879.795   2798.695     81.100    473.153   2547.514    473.153    723.852    473.153
115.370   3189.826   3106.865     82.962    473.194   2873.991    473.194    705.536    473.194
115.470   3495.843   3441.448     54.394    473.240   3227.217    473.240    686.893    473.240
115.570   3692.114   3798.847   -106.733    473.289   3603.210    473.289    668.307    473.289
115.670   4102.000   4173.968    -71.968    473.344   3996.552    473.344    650.106    473.344
115.770   4481.225   4560.230    -79.005    473.402   4400.394    473.402    632.560    473.402
115.870   4706.000   4949.643   -243.643    473.465   4806.532    473.465    615.885    473.465
115.970   5268.000   5332.958    -64.958    473.532   5205.556    473.532    600.245    473.532
116.070   5639.000   5699.890    -60.890    473.604   5587.066    473.604    585.756    473.604
116.170   6042.000   6039.433      2.567    473.680   5939.988    473.680    572.487    473.680
116.270   6335.439   6340.289     -4.849    473.761   6252.994    473.761    560.470    473.761
116.370   6546.000   6591.433    -45.433    473.847   6515.061    473.847    549.702    473.847
116.470   6845.974   6782.829     63.145    473.937   6716.186    473.937    540.148    473.937
116.570   6704.000   6906.240   -202.240    474.032   6848.185    474.032    531.753    474.032
116.670   7080.000   6956.043    123.957    474.131   6905.506    474.131    524.442    474.131
116.770   7050.000   6929.855    120.145    474.236   6885.846    474.236    518.130    474.236
116.870   6758.734   6828.805    -70.071    474.345   6790.423    474.345    512.724    474.345
116.970   6754.000   6657.372     96.628    474.459   6623.807    474.459    508.126    474.459
117.070   6403.000   6422.860    -19.860    474.578   6393.393    474.578    504.242    474.578
117.170   6205.000   6134.655     70.345    474.702   6108.656    474.702    500.979    474.702
117.270   5878.457   5803.314     75.143    474.831   5780.238    474.831    498.251    474.831
117.370   5316.000   5439.898   -123.898    474.966   5419.277    474.966    495.980    474.966
117.470   4976.000   5055.355    -79.355    475.105   5036.793    475.105    494.094    475.105
117.570   4756.753   4660.066     96.687    475.250   4643.230    475.250    492.531    475.250
117.670   4274.017   4263.503     10.514    475.399   4248.116    475.399    491.236    475.399
117.770   3973.000   3873.996     99.004    475.554   3859.827    475.554    490.164    475.554
117.870   3471.032   3498.568    -27.536    475.715   3485.430    475.715    489.275    475.715
117.970   3221.000   3142.861     78.139    475.880   3130.601    475.880    488.537    475.880
118.070   2930.000   2811.118    118.882    476.052   2799.610    476.052    487.922    476.052
118.170   2565.000   2506.236     58.764    476.228   2495.379    476.228    487.411    476.228
118.270   2214.245   2229.870    -15.626    476.410   2219.583    476.410    486.985    476.410
118.370   2010.000   1982.574     27.426    476.598   1972.791    476.598    486.629    476.598
118.470   1727.664   1763.967    -36.303    476.791   1754.634    476.791    486.334    476.791
118.570   1500.000   1572.915    -72.915    476.990   1563.990    476.990    486.091    476.990
118.670   1418.159   1407.711     10.448    477.195   1399.157    477.195    485.891    477.195
118.770   1281.617   1266.247     15.370    477.406   1258.036    477.406    485.731    477.406
118.870   1158.000   1146.180     11.820    477.622   1138.286    477.622    485.605    477.622
118.970   1024.000   1045.070    -21.070    477.844   1037.472    477.844    485.511    477.844
119.070    965.000    960.496      4.504    478.073    953.174    478.073    485.446    478.073
119.170    861.035    890.147    -29.112    478.307    883.084    478.307    485.407    478.307
119.270    857.000    831.886     25.114    478.547    825.066    478.547    485.394    478.547
119.370    805.584    783.787     21.797    478.793    777.195    478.793    485.404    478.793
119.470    703.000    744.157    -41.157    479.046    737.779    479.046    485.437    479.046
119.570    669.000    711.536    -42.536    479.305    705.358    479.305    485.492    479.305
119.670    717.625    684.686     32.939    479.569    678.693    479.569    485.568    479.569
119.770    620.241    662.575    -42.335    479.841    656.754    479.841    485.666    479.841
119.870    664.000    644.355     19.645    480.118    638.691    480.118    485.785    480.118
119.970    630.697    629.335      1.361    480.402    623.815    480.402    485.925    480.402
120.070    612.000    616.961     -4.961    480.693    611.570    480.693    486.087    480.693
120.170    572.962    606.789    -33.826    480.990    601.512    480.990    486.270    480.990
120.270    590.000    598.468     -8.468    481.293    593.289    481.293    486.475    481.293
120.370    585.000    591.722     -6.722    481.604    586.626    481.604    486.703    481.604
120.470    605.752    586.335     19.418    481.920    581.305    481.920    486.954    481.920
120.570    582.000    582.137     -0.137    482.244    577.157    482.244    487.229    482.244
120.670    558.000    578.999    -20.999    482.574    574.049    482.574    487.528    482.574
120.770    555.000    576.816    -21.816    482.912    571.879    482.912    487.854    482.912
120.870    535.000    575.508    -40.508    483.256    570.565    483.256    488.205    483.256
120.970    568.000    575.011     -7.011    483.607    570.041    483.607    488.584    483.607
121.070    610.340    575.270     35.070    483.965    570.253    483.965    488.990    483.965
121.170    531.000    576.239    -45.239    484.330    571.154    484.330    489.425    484.330
121.270    616.370    577.872     38.499    484.703    572.698    484.703    489.887    484.703
121.370    534.755    580.123    -45.369    485.082    574.840    485.082    490.378    485.082
121.470    622.328    582.945     39.383    485.469    577.531    485.469    490.898    485.469
121.570    613.000    586.283     26.717    485.863    580.718    485.863    491.444    485.863
121.670    571.000    590.074    -19.074    486.265    584.340    486.265    492.018    486.265
121.770    636.088    594.249     41.839    486.674    588.327    486.674    492.616    486.674
121.870    568.000    598.728    -30.728    487.090    592.604    487.090    493.237    487.090
121.970    575.000    603.423    -28.423    487.514    597.083    487.514    493.880    487.514
122.070    583.483    608.237    -24.754    487.946    601.670    487.946    494.540    487.946
122.170    610.000    613.062     -3.062    488.385    606.263    488.385    495.216    488.385
122.270    563.000    617.789    -54.789    488.832    610.752    488.832    495.902    488.832
122.370    598.000    622.299    -24.299    489.287    615.027    489.287    496.595    489.287
122.470    602.082    626.476    -24.394    489.749    618.975    489.749    497.290    489.749
122.570    609.000    630.207    -21.207    490.220    622.488    490.220    497.981    490.220
122.670    593.525    633.388    -39.863    490.698    625.467    490.698    498.662    490.698
122.770    615.000    635.929    -20.929    491.185    627.830    491.185    499.328    491.185
122.870    675.980    637.762     38.219    491.679    629.514    491.679    499.973    491.679
122.970    657.043    638.844     18.199    492.182    630.483    492.182    500.590    492.182
123.070    683.185    639.161     44.024    492.693    630.726    492.693    501.175    492.693
123.170    677.000    638.726     38.274    493.212    630.261    493.212    501.724    493.212
123.270    656.336    637.576     18.760    493.739    629.128    493.739    502.234    493.739
123.370    626.542    635.771     -9.229    494.275    627.387    494.275    502.704    494.275
123.470    639.000    633.382      5.618    494.819    625.111    494.819    503.134    494.819
123.570    637.000    630.493      6.507    495.372    622.380    495.372    503.526    495.372
123.670    664.000    627.192     36.808    495.933    619.278    495.933    503.886    495.933
123.770    670.041    623.570     46.470    496.503    615.891    496.503    504.219    496.503
123.870    598.000    619.713    -21.713    497.082    612.299    497.082    504.530    497.082
123.970    641.000    615.701     25.299    497.670    608.577    497.670    504.824    497.670
124.070    639.844    611.608     28.236    498.266    604.793    498.266    505.108    498.266
124.170    639.822    607.498     32.324    498.871    601.006    498.871    505.387    498.871
124.270    607.000    603.424      3.576    499.485    597.264    499.485    505.668    499.485
124.370    619.000    599.429     19.571    500.109    593.603    500.109    505.953    500.109
124.470    601.000    595.543      5.457    500.741    590.050    500.741    506.249    500.741
124.570    592.000    591.785      0.215    501.382    586.621    501.382    506.560    501.382
124.670    543.532    588.167    -44.635    502.033    583.325    502.033    506.887    502.033
124.770    558.354    584.693    -26.339    502.693    580.161    502.693    507.235    502.693
124.870    587.000    581.360      5.640    503.362    577.125    503.362    507.605    503.362
124.970    567.000    578.165    -11.165    504.041    574.212    504.041    508.000    504.041
