neutron_powder_diffraction_0013
R_wp: 3.577
Temperature (K): 464.434
Counts: 83587.00
Wavelength (Ã…): 2.52098
COMMENTS
Test file for demonstrating the .xyy file format in Reel1.0
END OF HEADER
   tth       Y_obs     Y_calc      Y_res    Background    Phase_1_Nuc    Phase_1_Mag    Phase_2_Nuc    Phase_2_Mag
  9.970    779.000    739.750     39.250    738.013    739.017    738.745    738.013    738.013
 10.070    690.545    738.573    -48.028    736.748    737.833    737.488    736.748    736.748
 10.170    698.647    737.415    -38.768    735.491    736.666    736.239    735.491    735.491
 10.270    786.000    736.277     49.723    734.240    735.520    734.997    734.240    734.240
 10.370    681.004    735.162    -54.158    732.998    734.397    733.762    732.998    732.998
 10.470    731.000    734.074     -3.074    731.762    733.300    732.534    731.762    731.762
 10.570    765.325    733.016     32.309    730.533    732.234    731.314    730.533    730.533
 10.670    699.081    731.994    -32.914    729.312    731.204    730.101    729.312    729.312
 10.770    762.000    731.016     30.984    728.098    730.217    728.896    728.098    728.098
 10.870    702.844    730.091    -27.246    726.891    729.283    727.698    726.891    726.891
 10.970    710.000    729.232    -19.232    725.691    728.414    726.507    725.691    725.691
 11.070    772.000    728.457     43.543    724.498    727.630    725.323    724.498    724.498
 11.170    727.821    727.794      0.027    723.312    726.957    724.146    723.312    723.312
 11.270    784.000    727.315     56.685    722.133    726.468    722.977    722.133    722.133
 11.370    759.000    727.116     31.884    720.962    726.260    721.815    720.962    720.962
 11.470    769.000    727.130     41.870    719.797    726.263    720.661    719.797    719.797
 11.570    721.000    727.680     -6.680    718.639    726.802    719.513    718.639    718.639
 11.670    754.000    729.304     24.696    717.489    728.414    718.373    717.489    717.489
 11.770    801.000    733.097     67.903    716.345    732.194    717.239    716.345    716.345
 11.870    794.000    740.956     53.044    715.208    740.038    716.113    715.208    715.208
 11.970    841.000    755.245     85.755    714.078    754.307    714.994    714.078    714.078
 12.070    773.250    777.353     -4.102    712.955    776.392    713.882    712.955    712.955
 12.170    765.426    804.910    -39.484    711.839    803.923    712.777    711.839    711.839
 12.270    872.906    828.612     44.294    710.730    827.600    711.679    710.730    710.730
 12.370    832.000    834.230     -2.230    709.628    833.203    710.588    709.628    709.628
 12.470    798.000    816.429    -18.429    708.532    815.399    709.504    708.532    708.532
 12.570    766.975    786.763    -19.788    707.443    785.737    708.427    707.443    707.443
 12.670    790.767    758.742     32.024    706.361    757.719    707.357    706.361    706.361
 12.770    730.000    738.134     -8.134    705.286    737.109    706.294    705.286    705.286
 12.870    671.222    725.032    -53.811    704.217    724.001    705.238    704.217    704.217
 12.970    698.000    717.266    -19.266    703.156    716.226    704.189    703.156    703.156
 13.070    676.000    712.560    -36.560    702.100    711.509    703.147    702.100    702.100
 13.170    754.265    709.394     44.871    701.052    708.330    702.111    701.052    701.052
 13.270    662.000    706.984    -44.984    700.010    705.908    701.083    700.010    700.010
 13.370    743.175    704.981     38.194    698.975    703.892    700.062    698.975    698.975
 13.470    707.000    703.228      3.772    697.946    702.125    699.047    697.946    697.946
 13.570    674.000    701.647    -27.647    696.924    700.530    698.040    696.924    696.924
 13.670    707.000    700.193      6.807    695.909    699.061    697.039    695.909    695.909
 13.770    659.000    698.834    -39.834    694.900    697.687    696.045    694.900    694.900
 13.870    654.338    697.549    -43.212    693.898    696.388    695.058    693.898    693.898
 13.970    741.000    696.333     44.667    692.902    695.156    694.078    692.902    692.902
 14.070    716.000    695.174     20.826    691.913    693.981    693.105    691.913    691.913
 14.170    692.000    694.037     -2.037    690.930    692.828    692.138    690.930    690.930
 14.270    705.433    692.930     12.503    689.953    691.705    691.178    689.953    689.953
 14.370    695.000    691.852      3.148    688.983    690.609    690.225    688.983    688.983
 14.470    717.000    690.797     26.203    688.020    689.538    689.279    688.020    688.020
 14.570    682.000    689.764     -7.764    687.063    688.487    688.339    687.063    687.063
 14.670    675.000    688.750    -13.750    686.112    687.455    687.406    686.112    686.112
 14.770    691.687    687.757      3.930    685.167    686.444    686.480    685.167    685.167
 14.870    687.491    686.776      0.716    684.229    685.444    685.560    684.229    684.229
 14.970    661.226    685.807    -24.582    683.297    684.456    684.648    683.297    683.297
 15.070    673.697    684.852    -11.155    682.372    683.482    683.742    682.372    682.372
 15.170    686.000    683.909      2.091    681.452    682.519    682.842    681.452    681.452
 15.270    676.181    682.977     -6.797    680.539    681.567    681.950    680.539    680.539
 15.370    635.000    682.057    -47.057    679.633    680.625    681.064    679.633    679.633
 15.470    677.000    681.146     -4.146    678.732    679.693    680.184    678.732    678.732
 15.570    668.198    680.245    -12.048    677.837    678.771    679.312    677.837    677.837
 15.670    675.000    679.354     -4.354    676.949    677.857    678.446    676.949    676.949
 15.770    669.000    678.472     -9.472    676.067    676.953    677.587    676.067    676.067
 15.870    696.904    677.599     19.305    675.191    676.056    676.734    675.191    675.191
 15.970    661.000    676.735    -15.735    674.321    675.168    675.888    674.321    674.321
 16.070    626.000    675.879    -49.879    673.457    674.288    675.049    673.457    673.457
 16.170    669.453    675.034     -5.581    672.600    673.417    674.216    672.600    672.600
 16.270    679.000    674.200      4.800    671.748    672.558    673.390    671.748    671.748
 16.370    627.371    673.369    -45.998    670.902    671.700    672.571    670.902    670.902
 16.470    672.000    672.545     -0.545    670.063    670.850    671.758    670.063    670.063
 16.570    678.000    671.730      6.270    669.229    670.007    670.952    669.229    669.229
 16.670    634.722    670.922    -36.200    668.401    669.170    670.152    668.401    668.401
 16.770    681.000    670.121     10.879    667.579    668.341    669.359    667.579    667.579
 16.870    651.000    669.330    -18.330    666.764    667.519    668.573    666.764    666.764
 16.970    679.705    668.555     11.150    665.954    666.713    667.795    665.954    665.954
 17.070    619.000    667.789    -48.789    665.150    665.916    667.023    665.150    665.150
 17.170    683.463    667.084     16.379    664.351    665.176    666.259    664.351    664.351
 17.270    679.000    666.337     12.663    663.559    664.396    665.500    663.559    663.559
 17.370    654.000    665.609    -11.609    662.772    663.634    664.747    662.772    662.772
 17.470    627.000    664.866    -37.866    661.992    662.857    664.001    661.992    661.992
 17.570    704.653    664.126     40.527    661.217    662.081    663.261    661.217    661.217
 17.670    664.118    663.392      0.725    660.447    661.311    662.529    660.447    660.447
 17.770    672.599    662.666      9.933    659.684    660.547    661.803    659.684    659.684
 17.870    666.000    661.947      4.053    658.926    659.790    661.083    658.926    658.926
 17.970    651.000    661.235    -10.235    658.174    659.039    660.371    658.174    658.174
 18.070    620.183    660.531    -40.348    657.428    658.294    659.665    657.428    657.428
 18.170    705.084    659.834     45.251    656.687    657.555    658.966    656.687    656.687
 18.270    596.000    659.144    -63.144    655.952    656.822    658.274    655.952    655.952
 18.370    674.000    658.462     15.538    655.223    656.095    657.589    655.223    655.223
 18.470    627.000    657.787    -30.787    654.499    655.374    656.911    654.499    654.499
 18.570    665.000    657.121      7.879    653.780    654.661    656.240    653.780    653.780
 18.670    661.000    656.462      4.538    653.068    653.954    655.575    653.068    653.068
 18.770    656.000    655.820      0.180    652.361    653.263    654.918    652.361    652.361
 18.870    636.322    655.181    -18.859    651.659    652.571    654.269    651.659    651.659
 18.970    645.272    654.584     -9.312    650.963    651.908    653.639    650.963    650.963
 19.070    649.000    653.994     -4.994    650.272    651.250    653.016    650.272    650.272
 19.170    611.000    653.375    -42.375    649.587    650.574    652.388    649.587    649.587
 19.270    671.151    652.761     18.390    648.907    649.901    651.766    648.907    648.907
 19.370    676.000    652.158     23.842    648.233    649.239    651.152    648.233    648.233
 19.470    666.203    651.582     14.621    647.564    648.600    650.546    647.564    647.564
 19.570    663.000    650.993     12.007    646.900    647.948    649.946    646.900    646.900
 19.670    637.000    650.410    -13.410    646.242    647.298    649.354    646.242    646.242
 19.770    673.799    649.837     23.962    645.589    646.657    648.769    645.589    645.589
 19.870    620.000    649.292    -29.292    644.941    646.039    648.194    644.941    644.941
 19.970    640.000    648.777     -8.777    644.299    645.431    647.645    644.299    644.299
 20.070    640.000    648.255     -8.255    643.662    644.823    647.094    643.662    643.662
 20.170    695.839    647.721     48.117    643.030    644.210    646.541    643.030    643.030
 20.270    652.888    647.242      5.646    642.404    643.649    645.997    642.404    642.404
 20.370    683.000    646.762     36.238    641.783    643.084    645.461    641.783    641.783
 20.470    628.000    646.252    -18.252    641.167    642.487    644.932    641.167    641.167
 20.570    621.097    645.749    -24.652    640.556    641.893    644.411    640.556    640.556
 20.670    638.000    645.256     -7.256    639.950    641.306    643.900    639.950    639.950
 20.770    679.755    644.796     34.959    639.349    640.748    643.397    639.349    639.349
 20.870    642.000    644.342     -2.342    638.754    640.193    642.903    638.754    638.754
 20.970    613.000    643.880    -30.880    638.163    639.626    642.418    638.163    638.163
 21.070    596.000    643.440    -47.440    637.578    639.076    641.942    637.578    637.578
 21.170    673.299    643.008     30.291    636.998    638.527    641.479    636.998    636.998
 21.270    653.000    642.583     10.417    636.423    637.980    641.026    636.423    636.423
 21.370    574.000    642.163    -68.163    635.852    637.437    640.578    635.852    635.852
 21.470    671.267    641.753     29.514    635.287    636.899    640.141    635.287    635.287
 21.570    683.000    641.354     41.646    634.727    636.369    639.713    634.727    634.727
 21.670    651.000    640.967     10.033    634.172    635.843    639.296    634.172    634.172
 21.770    667.000    640.593     26.407    633.622    635.325    638.890    633.622    633.622
 21.870    600.083    640.233    -40.150    633.076    634.814    638.495    633.076    633.076
 21.970    610.000    639.886    -29.886    632.536    634.310    638.112    632.536    632.536
 22.070    640.000    639.555      0.445    632.000    633.814    637.741    632.000    632.000
 22.170    673.309    639.241     34.068    631.469    633.329    637.382    631.469    631.469
 22.270    636.000    638.948     -2.948    630.943    632.854    637.037    630.943    630.943
 22.370    625.000    638.669    -13.669    630.422    632.386    636.705    630.422    630.422
 22.470    631.644    638.406     -6.762    629.906    631.925    636.387    629.906    629.906
 22.570    590.000    638.162    -48.162    629.394    631.475    636.082    629.394    629.394
 22.670    630.000    637.940     -7.940    628.888    631.035    635.793    628.888    628.888
 22.770    621.000    637.740    -16.740    628.386    630.607    635.519    628.386    628.386
 22.870    627.235    637.566    -10.331    627.888    630.193    635.261    627.888    627.888
 22.970    666.704    637.419     29.284    627.396    629.793    635.022    627.396    627.396
 23.070    681.847    637.303     44.545    626.908    629.410    634.801    626.908    626.908
 23.170    608.227    637.219    -28.992    626.425    629.046    634.598    626.425    626.425
 23.270    649.691    637.172     12.519    625.946    628.703    634.416    625.946    625.946
 23.370    688.000    637.168     50.832    625.472    628.387    634.254    625.472    625.472
 23.470    610.069    637.213    -27.144    625.003    628.101    634.115    625.003    625.003
 23.570    631.000    637.315     -6.315    624.538    627.853    634.000    624.538    624.538
 23.670    649.000    637.484     11.516    624.078    627.652    633.911    624.078    624.078
 23.770    647.000    637.736      9.264    623.622    627.510    633.849    623.622    623.622
 23.870    622.000    638.089    -16.089    623.171    627.445    633.816    623.171    623.171
 23.970    653.661    638.570     15.091    622.724    627.482    633.814    622.724    622.724
 24.070    627.000    639.223    -12.223    622.282    627.662    633.845    622.282    622.282
 24.170    635.000    640.126     -5.126    621.844    628.061    633.913    621.844    621.844
 24.270    627.000    641.446    -14.446    621.411    628.842    634.019    621.411    621.411
 24.370    647.000    643.542      3.458    620.982    630.363    634.167    620.982    620.982
 24.470    653.000    647.139      5.861    620.558    633.344    634.360    620.558    620.558
 24.570    694.589    653.442     41.148    620.138    638.987    634.604    620.138    620.138
 24.670    710.000    663.909     46.091    619.722    648.749    634.902    619.722    619.722
 24.770    660.090    679.393    -19.303    619.311    663.475    635.259    619.311    619.311
 24.870    733.725    698.532     35.193    618.904    681.799    635.681    618.904    618.904
 24.970    675.000    715.827    -40.827    618.501    698.209    636.175    618.501    618.501
 25.070    774.931    722.227     52.704    618.103    703.642    636.748    618.103    618.103
 25.170    684.386    713.364    -28.978    617.709    693.717    637.409    617.709    617.709
 25.270    710.000    695.909     14.091    617.319    675.099    638.169    617.319    617.319
 25.370    704.938    678.736     26.202    616.933    656.658    639.038    616.933    616.933
 25.470    687.000    666.094     20.906    616.552    642.632    640.030    616.552    616.552
 25.570    652.120    658.505     -6.385    616.174    633.528    641.161    616.174    616.174
 25.670    604.000    654.808    -50.808    615.801    628.165    642.451    615.801    615.801
 25.770    609.835    653.567    -43.732    615.432    625.081    643.922    615.432    615.432
 25.870    639.000    653.726    -14.726    615.068    623.204    645.592    615.068    615.068
 25.970    649.000    654.723     -5.723    614.707    621.936    647.496    614.707    614.707
 26.070    606.000    656.315    -50.315    614.350    620.997    649.670    614.350    614.350
 26.170    658.000    658.422     -0.422    613.998    620.261    652.159    613.998    613.998
 26.270    678.000    661.037     16.963    613.649    619.671    655.016    613.649    613.649
 26.370    680.000    664.195     15.805    613.305    619.193    658.307    613.305    613.305
 26.470    717.000    667.959     49.041    612.965    618.810    662.112    612.965    612.965
 26.570    635.851    672.419    -36.567    612.628    618.511    666.534    612.628    612.628
 26.670    659.000    677.698    -18.698    612.296    618.291    671.701    612.296    612.296
 26.770    693.674    683.963      9.711    611.967    618.150    677.778    611.967    611.967
 26.870    659.216    691.435    -32.219    611.643    618.092    684.982    611.643    611.643
 26.970    671.580    700.395    -28.815    611.322    618.126    693.587    611.322    611.322
 27.070    715.000    711.227      3.773    611.006    618.265    703.964    611.006    611.006
 27.170    709.000    724.468    -15.468    610.693    618.530    716.624    610.693    610.693
 27.270    727.000    740.853    -13.853    610.384    618.955    732.274    610.384    610.384
 27.370    791.454    761.434     30.021    610.079    619.584    751.919    610.079    610.079
 27.470    768.000    787.764    -19.764    609.778    620.485    777.045    609.778    609.778
 27.570    863.620    822.369     41.251    609.480    621.771    810.063    609.480    609.480
 27.670    922.631    870.368     52.264    609.187    623.666    855.867    609.187    609.187
 27.770    920.707    945.661    -24.955    608.897    626.782    927.744    608.897    608.897
 27.870   1047.425   1090.073    -42.648    608.610    632.945   1065.681    608.610    608.610
 27.970   1388.000   1413.198    -25.198    608.328    646.944   1374.461    608.328    608.328
 28.070   2056.000   2128.076    -72.076    608.049    678.077   2057.785    608.049    608.049
 28.170   3357.000   3487.905   -130.905    607.774    737.401   3357.769    607.774    607.774
 28.270   5265.000   5529.093   -264.093    607.503    826.541   5309.253    607.503    607.503
 28.370   7712.404   7719.867     -7.463    607.235    922.385   7403.750    607.235    607.235
 28.470   8759.124   8906.708   -147.584    606.971    974.828   8538.071    606.971    606.971
 28.570   8354.000   8263.384     90.616    606.711    948.306   7921.505    606.711    606.711
 28.670   6518.447   6446.108     72.339    606.454    872.417   6180.261    606.454    606.454
 28.770   4807.000   4733.662     73.338    606.201    804.518   4535.577    606.201    606.201
 28.870   3797.000   3904.992   -107.992    605.951    780.115   3731.000    605.951    605.951
 28.970   3952.000   4021.042    -69.042    605.705    801.652   3825.187    605.705    605.705
 29.070   4640.000   4621.938     18.062    605.462    844.972   4382.533    605.462    605.462
 29.170   5035.000   4992.247     42.753    605.223    870.395   4727.312    605.223    605.223
 29.270   4561.000   4628.462    -67.462    604.988    849.468   4384.380    604.988    604.988
 29.370   3658.000   3691.641    -33.641    604.755    792.969   3503.876    604.755    604.755
 29.470   2756.863   2659.411     97.453    604.527    730.390   2533.919    604.527    604.527
 29.570   1833.000   1850.381    -17.381    604.301    681.309   1773.624    604.301    604.301
 29.670   1393.000   1340.272     52.728    604.080    650.405   1294.091    604.080    604.080
 29.770   1089.000   1063.322     25.678    603.861    633.699   1033.560    603.861    603.861
 29.870    963.000    922.670     40.330    603.646    625.298    901.058    603.646    603.646
 29.970    822.448    847.963    -25.515    603.434    620.928    830.492    603.434    603.434
 30.070    767.236    802.705    -35.468    603.226    618.380    787.565    603.226    603.226
 30.170    764.000    771.520     -7.520    603.021    616.740    757.810    603.021    603.021
 30.270    781.000    748.414     32.586    602.819    615.681    735.558    602.819    602.819
 30.370    797.000    730.890     66.110    602.620    615.125    718.389    602.620    602.620
 30.470    757.000    717.902     39.098    602.425    615.179    705.149    602.425    602.425
 30.570    720.000    709.433     10.567    602.233    616.222    695.442    602.233    602.233
 30.670    691.000    706.573    -15.573    602.044    619.037    689.573    602.044    602.044
 30.770    680.000    711.393    -31.393    601.858    624.799    688.436    601.858    601.858
 30.870    760.206    725.894     34.313    601.676    634.596    692.944    601.676    601.676
 30.970    797.799    749.703     48.096    601.497    648.362    702.793    601.497    601.497
 31.070    780.000    776.982      3.018    601.321    663.417    714.824    601.321    601.321
 31.170    853.273    794.873     58.400    601.148    673.748    722.204    601.148    601.148
 31.270    752.175    790.374    -38.199    600.978    673.257    718.032    600.978    600.978
 31.370    775.000    763.756     11.244    600.811    662.110    702.410    600.811    600.811
 31.470    707.934    728.060    -20.126    600.647    646.504    682.171    600.647    600.647
 31.570    760.000    695.672     64.328    600.487    632.323    663.816    600.487    600.487
 31.670    697.000    671.927     25.073    600.329    622.112    650.133    600.329    600.329
 31.770    704.066    656.762     47.304    600.174    615.860    641.070    600.174    600.174
 31.870    677.000    647.766     29.234    600.023    612.443    635.342    600.023    600.023
 31.970    671.000    642.403     28.597    599.874    610.674    631.600    599.874    599.874
 32.070    677.000    638.951     38.049    599.729    609.752    628.926    599.729    599.729
 32.170    688.000    636.511     51.489    599.586    609.262    626.834    599.586    599.586
 32.270    654.000    634.681     19.319    599.446    609.023    625.102    599.446    599.446
 32.370    648.000    633.292     14.708    599.309    608.966    623.634    599.309    599.309
 32.470    623.036    632.271     -9.235    599.175    609.066    622.379    599.175    599.175
 32.570    640.751    631.587      9.164    599.044    609.317    621.313    599.044    599.044
 32.670    666.000    631.231     34.769    598.916    609.726    620.420    598.916    598.916
 32.770    637.000    631.215      5.785    598.790    610.312    619.693    598.790    598.790
 32.870    627.000    631.569     -4.569    598.668    611.103    619.133    598.668    598.668
 32.970    667.526    632.345     35.181    598.548    612.142    618.750    598.548    598.548
 33.070    652.000    633.625     18.375    598.431    613.492    618.564    598.431    598.431
 33.170    654.000    635.536     18.464    598.317    615.245    618.606    598.317    598.317
 33.270    663.000    638.276     24.724    598.205    617.545    618.935    598.205    598.205
 33.370    674.000    642.206     31.794    598.097    620.647    619.654    598.097    598.097
 33.470    673.000    648.070     24.930    597.991    625.073    620.986    597.991    597.991
 33.570    705.582    657.531     48.052    597.887    631.987    623.427    597.887    597.887
 33.670    711.000    674.142     36.858    597.786    643.875    628.047    597.786    597.786
 33.770    729.000    704.518     24.482    597.688    665.359    636.836    597.688    597.688
 33.870    757.000    758.506     -1.506    597.593    703.323    652.758    597.593    597.593
 33.970    843.000    846.367     -3.367    597.500    764.938    678.903    597.500    597.500
 34.070    986.000    971.655     14.345    597.410    852.691    716.341    597.410    597.410
 34.170   1073.000   1120.700    -47.700    597.323    957.035    760.955    597.323    597.323
 34.270   1271.359   1252.106     19.253    597.238   1049.049    800.276    597.238    597.238
 34.370   1319.000   1302.381     16.619    597.155   1084.365    815.175    597.155    597.155
 34.470   1270.788   1238.178     32.610    597.075   1039.671    795.602    597.075    597.075
 34.570   1094.000   1099.837     -5.837    596.998    943.152    753.707    596.998    596.998
 34.670    920.000    950.924    -30.924    596.923    839.230    708.638    596.923    596.923
 34.770    865.000    829.226     35.774    596.850    754.312    671.779    596.850    596.850
 34.870    750.368    745.423      4.945    596.780    695.865    646.348    596.780    596.780
 34.970    714.000    694.445     19.555    596.713    660.346    630.817    596.713    596.713
 35.070    677.000    665.683     11.317    596.648    640.344    621.990    596.648    596.648
 35.170    650.251    649.575      0.676    596.585    629.175    616.987    596.585    596.585
 35.270    681.000    639.934     41.066    596.525    622.516    613.944    596.525    596.525
 35.370    611.224    633.529    -22.306    596.467    618.110    611.887    596.467    596.467
 35.470    618.000    628.873    -10.873    596.411    614.917    610.368    596.411    596.411
 35.570    669.496    625.295     44.202    596.358    612.468    609.186    596.358    596.358
 35.670    672.873    622.462     50.411    596.307    610.529    608.240    596.307    596.307
 35.770    577.825    620.181    -42.355    596.258    608.966    607.473    596.258    596.258
 35.870    657.000    618.323     38.677    596.212    607.688    606.848    596.212    596.212
 35.970    632.954    616.800     16.154    596.168    606.631    606.337    596.168    596.168
 36.070    653.000    615.546     37.454    596.126    605.749    605.923    596.126    596.126
 36.170    595.000    614.514    -19.514    596.087    605.008    605.593    596.087    596.087
 36.270    578.000    613.671    -35.671    596.049    604.382    605.338    596.049    596.049
 36.370    659.641    612.993     46.649    596.014    603.852    605.155    596.014    596.014
 36.470    623.000    612.461     10.539    595.981    603.402    605.041    595.981    595.981
 36.570    581.000    612.068    -31.068    595.950    603.022    604.996    595.950    595.950
 36.670    593.214    611.807    -18.593    595.922    602.703    605.026    595.922    595.922
 36.770    569.414    611.683    -42.268    595.895    602.440    605.138    595.895    595.895
 36.870    611.496    611.702     -0.206    595.871    602.231    605.342    595.871    595.871
 36.970    541.000    611.883    -70.883    595.848    602.074    605.657    595.848    595.848
 37.070    631.199    612.255     18.944    595.828    601.977    606.107    595.828    595.828
 37.170    619.000    612.873      6.127    595.810    601.955    606.729    595.810    595.810
 37.270    574.000    613.835    -39.835    595.794    602.046    607.583    595.794    595.794
 37.370    613.614    615.331     -1.717    595.780    602.328    608.784    595.780    595.780
 37.470    598.000    617.726    -19.726    595.768    602.931    610.563    595.768    595.768
 37.570    657.000    621.695     35.305    595.758    604.039    613.414    595.758    595.758
 37.670    638.000    628.384      9.616    595.749    605.834    618.300    595.749    595.749
 37.770    634.989    639.495     -4.507    595.743    608.387    626.853    595.743    595.743
 37.870    703.238    657.044     46.194    595.739    611.498    641.286    595.739    595.739
 37.970    732.000    682.478     49.522    595.737    614.505    663.712    595.737    595.737
 38.070    717.002    715.260      1.741    595.736    616.293    694.707    595.736    595.736
 38.170    701.876    751.607    -49.731    595.738    616.034    731.316    595.738    595.738
 38.270    778.103    783.193     -5.090    595.741    614.017    764.924    595.741    595.741
 38.370    747.458    797.255    -49.797    595.746    611.171    781.843    595.746    595.746
 38.470    761.000    785.304    -24.304    595.753    608.262    772.812    595.753    595.753
 38.570    686.000    753.145    -67.145    595.762    605.751    743.174    595.762    595.762
 38.670    734.000    714.419     19.581    595.773    603.846    706.362    595.773    595.773
 38.770    662.000    679.610    -17.610    595.786    602.538    672.870    595.786    595.786
 38.870    699.190    653.259     45.931    595.800    601.702    647.365    595.800    595.800
 38.970    643.000    635.621      7.379    595.816    601.189    630.253    595.816    595.816
 39.070    601.000    624.817    -23.817    595.834    600.880    619.774    595.834    595.834
 39.170    621.000    618.495      2.505    595.853    600.693    613.657    595.853    595.853
 39.270    640.511    614.757     25.754    595.874    600.578    610.055    595.874    595.874
 39.370    573.000    612.401    -39.401    595.897    600.507    607.793    595.897    595.897
 39.470    564.279    610.781    -46.502    595.922    600.463    606.241    595.922    595.922
 39.570    622.000    609.588     12.412    595.948    600.446    605.091    595.948    595.948
 39.670    612.000    608.669      3.331    595.976    600.448    604.198    595.976    595.976
 39.770    651.000    607.942     43.058    596.006    600.465    603.483    596.006    596.006
 39.870    582.000    607.362    -25.362    596.037    600.497    602.903    596.037    596.037
 39.970    582.364    606.895    -24.531    596.069    600.541    602.425    596.069    596.069
 40.070    561.630    606.521    -44.891    596.104    600.597    602.028    596.104    596.104
 40.170    582.693    606.222    -23.528    596.140    600.665    601.697    596.140    596.140
 40.270    557.870    605.986    -48.116    596.177    600.744    601.419    596.177    596.177
 40.370    621.000    605.803     15.197    596.216    600.836    601.184    596.216    596.216
 40.470    651.035    605.668     45.367    596.256    600.939    600.986    596.256    596.256
 40.570    575.000    605.574    -30.574    596.298    601.056    600.818    596.298    596.298
 40.670    594.000    605.520    -11.520    596.342    601.186    600.676    596.342    596.342
 40.770    593.128    605.501    -12.372    596.387    601.332    600.556    596.387    596.387
 40.870    614.000    605.517      8.483    596.433    601.495    600.456    596.433    596.433
 40.970    588.306    605.568    -17.262    596.481    601.677    600.373    596.481    596.481
 41.070    574.870    605.655    -30.785    596.530    601.881    600.305    596.530    596.530
 41.170    644.353    605.779     38.574    596.581    602.110    600.251    596.581    596.581
 41.270    633.538    605.945     27.593    596.632    602.370    600.209    596.632    596.632
 41.370    589.000    606.157    -17.157    596.686    602.665    600.178    596.686    596.686
 41.470    653.524    606.421     47.103    596.741    603.004    600.159    596.741    596.741
 41.570    575.616    606.749    -31.133    596.797    603.397    600.150    596.797    596.797
 41.670    582.532    607.153    -24.620    596.854    603.858    600.151    596.854    596.854
 41.770    613.000    607.652      5.348    596.913    604.405    600.162    596.913    596.913
 41.870    594.000    608.278    -14.278    596.973    605.069    600.185    596.973    596.973
 41.970    587.000    609.085    -22.085    597.034    605.901    600.219    597.034    597.034
 42.070    628.232    610.176     18.056    597.096    607.004    600.271    597.096    597.096
 42.170    621.873    611.763     10.109    597.160    608.582    600.346    597.160    597.160
 42.270    653.321    614.257     39.064    597.225    611.027    600.460    597.225    597.225
 42.370    586.000    618.365    -32.365    597.291    615.023    600.641    597.291    597.291
 42.470    585.000    625.136    -40.136    597.359    621.577    600.928    597.359    597.359
 42.570    614.429    635.794    -21.366    597.427    631.868    601.367    597.427    597.427
 42.670    629.000    651.276    -22.276    597.497    646.799    601.996    597.497    597.497
 42.770    644.415    671.468    -27.053    597.568    666.258    602.808    597.568    597.568
 42.870    647.195    694.251    -47.056    597.640    688.209    603.724    597.640    597.640
 42.970    710.000    714.594     -4.594    597.713    707.812    604.549    597.713    597.713
 43.070    768.994    725.152     43.842    597.787    717.998    605.002    597.787    597.787
 43.170    663.000    720.949    -57.949    597.862    713.981    604.893    597.862    597.862
 43.270    727.000    704.266     22.734    597.939    697.953    604.308    597.939    597.939
 43.370    682.000    682.092     -0.092    598.016    676.638    603.515    598.016    598.016
 43.470    695.000    660.629     34.371    598.095    656.004    602.752    598.095    598.095
 43.570    635.869    643.196     -7.327    598.174    639.246    602.147    598.174    598.174
 43.670    631.000    630.689      0.311    598.255    627.226    601.733    598.255    598.255
 43.770    647.000    622.542     24.458    598.336    619.399    601.489    598.336    598.336
 43.870    630.000    617.592     12.408    598.419    614.647    601.371    598.419    598.419
 43.970    634.000    614.687     19.313    598.503    611.861    601.333    598.503    598.503
 44.070    582.256    612.967    -30.712    598.587    610.214    601.344    598.587    598.587
 44.170    589.441    611.901    -22.460    598.672    609.194    601.382    598.672    598.672
 44.270    566.148    611.199    -45.050    598.759    608.523    601.437    598.759    598.759
 44.370    653.028    610.717     42.311    598.846    608.062    601.503    598.846    598.846
 44.470    656.000    610.382     45.618    598.934    607.740    601.577    598.934    598.934
 44.570    652.000    610.154     41.846    599.023    607.520    601.658    599.023    599.023
 44.670    616.000    610.009      5.991    599.113    607.378    601.746    599.113    599.113
 44.770    569.833    609.931    -40.098    599.204    607.298    601.838    599.204    599.204
 44.870    599.000    609.909    -10.909    599.295    607.270    601.935    599.295    599.295
 44.970    562.522    609.934    -47.412    599.387    607.284    602.037    599.387    599.387
 45.070    631.097    609.999     21.098    599.481    607.336    602.144    599.481    599.481
 45.170    629.000    610.100     18.900    599.575    607.420    602.255    599.575    599.575
 45.270    628.246    610.233     18.013    599.669    607.532    602.371    599.669    599.669
 45.370    616.000    610.396      5.604    599.765    607.670    602.491    599.765    599.765
 45.470    661.499    610.587     50.912    599.861    607.833    602.616    599.861    599.861
 45.570    651.905    610.805     41.100    599.958    608.018    602.745    599.958    599.958
 45.670    587.114    611.050    -23.936    600.056    608.226    602.879    600.056    600.056
 45.770    628.000    611.321     16.679    600.154    608.457    603.018    600.154    600.154
 45.870    660.099    611.619     48.480    600.253    608.709    603.163    600.253    600.253
 45.970    655.000    611.945     43.055    600.353    608.985    603.314    600.353    600.353
 46.070    638.927    612.301     26.625    600.453    609.285    603.470    600.453    600.453
 46.170    592.000    612.689    -20.689    600.555    609.610    603.633    600.555    600.555
 46.270    620.162    613.111      7.051    600.656    609.964    603.803    600.656    600.656
 46.370    657.925    613.571     44.354    600.759    610.348    603.981    600.759    600.759
 46.470    654.000    614.074     39.926    600.861    610.766    604.168    600.861    600.861
 46.570    629.000    614.624     14.376    600.965    611.224    604.364    600.965    600.965
 46.670    623.000    615.229      7.771    601.069    611.726    604.571    601.069    601.069
 46.770    620.000    615.898      4.102    601.174    612.281    604.791    601.174    601.174
 46.870    641.000    616.644     24.356    601.279    612.898    605.024    601.279    601.279
 46.970    560.000    617.483    -57.483    601.385    613.593    605.274    601.385    601.385
 47.070    584.800    618.443    -33.643    601.491    614.388    605.544    601.491    601.491
 47.170    657.000    619.570     37.430    601.598    615.325    605.841    601.598    601.598
 47.270    589.043    620.950    -31.907    601.705    616.479    606.174    601.705    601.705
 47.370    617.000    622.747     -5.747    601.813    617.992    606.564    601.813    601.813
 47.470    620.000    625.243     -5.243    601.921    620.115    607.044    601.921    601.921
 47.570    612.903    628.892    -15.989    602.030    623.248    607.667    602.030    602.030
 47.670    642.000    634.313      7.687    602.139    627.937    608.504    602.139    602.139
 47.770    641.000    642.195     -1.195    602.248    634.790    609.638    602.248    602.248
 47.870    623.000    653.053    -30.053    602.358    644.262    611.127    602.358    602.358
 47.970    638.000    666.870    -28.870    602.468    656.335    612.974    602.468    602.468
 48.070    684.000    682.655      1.345    602.579    670.129    615.067    602.579    602.579
 48.170    641.000    698.028    -57.028    602.690    683.533    617.137    602.690    602.690
 48.270    705.000    709.245     -4.245    602.802    693.231    618.763    602.802    602.802
 48.370    731.632    712.675     18.957    602.913    696.003    619.533    602.913    602.913
 48.470    721.013    707.518     13.495    603.025    691.135    619.362    603.025    603.025
 48.570    661.292    696.642    -35.350    603.138    681.155    618.586    603.138    603.138
 48.670    657.000    684.164    -27.164    603.251    669.701    617.684    603.251    603.251
 48.770    637.000    673.159    -36.159    603.364    659.481    617.020    603.364    603.364
 48.870    670.849    665.202      5.647    603.477    651.873    616.790    603.477    603.477
 48.970    647.000    660.735    -13.735    603.590    647.252    617.063    603.590    603.590
 49.070    615.720    659.535    -43.815    603.704    645.390    617.841    603.704    603.704
 49.170    636.849    661.121    -24.272    603.818    645.828    619.104    603.818    603.818
 49.270    680.000    665.097     14.903    603.932    648.160    620.864    603.932    603.932
 49.370    636.000    671.411    -35.411    604.047    652.241    623.211    604.047    604.047
 49.470    653.000    680.677    -27.677    604.162    658.416    626.417    604.162    604.162
 49.570    736.055    694.824     41.231    604.276    667.944    631.149    604.276    604.276
 49.670    705.000    718.407    -13.407    604.391    683.879    638.907    604.391    604.391
 49.770    765.000    760.761      4.239    604.507    712.510    652.735    604.507    604.507
 49.870    841.000    838.415      2.585    604.622    764.989    678.006    604.622    604.622
 49.970    918.000    975.833    -57.833    604.737    857.827    722.670    604.737    604.737
 50.070   1096.000   1201.268   -105.268    604.853   1010.099    795.907    604.853    604.853
 50.170   1474.000   1535.191    -61.191    604.969   1235.628    904.369    604.969    604.969
 50.270   1780.000   1972.570   -192.570    605.084   1531.030   1046.424    605.084    605.084
 50.370   2524.022   2465.450     58.572    605.200   1863.963   1206.481    605.200    605.200
 50.470   2923.971   2915.269      8.701    605.316   2168.022   1352.403    605.316    605.316
 50.570   3251.000   3191.130     59.870    605.432   2354.618   1441.889    605.432    605.432
 50.670   3237.000   3190.554     46.446    605.548   2354.655   1441.526    605.548    605.548
 50.770   2874.000   2914.435    -40.435    605.664   2168.784   1351.498    605.664    605.664
 50.870   2436.000   2466.327    -30.327    605.780   1866.984   1205.351    605.780    605.780
 50.970   1895.609   1977.753    -82.144    605.897   1538.170   1045.699    605.897    605.897
 51.070   1490.000   1546.949    -56.949    606.013   1248.802    904.339    606.013    606.013
 51.170   1196.000   1221.600    -25.600    606.129   1031.179    796.682    606.129    606.129
 51.270   1070.228   1006.379     63.849    606.245    888.449    724.266    606.245    606.245
 51.370    953.000    880.190     72.810    606.361    806.174    680.440    606.361    606.361
 51.470    891.000    813.641     77.359    606.477    764.037    656.128    606.477    606.477
 51.570    757.000    780.451    -23.451    606.593    743.510    643.574    606.593    606.593
 51.670    772.000    762.069      9.931    606.708    731.149    637.664    606.708    606.708
 51.770    792.000    748.392     43.608    606.824    719.607    635.639    606.824    606.824
 51.870    732.476    736.226     -3.751    606.940    706.986    636.203    606.940    606.940
 51.970    706.000    725.866    -19.866    607.055    694.257    638.679    607.055    607.055
 52.070    732.796    718.069     14.727    607.171    682.831    642.415    607.171    607.171
 52.170    749.000    712.784     36.216    607.286    673.612    646.459    607.286    607.286
 52.270    708.645    708.996     -0.351    607.401    666.921    649.472    607.401    607.401
 52.370    746.000    705.197     40.803    607.516    662.655    650.053    607.516    607.516
 52.470    759.000    700.428     58.572    607.631    660.486    647.568    607.631    607.631
 52.570    742.000    694.989     47.011    607.745    660.056    642.674    607.745    607.745
 52.670    710.312    689.999     20.313    607.860    661.129    636.727    607.860    607.860
 52.770    717.000    686.671     30.329    607.974    663.703    630.941    607.974    607.974
 52.870    650.134    686.113    -35.979    608.088    668.127    626.074    608.088    608.088
 52.970    651.811    689.510    -37.700    608.201    675.268    622.444    608.201    608.201
 53.070    658.000    698.472    -40.472    608.315    686.740    620.047    608.315    608.315
 53.170    672.000    715.408    -43.408    608.428    705.122    618.714    608.428    608.428
 53.270    707.000    743.713    -36.713    608.541    734.006    618.248    608.541    608.541
 53.370    832.144    787.433     44.711    608.654    777.585    618.501    608.654    608.654
 53.470    795.000    850.257    -55.257    608.766    839.634    619.388    608.766    608.766
 53.570    917.169    933.778    -16.609    608.878    921.812    620.844    608.878    608.878
 53.670   1039.000   1035.331      3.669    608.990   1021.567    622.757    608.990    608.990
 53.770   1158.305   1145.695     12.610    609.102   1129.909    624.896    609.102    609.102
 53.870   1248.000   1247.229      0.771    609.213   1229.676    626.784    609.213    609.213
 53.970   1367.271   1315.611     51.661    609.323   1296.872    628.092    609.323    609.323
 54.070   1402.364   1328.624     73.740    609.434   1309.796    628.303    609.434    609.434
 54.170   1202.000   1281.342    -79.342    609.544   1263.654    627.279    609.544    609.544
 54.270   1157.000   1190.446    -33.446    609.654   1174.784    625.362    609.654    609.654
 54.370   1058.000   1081.518    -23.518    609.763   1068.237    623.085    609.763    609.763
 54.470    990.000    975.571     14.429    609.872    964.591    620.885    609.872    609.872
 54.570    881.000    884.979     -3.979    609.980    875.966    619.019    609.980    609.980
 54.670    838.000    814.678     23.322    610.088    807.197    617.588    610.088    610.088
 54.770    726.000    764.397    -38.397    610.196    758.020    616.587    610.196    610.196
 54.870    714.000    730.892    -16.892    610.303    725.258    615.947    610.303    610.303
 54.970    727.000    709.869     17.131    610.410    704.708    615.578    610.410    610.410
 55.070    731.581    697.326     34.255    610.516    692.452    615.396    610.516    610.516
 55.170    683.407    690.203     -6.796    610.622    685.493    615.336    610.622    610.622
 55.270    687.000    686.469      0.531    610.728    681.842    615.358    610.728    610.728
 55.370    644.000    684.930    -40.930    610.832    680.329    615.436    610.832    610.832
 55.470    654.000    684.955    -30.955    610.937    680.337    615.558    610.937    610.937
 55.570    670.000    686.258    -16.258    611.041    681.583    615.718    611.041    611.041
 55.670    682.183    688.750     -6.568    611.144    683.980    615.917    611.144    611.144
 55.770    701.000    692.485      8.515    611.247    687.577    616.157    611.247    611.247
 55.870    730.416    697.649     32.766    611.349    692.555    616.446    611.349    611.349
 55.970    685.000    704.646    -19.646    611.450    699.301    616.798    611.450    611.450
 56.070    719.000    714.268      4.732    611.552    708.582    617.240    611.552    611.552
 56.170    733.354    728.043      5.311    611.652    721.872    617.825    611.652    611.652
 56.270    754.000    748.782      5.218    611.752    741.888    618.647    611.752    611.752
 56.370    731.490    781.309    -49.820    611.851    773.290    619.870    611.851    611.851
 56.470    838.000    833.146      4.854    611.950    823.345    621.747    611.950    611.950
 56.570    855.000    914.683    -59.683    612.048    902.091    624.629    612.048    612.048
 56.670   1074.925   1038.154     36.772    612.146   1021.353    628.929    612.146    612.146
 56.770   1156.000   1214.847    -58.847    612.243   1192.037    635.029    612.243    612.243
 56.870   1431.833   1450.531    -18.698    612.339   1419.720    643.122    612.339    612.339
 56.970   1755.768   1739.900     15.869    612.434   1699.277    653.032    612.434    612.434
 57.070   2101.000   2061.264     39.736    612.529   2009.754    664.029    612.529    612.529
 57.170   2438.000   2372.594     65.406    612.623   2310.542    674.699    612.623    612.623
 57.270   2672.000   2612.238     59.762    612.717   2542.064    682.966    612.717    612.717
 57.370   2719.000   2714.678      4.322    612.810   2641.005    686.624    612.810    612.810
 57.470   2755.000   2646.517    108.483    612.902   2575.074    684.550    612.902    612.902
 57.570   2342.833   2431.552    -88.719    612.993   2367.241    677.550    612.993    612.993
 57.670   2185.101   2131.936     53.165    613.084   2077.549    667.723    613.084    613.084
 57.770   1864.000   1811.579     52.421    613.174   1767.749    657.233    613.174    613.174
 57.870   1532.767   1516.687     16.080    613.263   1482.483    647.658    613.263    613.263
 57.970   1253.016   1272.958    -19.942    613.352   1246.555    639.904    613.352    613.352
 58.070   1038.000   1088.969    -50.969    613.440   1068.179    634.338    613.440    613.440
 58.170    965.595    961.434      4.161    613.527    944.040    630.994    613.527    613.527
 58.270    860.000    880.988    -20.988    613.613    864.846    629.801    613.613    613.613
 58.370    838.336    837.199      1.138    613.698    820.143    630.779    613.698    613.698
 58.470    766.901    821.765    -54.864    613.783    801.427    634.130    613.783    613.783
 58.570    796.930    829.633    -32.702    613.867    803.301    640.194    613.867    613.867
 58.670    868.000    858.457      9.543    613.950    823.126    649.264    613.950    613.950
 58.770    865.213    907.079    -41.866    614.032    859.769    661.315    614.032    614.032
 58.870    991.000    973.702     17.298    614.113    912.068    675.711    614.113    614.113
 58.970   1105.000   1054.247     50.753    614.194    977.381    691.018    614.194    614.194
 59.070   1154.000   1141.338     12.662    614.274   1050.572    705.000    614.274    614.274
 59.170   1135.000   1224.920    -89.920    614.352   1124.174    715.068    614.352    614.352
 59.270   1268.000   1295.310    -27.310    614.430   1190.398    719.328    614.430    614.430
 59.370   1371.645   1346.206     25.439    614.507   1243.195    717.522    614.507    614.507
 59.470   1450.088   1374.044     76.044    614.584   1277.867    710.784    614.584    614.584
 59.570   1425.000   1376.410     48.590    614.659   1290.428    700.680    614.659    614.659
 59.670   1347.000   1354.515     -7.515    614.733   1280.572    688.724    614.733    614.733
 59.770   1344.000   1316.829     27.171    614.807   1255.301    676.379    614.807    614.807
 59.870   1320.621   1277.281     43.340    614.880   1227.258    664.928    614.880    614.880
 59.970   1321.000   1249.430     71.570    614.951   1209.195    655.181    614.951    614.951
 60.070   1331.000   1242.458     88.542    615.022   1210.039    647.396    615.022    615.022
 60.170   1299.000   1260.794     38.206    615.092   1234.359    641.436    615.092    615.092
 60.270   1284.000   1305.553    -21.553    615.161   1283.570    637.005    615.161    615.161
 60.370   1409.000   1374.580     34.420    615.229   1355.815    633.808    615.229    615.229
 60.470   1535.744   1459.973     75.771    615.296   1443.447    631.595    615.296    615.296
 60.570   1474.972   1545.754    -70.782    615.362   1530.708    630.153    615.362    615.362
 60.670   1559.000   1608.664    -49.664    615.427   1594.519    629.311    615.427    615.427
 60.770   1666.000   1624.605     41.395    615.491   1610.914    628.941    615.491    615.491
 60.870   1614.000   1580.794     33.206    615.554   1567.194    628.955    615.554    615.554
 60.970   1434.397   1483.980    -49.584    615.616   1470.149    629.299    615.616    615.616
 61.070   1379.000   1355.085     23.915    615.677   1340.708    629.953    615.677    615.677
 61.170   1283.095   1217.499     65.596    615.737   1202.238    630.934    615.737    615.737
 61.270   1050.000   1089.782    -39.782    615.796   1073.222    632.317    615.796    615.796
 61.370    971.000    983.726    -12.726    615.854    965.281    634.275    615.854    615.854
 61.470    891.854    904.982    -13.128    615.911    883.737    637.137    615.911    615.911
 61.570    930.000    854.821     75.179    615.966    829.293    641.474    615.966    615.966
 61.670    849.000    832.424     16.576    616.021    800.225    648.192    616.021    616.021
 61.770    811.830    837.018    -25.187    616.075    794.465    658.587    616.075    616.075
 61.870    868.000    869.175     -1.175    616.128    810.939    674.304    616.128    616.128
 61.970    962.378    930.885     31.493    616.179    849.852    697.128    616.179    616.179
 62.070   1001.000   1024.344    -23.344    616.230    911.906    728.552    616.230    616.230
 62.170   1090.051   1149.791    -59.740    616.279    996.756    769.164    616.279    616.279
 62.270   1265.000   1303.005    -38.005    616.328   1101.194    817.952    616.328    616.328
 62.370   1443.000   1473.072    -30.072    616.375   1217.526    871.703    616.375    616.375
 62.470   1605.000   1640.989    -35.989    616.421   1332.552    924.621    616.421    616.421
 62.570   1712.794   1780.099    -67.304    616.466   1427.827    968.503    616.466    616.466
 62.670   1806.000   1860.967    -54.967    616.510   1483.003    994.264    616.510    616.510
 62.770   1836.000   1862.666    -26.666    616.553   1483.611    995.440    616.553    616.553
 62.870   1714.486   1784.463    -69.978    616.595   1429.123    971.818    616.595    616.595
 62.970   1556.000   1646.300    -90.300    616.635   1333.282    929.580    616.635    616.635
 63.070   1426.928   1477.433    -50.504    616.675   1216.272    877.795    616.675    616.675
 63.170   1357.491   1304.759     52.733    616.713   1096.651    824.804    616.713    616.713
 63.270   1135.000   1147.515    -12.515    616.750    987.691    776.570    616.750    616.750
 63.370    949.000   1016.582    -67.582    616.786    896.897    736.473    616.786    616.786
 63.470    951.000    915.642     35.358    616.820    826.807    705.658    616.820    616.820
 63.570    801.001    843.127    -42.126    616.854    776.336    683.645    616.854    616.854
 63.670    799.773    794.469      5.304    616.886    742.330    669.022    616.886    616.886
 63.770    794.414    764.158     30.256    616.917    720.987    660.082    616.917    616.917
 63.870    716.663    747.326    -30.662    616.947    708.948    655.316    616.947    616.947
 63.970    785.000    740.452     44.548    616.976    703.777    653.640    616.976    616.976
 64.070    723.104    741.762    -18.658    617.004    704.209    654.542    617.004    617.004
 64.170    744.942    751.186     -6.244    617.030    710.088    658.107    617.030    617.030
 64.270    727.000    770.156    -43.156    617.055    722.160    665.024    617.055    617.055
 64.370    812.000    801.281     10.719    617.079    741.772    676.550    617.079    617.079
 64.470    834.000    847.823    -13.823    617.102    770.457    694.416    617.102    617.102
 64.570    944.000    912.918     31.082    617.123    809.391    720.581    617.123    617.123
 64.670   1004.000    998.513      5.487    617.143    858.763    756.802    617.143    617.143
 64.770   1067.000   1104.097    -37.097    617.162    917.124    804.021    617.162    617.162
 64.870   1196.786   1225.407    -28.621    617.180    980.798    861.651    617.180    617.180
 64.970   1422.263   1353.350     68.913    617.196   1043.473    926.918    617.196    617.196
 65.070   1499.000   1473.760     25.240    617.211   1096.438    994.369    617.211    617.211
 65.170   1634.042   1569.055     64.987    617.225   1130.391   1055.730    617.225    617.225
 65.270   1649.000   1622.500     26.500    617.238   1138.960   1100.639    617.238    617.238
 65.370   1658.000   1623.750     34.250    617.249   1121.595   1119.299    617.249    617.249
 65.470   1536.670   1573.132    -36.463    617.259   1083.396   1106.930    617.259    617.259
 65.570   1494.313   1481.984     12.330    617.268   1032.590   1066.635    617.268    617.268
 65.670   1441.033   1367.851     73.181    617.275    977.646   1007.485    617.275    617.275
 65.770   1311.668   1247.928     63.740    617.281    925.197    940.038    617.281    617.281
 65.870   1106.000   1134.975    -28.975    617.286    879.146    873.156    617.286    617.286
 65.970   1006.000   1036.324    -30.324    617.289    840.747    812.914    617.289    617.289
 66.070    904.000    954.663    -50.663    617.292    809.369    762.634    617.292    617.292
 66.170    809.000    889.637    -80.637    617.292    783.659    723.315    617.292    617.292
 66.270    806.201    839.433    -33.232    617.292    762.492    694.271    617.292    617.292
 66.370    834.000    801.719     32.281    617.290    745.210    673.830    617.290    617.290
 66.470    752.020    774.075    -22.055    617.287    731.409    659.977    617.287    617.287
 66.570    784.872    754.268     30.603    617.282    720.766    650.801    617.282    617.282
 66.670    709.835    740.463    -30.628    617.277    713.000    644.751    617.277    617.277
 66.770    754.759    731.300     23.459    617.269    707.883    640.694    617.269    617.269
 66.870    637.000    725.862    -88.862    617.261    705.250    637.878    617.261    617.261
 66.970    742.000    723.599     18.401    617.251    705.016    635.838    617.251    617.251
 67.070    740.000    724.296     15.704    617.240    707.233    634.307    617.240    617.240
 67.170    714.000    728.120    -14.120    617.227    712.207    633.144    617.227    617.227
 67.270    722.000    735.750    -13.750    617.213    720.678    632.289    617.213    617.213
 67.370    725.000    748.587    -23.587    617.198    734.053    631.735    617.198    617.198
 67.470    728.000    769.009    -41.009    617.181    754.667    631.526    617.181    617.181
 67.570    798.000    800.604     -2.604    617.163    786.021    631.748    617.163    617.163
 67.670    801.000    848.266    -47.266    617.143    832.878    632.533    617.143    617.143
 67.770    912.000    917.994     -5.994    617.122    901.070    634.047    617.122    617.122
 67.870    982.703   1016.216    -33.513    617.100    996.843    636.473    617.100    617.100
 67.970   1181.000   1148.552     32.448    617.076   1125.660    639.972    617.076    617.076
 68.070   1251.487   1318.082    -66.595    617.051   1290.518    644.629    617.051    617.051
 68.170   1461.538   1523.360    -61.822    617.025   1490.021    650.394    617.025    617.025
 68.270   1778.000   1756.508     21.492    616.997   1716.535    657.027    616.997    616.997
 68.370   2000.000   2001.721     -1.721    616.968   1954.734    664.051    616.968    616.968
 68.470   2220.000   2234.518    -14.518    616.937   2180.873    670.730    616.937    616.937
 68.570   2515.000   2422.950     92.050    616.905   2363.960    676.105    616.905    616.905
 68.670   2634.685   2533.372    101.313    616.871   2471.353    679.166    616.871    616.871
 68.770   2528.748   2542.091    -13.343    616.836   2480.057    679.201    616.836    616.836
 68.870   2496.000   2446.992     49.008    616.800   2388.009    676.145    616.800    616.800
 68.970   2283.000   2268.786     14.214    616.762   2215.298    670.616    616.762    616.762
 69.070   2102.000   2040.485     61.515    616.722   1993.950    663.601    616.722    616.722
 69.170   1750.539   1794.957    -44.419    616.682   1755.863    656.081    616.682    616.682
 69.270   1632.000   1558.097     73.903    616.640   1526.163    648.831    616.640    616.640
 69.370   1323.000   1347.104    -24.104    616.596   1321.542    642.364    616.596    616.596
 69.470   1161.000   1171.049    -10.049    616.551   1150.807    636.952    616.551    616.551
 69.570   1037.000   1032.297      4.703    616.504   1016.255    632.665    616.504    616.504
 69.670    957.000    928.346     28.654    616.456    915.462    629.426    616.456    616.456
 69.770    796.818    853.834    -57.016    616.407    843.225    627.076    616.407    616.407
 69.870    780.981    802.323    -21.341    616.356    793.301    625.421    616.356    616.356
 69.970    720.958    767.624    -46.667    616.304    759.689    624.269    616.304    616.304
 70.070    733.147    744.573    -11.426    616.250    737.369    623.476    616.250    616.250
 70.170    738.000    729.260      8.740    616.195    722.547    622.923    616.195    616.195
 70.270    731.040    718.968     12.072    616.138    712.592    622.526    616.138    616.138
 70.370    708.000    711.945     -3.945    616.080    705.801    622.232    616.080    616.080
 70.470    726.000    707.126     18.874    616.020    701.142    622.011    616.020    616.020
 70.570    711.812    703.900      7.913    615.959    698.020    621.843    615.959    615.959
 70.670    651.743    701.947    -50.204    615.896    696.127    621.720    615.896    615.896
 70.770    731.000    701.135     29.865    615.832    695.330    621.638    615.832    615.832
 70.870    717.000    701.474     15.526    615.767    695.641    621.600    615.767    615.767
 70.970    707.000    703.123      3.877    615.700    697.209    621.612    615.700    615.700
 71.070    730.000    706.430     23.570    615.631    700.369    621.688    615.631    615.631
 71.170    733.000    712.018     20.982    615.561    705.719    621.854    615.561    615.561
 71.270    745.000    720.910     24.090    615.489    714.239    622.150    615.489    615.489
 71.370    697.302    734.660    -37.358    615.416    727.424    622.638    615.416    615.416
 71.470    744.000    755.488    -11.488    615.342    747.403    623.405    615.342    615.342
 71.570    803.000    786.326     16.674    615.266    776.994    624.566    615.266    615.266
 71.670    877.469    830.731     46.738    615.189    819.612    626.263    615.189    615.189
 71.770    896.000    892.559      3.441    615.110    878.961    628.646    615.110    615.110
 71.870    975.546    975.374      0.172    615.029    958.462    631.857    615.029    615.029
 71.970   1052.000   1081.588    -29.588    614.947   1060.435    635.992    614.947    614.947
 72.070   1173.000   1211.454    -38.454    614.864   1185.119    641.061    614.864    614.864
 72.170   1378.000   1362.031     15.969    614.779   1329.693    646.952    614.779    614.779
 72.270   1461.000   1526.313    -65.313    614.692   1487.423    653.391    614.692    614.692
 72.370   1655.000   1692.597    -37.597    614.605   1647.067    659.923    614.605    614.605
 72.470   1764.107   1844.382    -80.275    614.515   1792.774    665.904    614.515    614.515
 72.570   1963.590   1961.622      1.967    614.424   1905.282    670.551    614.424    614.424
 72.670   2101.000   2024.762     76.238    614.332   1965.802    673.100    614.332    614.332
 72.770   2001.000   2021.507    -20.507    614.238   1962.515    673.073    614.238    614.238
 72.870   1938.000   1952.487    -14.487    614.142   1896.014    670.496    614.142    614.142
 72.970   1755.881   1830.916    -75.035    614.045   1778.992    665.888    614.045    614.045
 73.070   1723.000   1676.606     46.394    613.947   1630.480    660.022    613.947    613.947
 73.170   1473.000   1509.364    -36.364    613.847   1469.518    653.665    613.847    613.847
 73.270   1354.000   1345.261      8.739    613.746   1311.561    647.433    613.746    613.746
 73.370   1169.667   1195.534    -25.867    613.643   1167.429    641.745    613.643    613.643
 73.470   1053.451   1066.764    -13.312    613.538   1043.469    636.835    613.538    613.538
 73.570    910.000    961.534    -51.534    613.432    942.188    632.783    613.432    613.432
 73.670    859.000    879.356    -20.356    613.325    863.120    629.565    613.325    613.325
 73.770    833.000    817.707     15.293    613.216    803.827    627.098    613.216    613.216
 73.870    827.000    773.032     53.968    613.105    760.862    625.276    613.105    613.105
 73.970    756.000    741.563     14.437    612.993    730.565    623.992    612.993    612.993
 74.070    740.000    719.881     20.119    612.880    709.607    623.154    612.880    612.880
 74.170    736.000    705.207     30.793    612.765    695.278    622.695    612.765    612.765
 74.270    641.146    695.478    -54.332    612.648    685.554    622.574    612.648    612.648
 74.370    742.000    689.278     52.722    612.530    679.038    622.775    612.530    612.530
 74.470    667.000    685.694    -18.694    612.411    674.818    623.293    612.411    612.411
 74.570    654.696    684.152    -29.456    612.290    672.321    624.130    612.290    612.290
 74.670    650.000    684.273    -34.273    612.167    671.178    625.277    612.167    612.167
 74.770    675.000    685.757    -10.757    612.043    671.114    626.706    612.043    612.043
 74.870    721.420    688.292     33.128    611.918    671.874    628.362    611.918    611.918
 74.970    665.000    691.502    -26.502    611.791    673.172    630.152    611.791    611.791
 75.070    695.000    694.912      0.088    611.662    674.662    631.949    611.662    611.662
 75.170    709.000    697.944     11.056    611.532    675.931    633.588    611.532    611.532
 75.270    711.000    699.981     11.019    611.401    676.538    634.890    611.401    611.401
 75.370    737.000    700.526     36.474    611.268    676.122    635.719    611.268    611.268
 75.470    729.450    699.420     30.030    611.133    674.550    636.051    611.133    611.133
 75.570    749.000    696.962     52.038    610.997    671.991    636.012    610.997    610.997
 75.670    809.000    693.828    115.172    610.860    668.861    635.867    610.860    610.860
 75.770    721.000    690.897     30.103    610.721    665.687    635.964    610.721    610.721
 75.870    696.943    689.112      7.831    610.581    663.015    636.702    610.581    610.581
 75.970    691.000    689.448      1.552    610.439    661.376    638.528    610.439    610.439
 76.070    701.000    692.904      8.096    610.295    661.276    641.933    610.295    610.295
 76.170    695.000    700.505     -5.505    610.150    663.204    647.451    610.150    610.150
 76.270    726.000    713.252     12.748    610.004    667.615    655.631    610.004    610.004
 76.370    733.082    732.034      1.048    609.856    674.895    666.977    609.856    609.856
 76.470    752.336    757.489     -5.153    609.707    685.303    681.863    609.707    609.707
 76.570    788.000    789.816     -1.816    609.556    698.900    700.431    609.556    609.556
 76.670    795.000    828.582    -33.582    609.404    715.466    722.467    609.404    609.404
 76.770    894.000    872.530     21.470    609.250    734.417    747.300    609.250    609.250
 76.870    843.000    919.430    -76.430    609.095    754.742    773.710    609.095    609.095
 76.970    943.750    965.975    -22.225    608.938    774.959    799.874    608.938    608.938
 77.070   1013.521   1007.813      5.708    608.780    793.123    823.384    608.780    608.780
 77.170    987.000   1039.912    -52.912    608.620    807.001    841.447    608.620    608.620
 77.270   1062.000   1057.486      4.514    608.459    814.462    851.403    608.459    608.459
 77.370   1018.396   1057.477    -39.081    608.296    814.146    851.556    608.296    608.296
 77.470   1051.000   1039.798     11.202    608.132    806.010    841.860    608.132    608.132
 77.570   1068.421   1007.365     61.057    607.967    791.345    823.938    607.967    607.967
 77.670    922.000    964.893    -42.893    607.800    772.239    800.417    607.800    607.800
 77.770    924.067    917.405      6.662    607.632    750.915    774.093    607.632    607.632
 77.870    894.000    869.245     24.755    607.462    729.300    747.386    607.462    607.462
 77.970    867.617    823.703     43.913    607.291    708.850    722.130    607.291    607.291
 78.070    779.000    782.975     -3.975    607.118    690.537    699.547    607.118    607.118
 78.170    756.453    748.256      8.197    606.944    674.891    680.303    606.944    606.944
 78.270    705.305    719.900    -14.595    606.768    662.067    664.597    606.768    606.768
 78.370    743.000    697.625     45.375    606.591    651.941    652.273    606.591    606.591
 78.470    722.000    680.727     41.273    606.413    644.198    642.940    606.413    606.413
 78.570    660.000    668.295     -8.295    606.233    638.434    636.092    606.233    606.233
 78.670    651.000    659.379     -8.379    606.052    634.228    631.201    606.052    606.052
 78.770    630.478    653.110    -22.632    605.869    631.192    627.785    605.869    605.869
 78.870    655.027    648.763      6.264    605.685    629.004    625.441    605.685    605.685
 78.970    662.044    645.777     16.266    605.499    627.416    623.859    605.499    605.499
 79.070    609.000    643.749    -34.749    605.312    626.246    622.814    605.312    605.312
 79.170    596.284    642.405    -46.121    605.124    625.372    622.156    605.124    605.124
 79.270    619.883    641.572    -21.690    604.934    624.716    621.790    604.934    604.934
 79.370    647.000    641.155      5.845    604.743    624.233    621.664    604.743    604.743
 79.470    625.722    641.113    -15.392    604.551    623.903    621.759    604.551    604.551
 79.570    632.520    641.452     -8.933    604.357    623.724    622.084    604.357    604.357
 79.670    671.877    642.218     29.659    604.161    623.704    622.673    604.161    604.161
 79.770    614.922    643.502    -28.580    603.965    623.867    623.597    603.965    603.965
 79.870    613.000    645.454    -32.454    603.767    624.247    624.971    603.767    603.767
 79.970    685.982    648.303     37.679    603.567    624.889    626.978    603.567    603.567
 80.070    628.000    652.386    -24.386    603.367    625.855    629.892    603.367    603.367
 80.170    660.000    658.183      1.817    603.165    627.224    634.116    603.165    603.165
 80.270    653.000    666.361    -13.361    602.961    629.098    640.215    602.961    602.961
 80.370    637.000    677.804    -40.804    602.756    631.609    648.939    602.756    602.756
 80.470    723.780    693.623     30.156    602.550    634.919    661.239    602.550    602.550
 80.570    757.121    715.132     41.989    602.342    639.224    678.230    602.342    602.342
 80.670    759.000    743.756     15.244    602.134    644.747    701.118    602.134    602.134
 80.770    783.000    780.889      2.111    601.923    651.721    731.060    601.923    601.923
 80.870    866.000    827.680     38.320    601.712    660.382    768.973    601.712    601.712
 80.970    911.000    884.796     26.204    601.499    670.948    815.304    601.499    601.499
 81.070    994.766    952.146     42.620    601.285    683.594    869.789    601.285    601.285
 81.170   1089.000   1028.603     60.397    601.069    698.402    931.221    601.069    601.069
 81.270   1174.603   1111.760     62.843    600.853    715.292    997.273    600.853    600.853
 81.370   1265.782   1197.775     68.007    600.635    733.946   1064.420    600.635    600.635
 81.470   1213.296   1281.425    -68.130    600.415    753.773   1128.035    600.415    600.415
 81.570   1381.850   1356.509     25.341    600.195    773.916   1182.770    600.195    600.195
 81.670   1519.000   1416.713    102.287    599.973    793.344   1223.344    599.973    599.973
 81.770   1532.789   1456.821     75.969    599.749    810.994   1245.601    599.749    599.749
 81.870   1556.000   1473.755     82.245    599.525    825.919   1247.409    599.525    599.525
 81.970   1587.000   1466.944    120.056    599.299    837.381   1228.932    599.299    599.299
 82.070   1491.000   1438.095     52.905    599.072    844.905   1192.351    599.072    599.072
 82.170   1409.000   1390.758     18.242    598.844    848.309   1141.396    598.844    598.844
 82.270   1373.085   1329.722     43.363    598.614    847.654   1080.795    598.614    598.614
 82.370   1188.138   1260.293    -72.155    598.384    843.183   1015.611    598.384    598.384
 82.470   1208.000   1187.387     20.613    598.152    835.177    950.480    598.152    598.152
 82.570   1137.000   1114.979     22.021    597.918    823.941    889.071    597.918    597.918
 82.670    992.000   1046.101    -54.101    597.684    809.993    833.901    597.684    597.684
 82.770    998.000    982.871     15.129    597.448    794.066    786.355    597.448    597.448
 82.870    898.000    926.516    -28.516    597.211    776.980    746.840    597.211    597.211
 82.970    873.000    877.428     -4.428    596.973    759.463    715.021    596.973    596.973
 83.070    842.000    835.348      6.652    596.734    742.077    690.078    596.734    596.734
 83.170    776.000    799.656    -23.656    596.493    725.261    670.952    596.493    596.493
 83.270    699.000    769.657    -70.657    596.252    709.412    656.551    596.252    596.252
 83.370    754.521    744.745      9.775    596.009    694.919    645.881    596.009    596.009
 83.470    673.000    724.449    -51.449    595.765    682.133    638.117    595.765    595.765
 83.570    665.000    708.404    -43.404    595.520    671.334    632.617    595.520    595.520
 83.670    684.547    696.317    -11.770    595.273    662.703    628.905    595.273    595.273
 83.770    727.848    687.932     39.916    595.026    656.320    626.647    595.026    595.026
 83.870    683.000    682.994      0.006    594.777    652.164    625.606    594.777    594.777
 83.970    664.070    681.205    -17.136    594.528    650.122    625.601    594.528    594.528
 84.070    654.721    682.199    -27.477    594.277    649.984    626.473    594.277    594.277
 84.170    644.000    685.503    -41.503    594.025    651.450    628.050    594.025    594.025
 84.270    735.210    690.529     44.681    593.772    654.133    630.133    593.772    593.772
 84.370    701.970    696.569      5.400    593.517    657.564    632.480    593.517    593.517
 84.470    667.000    702.805    -35.805    593.262    661.211    634.808    593.262    593.262
 84.570    751.585    708.342     43.243    593.006    664.495    636.800    593.006    593.006
 84.670    710.000    712.284     -2.284    592.748    666.844    638.134    592.748    592.748
 84.770    669.000    713.869    -44.869    592.490    667.770    638.534    592.490    592.490
 84.870    733.000    712.631     20.369    592.230    666.974    637.835    592.230    592.230
 84.970    706.000    708.525     -2.525    591.969    664.416    636.030    591.969    591.969
 85.070    669.000    701.914    -32.914    591.708    660.310    633.268    591.708    591.708
 85.170    641.000    693.443    -52.443    591.445    655.042    629.808    591.445    591.445
 85.270    735.554    683.871     51.683    591.181    649.068    625.950    591.181    591.181
 85.370    628.000    673.927    -45.927    590.916    642.824    621.991    590.916    590.916
 85.470    663.000    664.244     -1.244    590.650    636.680    618.192    590.650    590.650
 85.570    674.000    655.333     18.667    590.384    630.926    614.771    590.384    590.384
 85.670    628.692    647.567    -18.875    590.116    625.763    611.904    590.116    590.116
 85.770    582.000    641.198    -59.198    589.847    621.309    609.721    589.847    589.847
 85.870    610.000    636.361    -26.361    589.577    617.609    608.316    589.577    589.577
 85.970    622.472    633.106    -10.635    589.306    614.651    607.749    589.306    589.306
 86.070    643.224    631.412     11.812    589.035    612.382    608.052    589.035    589.035
 86.170    642.498    631.209     11.289    588.762    610.729    609.228    588.762    588.762
 86.270    677.722    632.396     45.327    588.489    609.616    611.253    588.489    588.489
 86.370    630.000    634.847     -4.847    588.214    608.975    614.067    588.214    588.214
 86.470    608.000    638.417    -30.417    587.938    608.762    617.572    587.938    587.938
 86.570    591.878    642.941    -51.063    587.662    608.958    621.620    587.662    587.662
 86.670    603.779    648.230    -44.451    587.385    609.575    626.012    587.385    587.385
 86.770    605.708    654.075    -48.367    587.107    610.661    630.488    587.107    587.107
 86.870    695.000    660.240     34.760    586.828    612.292    634.738    586.828    586.828
 86.970    700.000    666.475     33.525    586.548    614.574    638.408    586.548    586.548
 87.070    631.000    672.543    -41.543    586.267    617.632    641.132    586.267    586.267
 87.170    718.824    678.260     40.564    585.985    621.599    642.596    585.985    585.985
 87.270    700.000    683.559     16.441    585.703    626.602    642.604    585.703    585.703
 87.370    679.000    688.519     -9.519    585.419    632.742    641.134    585.419    585.419
 87.470    714.585    693.344     21.241    585.135    640.069    638.339    585.135    585.135
 87.570    692.000    698.281     -6.281    584.850    648.560    634.493    584.850    584.850
 87.670    708.138    703.527      4.611    584.564    658.088    629.916    584.564    584.564
 87.770    707.000    709.153     -2.153    584.278    668.411    624.923    584.278    584.278
 87.870    761.329    715.055     46.274    583.990    679.150    619.788    583.990    583.990
 87.970    738.622    720.946     17.675    583.702    689.789    614.744    583.702    583.702
 88.070    779.000    726.356     52.644    583.413    699.676    609.970    583.413    583.413
 88.170    743.000    730.671     12.329    583.124    708.070    605.595    583.124    583.124
 88.270    729.835    733.227     -3.392    582.833    714.228    601.701    582.833    582.833
 88.370    780.000    733.469     46.531    582.542    717.563    598.319    582.542    582.542
 88.470    763.000    731.124     31.876    582.250    717.809    595.443    582.250    582.250
 88.570    764.000    726.299     37.701    581.958    715.103    593.040    581.958    581.958
 88.670    710.000    719.441     -9.441    581.665    709.945    591.060    581.665    581.665
 88.770    751.000    711.210     39.790    581.371    703.049    589.445    581.371    581.371
 88.870    701.000    702.340     -1.340    581.076    695.205    588.140    581.076    581.076
 88.970    703.000    693.547      9.453    580.781    687.181    587.091    580.781    580.781
 89.070    683.291    685.475     -2.183    580.485    679.666    586.252    580.485    580.485
 89.170    658.000    678.663    -20.663    580.188    673.238    585.585    580.188    580.188
 89.270    674.000    673.516      0.484    579.891    668.333    585.058    579.891    579.891
 89.370    692.000    670.278     21.722    579.593    665.221    584.645    579.593    579.593
 89.470    695.376    669.019     26.357    579.295    663.995    584.325    579.295    579.295
 89.570    676.000    669.643      6.357    578.996    664.578    584.077    578.996    578.996
 89.670    697.000    671.890     25.110    578.696    666.730    583.882    578.696    578.696
 89.770    667.945    675.359     -7.414    578.396    670.069    583.720    578.396    578.396
 89.870    724.837    679.528     45.309    578.096    674.094    583.573    578.096    578.096
 89.970    721.000    683.784     37.216    577.794    678.212    583.417    577.794    577.794
 90.070    735.000    687.461     47.539    577.493    681.780    583.231    577.493    577.493
 90.170    696.000    689.918      6.082    577.190    684.177    582.993    577.190    577.190
 90.270    741.138    690.623     50.515    576.887    684.889    582.688    576.887    576.887
 90.370    701.000    689.265     11.735    576.584    683.612    582.305    576.584    576.584
 90.470    649.000    685.810    -36.810    576.280    680.313    581.845    576.280    576.280
 90.570    689.000    680.493      8.507    575.976    675.217    581.318    575.976    575.976
 90.670    681.000    673.732      7.268    575.671    668.725    580.739    575.671    575.671
 90.770    636.000    666.022    -30.022    575.366    661.317    580.128    575.366    575.366
 90.870    700.000    657.856     42.144    575.061    653.466    579.501    575.061    575.061
 90.970    650.000    649.670      0.330    574.755    645.593    578.875    574.755    574.755
 91.070    623.000    641.821    -18.821    574.448    638.044    578.263    574.448    574.448
 91.170    613.000    634.582    -21.582    574.142    631.080    577.674    574.142    574.142
 91.270    602.000    628.136    -26.136    573.834    624.880    577.116    573.834    573.834
 91.370    585.000    622.590    -37.590    573.527    619.545    576.592    573.527    573.527
 91.470    625.000    617.981      7.019    573.219    615.112    576.103    573.219    573.219
 91.570    625.000    614.292     10.708    572.911    611.565    575.649    572.911    572.911
 91.670    578.000    611.470    -33.470    572.602    608.852    575.228    572.602    572.602
 91.770    621.283    609.444     11.839    572.293    606.906    574.837    572.293    572.293
 91.870    586.264    608.141    -21.877    571.984    605.654    574.474    571.984    571.984
 91.970    599.000    607.497     -8.497    571.675    605.036    574.137    571.675    571.675
 92.070    648.000    607.472     40.528    571.365    605.013    573.824    571.365    571.365
 92.170    593.462    608.057    -14.595    571.055    605.574    573.536    571.055    571.055
 92.270    623.688    609.277     14.412    570.745    606.745    573.273    570.745    570.745
 92.370    585.000    611.191    -26.191    570.435    608.582    573.037    570.435    570.435
 92.470    627.000    613.896     13.104    570.124    611.179    572.834    570.124    570.124
 92.570    619.000    617.518      1.482    569.813    614.656    572.666    569.813    569.813
 92.670    652.863    622.206     30.657    569.502    619.156    572.539    569.502    569.502
 92.770    682.000    628.121     53.879    569.191    624.837    572.459    569.191    569.191
 92.870    683.424    635.425     47.999    568.880    631.854    572.430    568.880    568.880
 92.970    664.000    644.264     19.736    568.569    640.349    572.458    568.569    568.569
 93.070    656.000    654.751      1.249    568.257    650.434    572.544    568.257    568.257
 93.170    638.000    666.956    -28.956    567.945    662.175    572.689    567.945    567.945
 93.270    697.000    680.881     16.119    567.634    675.579    572.892    567.634    567.634
 93.370    695.000    696.457     -1.457    567.322    690.578    573.150    567.322    567.322
 93.470    675.000    713.530    -38.530    567.010    707.025    573.458    567.010    567.010
 93.570    727.000    731.851     -4.851    566.698    724.675    573.810    566.698    566.698
 93.670    768.596    751.078     17.518    566.386    743.193    574.200    566.386    566.386
 93.770    703.000    770.783    -67.783    566.074    762.154    574.626    566.074    566.074
 93.870    764.000    790.491    -26.491    565.762    781.080    575.092    565.762    565.762
 93.970    790.000    809.746    -19.746    565.450    799.503    575.608    565.450    565.450
 94.070    841.820    828.213     13.607    565.138    817.060    576.203    565.138    565.138
 94.170    889.000    845.782     43.218    564.826    833.596    576.924    564.826    564.826
 94.270    825.000    862.625    -37.625    564.515    849.216    577.835    564.515    564.515
 94.370    884.000    879.057      4.943    564.203    864.154    579.016    564.203    564.203
 94.470    871.724    895.465    -23.741    563.891    878.713    580.555    563.891    563.891
 94.570    926.673    912.155     14.519    563.580    893.117    582.530    563.580    563.580
 94.670    935.172    929.260      5.912    563.268    907.436    585.006    563.268    563.268
 94.770    899.000    946.725    -47.725    562.957    921.579    588.019    562.957    562.957
 94.870    952.474    964.360    -11.886    562.646    935.354    591.569    562.646    562.646
 94.970    955.000    981.920    -26.920    562.335    948.561    595.614    562.335    562.335
 95.070   1029.859    999.146     30.713    562.025    961.031    600.062    562.025    562.025
 95.170   1000.000   1015.733    -15.733    561.714    972.601    604.771    561.714    561.714
 95.270   1015.000   1031.234    -16.234    561.404    983.020    609.549    561.404    561.404
 95.370   1051.968   1044.972      6.996    561.094    991.845    614.156    561.094    561.094
 95.470   1038.000   1055.997    -17.997    560.784    998.404    618.319    560.784    560.784
 95.570   1111.000   1063.153     47.847    560.475   1001.832    621.746    560.475    560.475
 95.670   1061.000   1065.237     -4.237    560.166   1001.205    624.156    560.166    560.166
 95.770   1123.834   1061.246     62.588    559.857    995.747    625.324    559.857    559.857
 95.870   1025.000   1050.653    -25.653    559.548    985.061    625.118    559.548    559.548
 95.970    998.005   1033.599    -35.594    559.240    969.294    623.533    559.240    559.240
 96.070   1036.482   1010.929     25.553    558.932    949.167    620.689    558.932    558.932
 96.170   1023.000    984.046     38.954    558.625    925.866    616.807    558.625    558.625
 96.270    945.000    954.704     -9.704    558.318    900.864    612.164    558.318    558.318
 96.370    904.000    924.778    -20.778    558.011    875.742    607.055    558.011    558.011
 96.470    905.000    896.115      8.885    557.705    852.070    601.759    557.705    557.705
 96.570    873.000    870.448      2.552    557.400    831.334    596.521    557.400    557.400
 96.670    813.098    849.353    -36.255    557.094    814.905    591.546    557.094    557.094
 96.770    830.000    834.215     -4.215    556.790    804.014    586.989    556.790    556.790
 96.870    813.758    826.220    -12.462    556.486    799.741    582.957    556.486    556.486
 96.970    820.000    826.340     -6.340    556.182    802.999    579.508    556.182    556.182
 97.070    801.000    835.331    -34.331    555.879    814.523    576.663    555.879    555.879
 97.170    826.000    853.719    -27.719    555.576    834.854    574.409    555.576    555.576
 97.270    853.237    881.784    -28.547    555.274    864.306    572.710    555.274    555.274
 97.370    977.977    919.534     58.443    554.973    902.939    571.516    554.973    554.973
 97.470    974.375    966.672      7.703    554.672    950.514    570.770    554.672    554.672
 97.570   1055.000   1022.545     32.455    554.372   1006.436    570.411    554.372    554.372
 97.670   1112.000   1086.053     25.947    554.073   1069.675    570.373    554.073    554.073
 97.770   1115.569   1155.817    -40.247    553.774   1138.911    570.597    553.774    553.774
 97.870   1199.000   1229.825    -30.825    553.476   1212.201    571.012    553.476    553.476
 97.970   1353.000   1305.586     47.414    553.179   1287.128    571.549    553.179    553.179
 98.070   1353.000   1380.117    -27.117    552.882   1360.782    572.132    552.882    552.882
 98.170   1480.000   1449.976     30.024    552.586   1429.803    572.680    552.586    552.586
 98.270   1479.000   1511.432    -32.432    552.291   1490.541    573.113    552.291    552.291
 98.370   1543.000   1560.714    -17.714    551.997   1539.306    573.350    551.997    551.997
 98.470   1634.000   1594.474     39.526    551.704   1572.817    573.322    551.704    551.704
 98.570   1619.000   1610.342      8.658    551.411   1588.754    572.979    551.411    551.411
 98.670   1586.758   1607.399    -20.642    551.120   1586.217    572.302    551.120    551.120
 98.770   1559.682   1586.364    -26.682    550.829   1565.907    571.304    550.829    550.829
 98.870   1557.000   1549.408      7.592    550.539   1529.953    570.028    550.539    550.539
 98.970   1475.000   1499.714    -24.714    550.250   1481.475    568.535    550.250    550.250
 99.070   1458.000   1440.967     17.033    549.962   1424.088    566.896    549.962    549.962
 99.170   1414.000   1376.945     37.055    549.675   1361.498    565.181    549.675    549.675
 99.270   1309.000   1311.239     -2.239    549.389   1297.230    563.458    549.389    549.389
 99.370   1228.000   1247.098    -19.098    549.104   1234.476    561.786    549.104    549.104
 99.470   1216.000   1187.353     28.647    548.819   1176.015    560.213    548.819    548.819
 99.570   1099.270   1134.389    -35.119    548.536   1124.193    558.782    548.536    548.536
 99.670   1153.417   1090.162     63.255    548.254   1080.935    557.524    548.254    548.254
 99.770   1096.000   1056.231     39.769    547.974   1047.779    556.460    547.974    547.974
 99.870    997.000   1033.790    -36.790    547.694   1025.906    555.603    547.694    547.694
 99.970   1027.000   1023.702      3.298    547.415   1016.174    554.960    547.415    547.415
100.070   1035.000   1026.514      8.486    547.138   1019.134    554.529    547.138    547.138
100.170   1061.153   1042.474     18.679    546.861   1035.040    554.300    546.861    546.861
100.270   1065.194   1071.533     -6.339    546.586   1063.859    554.259    546.586    546.586
100.370   1144.719   1113.352     31.367    546.312   1105.273    554.388    546.312    546.312
100.470   1187.000   1167.299     19.701    546.040   1158.671    554.662    546.040    546.040
100.570   1275.000   1232.431     42.569    545.768   1223.142    555.054    545.768    545.768
100.670   1383.251   1307.479     75.772    545.498   1297.446    555.532    545.498    545.498
100.770   1436.000   1390.811     45.189    545.229   1379.987    556.060    545.229    545.229
100.870   1474.000   1480.407     -6.407    544.962   1468.785    556.600    544.962    544.962
100.970   1584.000   1573.852     10.148    544.696   1561.465    557.113    544.696    544.696
101.070   1696.605   1668.374     28.231    544.431   1655.294    557.557    544.431    544.431
101.170   1763.000   1760.965      2.035    544.167   1747.305    557.893    544.167    544.167
101.270   1891.000   1848.597     42.403    543.905   1834.502    558.088    543.905    543.905
101.370   1895.000   1928.485    -33.485    543.645   1914.120    558.122    543.645    543.645
101.470   2045.000   1998.401     46.599    543.386   1983.937    557.986    543.386    543.386
101.570   1994.948   2056.661    -61.713    543.128   2042.257    557.692    543.128    543.128
101.670   2143.842   2102.085     41.757    542.872   2087.878    557.262    542.872    542.872
101.770   2056.218   2133.780    -77.562    542.617   2119.870    556.731    542.617    542.617
101.870   2225.000   2150.933     74.067    542.364   2137.382    556.138    542.364    542.364
101.970   2194.546   2152.787     41.758    542.113   2139.618    555.519    542.113    542.113
102.070   2114.000   2138.835    -24.835    541.863   2126.037    554.909    541.863    541.863
102.170   2108.000   2109.176     -1.176    541.615   2096.708    554.339    541.615    541.615
102.270   2019.000   2064.865    -45.865    541.368   2052.662    553.831    541.368    541.368
102.370   1987.000   2008.056    -21.056    541.123   1996.036    553.402    541.123    541.123
102.470   1963.000   1941.834     21.166    540.880   1929.907    553.062    540.880    540.880
102.570   1927.614   1869.806     57.808    540.639   1857.879    552.813    540.639    540.639
102.670   1785.000   1795.610    -10.610    540.399   1783.598    552.647    540.399    540.399
102.770   1650.000   1722.502    -72.502    540.161   1710.336    552.550    540.161    540.161
102.870   1599.614   1653.104    -53.491    539.925   1640.736    552.502    539.925    539.925
102.970   1629.914   1589.284     40.630    539.690   1576.690    552.479    539.690    539.690
103.070   1488.000   1532.134    -44.134    539.458   1519.317    552.455    539.458    539.458
103.170   1447.000   1482.004    -35.004    539.227   1468.992    552.407    539.227    539.227
103.270   1383.000   1438.560    -55.560    538.998   1425.401    552.314    538.998    538.998
103.370   1338.000   1400.864    -62.864    538.771   1387.627    552.156    538.771    538.771
103.470   1392.000   1367.496     24.504    538.546   1354.266    551.917    538.546    538.546
103.570   1321.991   1336.717    -14.726    538.323   1323.594    551.581    538.323    538.323
103.670   1366.267   1306.691     59.576    538.102   1293.788    551.136    538.102    538.102
103.770   1265.000   1275.746    -10.746    537.883   1263.181    550.575    537.883    537.883
103.870   1282.708   1242.612     40.096    537.666   1230.506    549.897    537.666    537.666
103.970   1165.280   1206.578    -41.298    537.451   1195.042    549.110    537.451    537.451
104.070   1152.000   1167.524    -15.524    537.239   1156.652    548.230    537.239    537.239
104.170   1121.000   1125.824     -4.824    537.028   1115.688    547.279    537.028    537.028
104.270   1044.000   1082.200    -38.200    536.819   1072.849    546.281    536.819    536.819
104.370    997.000   1037.533    -40.533    536.613   1028.988    545.261    536.613    536.613
104.470    989.000    992.750     -3.750    536.409    985.013    544.242    536.409    536.409
104.570    935.000    948.736    -13.736    536.207    941.788    543.245    536.207    536.207
104.670    888.000    906.286    -18.286    536.007    900.091    542.284    536.007    536.007
104.770    910.000    866.071     43.929    535.809    860.581    541.373    535.809    535.809
104.870    864.000    828.628     35.372    535.614    823.787    540.520    535.614    535.614
104.970    825.000    794.347     30.653    535.421    790.095    539.732    535.421    535.421
105.070    781.000    763.477     17.523    535.231    759.748    539.011    535.231    535.231
105.170    776.859    736.127     40.733    535.042    732.855    538.357    535.042    535.042
105.270    731.338    712.281     19.057    534.857    709.406    537.769    534.857    534.857
105.370    739.000    691.822     47.178    534.673    689.283    537.243    534.673    534.673
105.470    690.000    674.534     15.466    534.492    672.283    536.769    534.492    534.492
105.570    692.000    660.182     31.818    534.314    658.170    536.347    534.314    534.314
105.670    696.000    648.506     47.494    534.138    646.682    535.979    534.138    534.138
105.770    642.162    639.197      2.964    533.964    637.522    535.652    533.964    533.964
105.870    641.000    631.974      9.026    533.794    630.415    535.362    533.794    533.794
105.970    645.048    626.582     18.466    533.625    625.110    535.104    533.625    533.625
106.070    644.000    622.800     21.200    533.460    621.391    534.874    533.460    533.460
106.170    624.000    620.448      3.552    533.297    619.079    534.667    533.297    533.297
106.270    617.037    619.386     -2.349    533.136    618.039    534.483    533.136    533.136
106.370    595.000    619.515    -24.515    532.979    618.172    534.319    532.979    532.979
106.470    603.000    620.771    -17.771    532.824    619.417    534.173    532.824    532.824
106.570    614.000    623.122     -9.122    532.671    621.740    534.045    532.671    532.671
106.670    623.000    626.555     -3.555    532.522    625.133    533.934    532.522    532.522
106.770    630.000    631.078     -1.078    532.375    629.599    533.841    532.375    532.375
106.870    658.000    636.701     21.299    532.232    635.153    533.764    532.232    532.232
106.970    652.637    643.439      9.198    532.091    641.806    533.705    532.091    532.091
107.070    678.000    651.295     26.705    531.953    649.563    533.662    531.953    531.953
107.170    705.050    660.253     44.797    531.818    658.409    533.636    531.818    531.818
107.270    653.000    670.273    -17.273    531.686    668.303    533.627    531.686    531.686
107.370    665.000    681.276    -16.276    531.556    679.168    533.632    531.556    531.556
107.470    686.891    693.142     -6.250    531.430    690.886    533.650    531.430    531.430
107.570    681.679    705.701    -24.022    531.307    703.290    533.680    531.307    531.307
107.670    696.000    718.737    -22.737    531.187    716.165    533.717    531.187    531.187
107.770    732.000    731.982      0.018    531.070    729.249    533.759    531.070    531.070
107.870    750.000    745.123      4.877    530.956    742.233    533.800    530.956    530.956
107.970    781.000    757.810     23.190    530.845    754.771    533.836    530.845    530.845
108.070    769.000    769.665     -0.665    530.738    766.492    533.861    530.738    530.738
108.170    782.284    780.307      1.976    530.634    777.021    533.870    530.634    530.634
108.270    760.144    789.386    -29.243    530.533    786.012    533.858    530.533    530.533
108.370    784.000    796.623    -12.623    530.435    793.191    533.821    530.435    530.435
108.470    772.000    801.857    -29.857    530.340    798.399    533.754    530.340    530.340
108.570    795.000    805.077    -10.077    530.249    801.627    533.659    530.249    530.249
108.670    857.729    806.436     51.293    530.161    803.025    533.536    530.161    530.161
108.770    819.000    806.229     12.771    530.077    802.887    533.388    530.077    530.077
108.870    759.377    804.854    -45.477    529.996    801.602    533.220    529.996    529.996
108.970    796.876    802.753     -5.877    529.918    799.610    533.039    529.918    529.918
109.070    787.021    800.368    -13.346    529.844    797.345    532.849    529.844    529.844
109.170    802.896    798.094      4.802    529.774    795.198    532.657    529.774    529.774
109.270    797.000    796.255      0.745    529.707    793.486    532.467    529.707    529.707
109.370    829.504    795.084     34.420    529.643    792.440    532.283    529.643    529.643
109.470    729.000    794.716    -65.716    529.583    792.189    532.110    529.583    529.583
109.570    694.000    795.178   -101.178    529.527    792.760    531.948    529.527    529.527
109.670    747.000    796.393    -49.393    529.475    794.074    531.800    529.475    529.475
109.770    764.000    798.180    -34.180    529.426    795.950    531.667    529.426    529.426
109.870    857.022    800.264     56.758    529.381    798.112    531.546    529.381    529.381
109.970    749.000    802.287    -53.287    529.339    800.206    531.438    529.339    529.339
110.070    796.785    803.840     -7.055    529.302    801.822    531.340    529.302    529.302
110.170    855.953    804.488     51.464    529.268    802.530    531.250    529.268    529.268
110.270    793.000    803.826    -10.826    529.238    801.924    531.166    529.238    529.238
110.370    768.000    801.523    -33.523    529.212    799.678    531.086    529.212    529.212
110.470    820.000    797.371     22.629    529.190    795.584    531.008    529.190    529.190
110.570    775.000    791.309    -16.309    529.172    789.582    530.930    529.172    529.172
110.670    783.000    783.427     -0.427    529.157    781.764    530.853    529.157    529.157
110.770    807.000    773.939     33.061    529.147    772.342    530.776    529.147    529.147
110.870    770.000    763.132      6.868    529.141    761.616    530.689    529.141    529.141
110.970    703.467    751.385    -47.918    529.139    749.941    530.614    529.139    529.139
111.070    694.000    739.049    -45.049    529.141    737.672    530.547    529.141    529.141
111.170    714.000    726.466    -12.466    529.147    725.155    530.486    529.147    529.147
111.270    767.381    713.952     53.428    529.158    712.704    530.431    529.158    529.158
111.370    660.148    701.787    -41.638    529.172    700.598    530.384    529.172    529.172
111.470    655.999    690.204    -34.205    529.191    689.070    530.345    529.191    529.191
111.570    694.000    679.395     14.605    529.214    678.310    530.317    529.214    529.214
111.670    694.000    669.497     24.503    529.242    668.457    530.297    529.242    529.242
111.770    686.000    660.631     25.369    529.274    659.628    530.289    529.274    529.274
111.870    683.000    652.851     30.149    529.310    651.880    530.291    529.310    529.310
111.970    630.000    646.180    -16.180    529.350    645.234    530.304    529.350    529.350
112.070    625.592    640.608    -15.016    529.395    639.681    530.327    529.395    529.395
112.170    650.000    636.098     13.902    529.445    635.185    530.361    529.445    529.445
112.270    665.000    632.593     32.407    529.499    631.689    530.404    529.499    529.499
112.370    642.000    630.019     11.981    529.557    629.119    530.457    529.557    529.557
112.470    647.000    628.293     18.707    529.620    627.392    530.518    529.620    529.620
112.570    623.001    627.326     -4.325    529.688    626.422    530.588    529.688    529.688
112.670    625.000    627.030     -2.030    529.760    626.120    530.666    529.760    529.760
112.770    654.000    627.320     26.680    529.837    626.402    530.750    529.837    529.837
112.870    652.491    628.119     24.373    529.919    627.191    530.840    529.919    529.919
112.970    647.000    629.356     17.644    530.006    628.417    530.937    530.006    530.006
113.070    648.000    630.974     17.026    530.097    630.024    531.039    530.097    530.097
113.170    645.000    632.928     12.072    530.193    631.966    531.146    530.193    530.193
113.270    586.642    635.186    -48.544    530.294    634.213    531.258    530.294    530.294
113.370    663.000    637.733     25.267    530.400    636.749    531.375    530.400    530.400
113.470    671.945    640.570     31.375    530.511    639.574    531.497    530.511    530.511
113.570    622.686    643.713    -21.027    530.627    642.704    531.625    530.627    530.627
113.670    672.839    647.195     25.644    530.747    646.172    531.759    530.747    530.747
113.770    634.000    651.071    -17.071    530.873    650.032    531.901    530.873    530.873
113.870    619.000    655.414    -36.414    531.004    654.354    532.051    531.004    531.004
113.970    665.061    660.319      4.741    531.140    659.236    532.210    531.140    531.140
114.070    659.000    665.915     -6.915    531.281    664.801    532.380    531.281    531.281
114.170    705.000    672.362     32.638    531.427    671.211    532.562    531.427    531.427
114.270    683.000    679.868      3.132    531.579    678.672    532.758    531.579    531.579
114.370    694.000    688.696      5.304    531.735    687.443    532.970    531.735    531.735
114.470    733.354    699.177     34.177    531.897    697.855    533.199    531.897    531.897
114.570    674.000    711.724    -37.724    532.065    710.316    533.448    532.065    532.065
114.670    713.000    726.848    -13.848    532.237    725.337    533.719    532.237    532.237
114.770    724.867    745.174    -20.307    532.415    743.539    534.016    532.415    532.415
114.870    727.000    767.461    -40.461    532.599    765.677    534.341    532.599    532.599
114.970    795.000    794.615      0.385    532.788    792.656    534.697    532.788    532.788
115.070    883.583    827.706     55.877    532.982    825.541    535.088    532.982    532.982
115.170    883.000    867.979     15.021    533.182    865.573    535.516    533.182    533.182
115.270    940.345    916.858     23.487    533.388    914.173    535.986    533.388    533.388
115.370    904.000    975.946    -71.946    533.599    972.939    536.501    533.599    533.599
115.470   1054.000   1047.012      6.988    533.816   1043.638    537.064    533.816    533.816
115.570   1139.000   1131.969      7.031    534.039   1128.179    537.679    534.039    534.039
115.670   1157.000   1232.836    -75.836    534.267   1228.578    538.348    534.267    534.267
115.770   1422.926   1351.686     71.240    534.501   1346.905    539.074    534.501    534.501
115.870   1530.083   1490.578     39.505    534.741   1485.218    539.858    534.741    534.741
115.970   1741.000   1651.472     89.528    534.986   1645.476    540.702    534.986    534.986
116.070   1854.000   1836.133     17.867    535.238   1829.444    541.606    535.238    535.238
116.170   1953.876   2046.016    -92.140    535.495   2038.581    542.568    535.495    535.495
116.270   2288.614   2282.154      6.460    535.759   2273.920    543.586    535.759    535.759
116.370   2559.000   2545.029     13.971    536.028   2535.949    544.657    536.028    536.028
116.470   2764.000   2834.456    -70.456    536.304   2824.491    545.773    536.304    536.304
116.570   3224.634   3149.474     75.160    536.585   3138.593    546.929    536.585    536.585
116.670   3377.728   3488.251   -110.523    536.873   3476.432    548.116    536.873    536.873
116.770   3954.343   3848.013    106.330    537.167   3835.247    549.323    537.167    537.167
116.870   4288.000   4224.994     63.006    537.467   4211.284    550.539    537.467    537.467
116.970   4588.175   4614.427    -26.252    537.773   4599.789    551.754    537.773    537.773
117.070   4919.000   5010.550    -91.550    538.085   4995.014    552.954    538.085    538.085
117.170   5424.000   5406.639     17.361    538.404   5390.247    554.130    538.404    538.404
117.270   5845.630   5795.154     50.476    538.729   5777.962    555.269    538.729    538.729
117.370   6119.000   6167.851    -48.851    539.061   6149.923    556.363    539.061    539.061
117.470   6513.000   6515.862     -2.862    539.399   6497.277    557.399    539.399    539.399
117.570   6877.664   6830.062     47.602    539.743   6810.909    558.367    539.743    539.743
117.670   7163.210   7101.398     61.812    540.094   7081.779    559.254    540.094    540.094
117.770   7473.882   7321.364    152.518    540.452   7301.388    560.051    540.452    540.452
117.870   7438.025   7482.558    -44.533    540.816   7462.343    560.746    540.816    540.816
117.970   7549.000   7579.292    -30.292    541.186   7558.960    561.333    541.186    541.186
118.070   7627.214   7608.128     19.086    541.564   7587.803    561.807    541.564    541.564
118.170   7556.000   7568.244    -12.244    541.948   7548.048    562.164    541.948    541.948
118.270   7533.000   7461.516     71.484    542.338   7441.563    562.408    542.338    542.338
118.370   7168.650   7292.312   -123.663    542.736   7272.710    562.543    542.736    542.736
118.470   6997.360   7067.042    -69.682    543.140   7047.887    562.577    543.140    543.140
118.570   6794.000   6793.566      0.434    543.552   6774.944    562.520    543.552    543.552
118.670   6350.000   6480.603   -130.603    543.970   6462.586    562.383    543.970    543.970
118.770   5977.000   6137.185   -160.185    544.395   6119.838    562.175    544.395    544.395
118.870   5854.884   5772.242     82.642    544.827   5755.615    561.910    544.827    544.827
118.970   5219.000   5394.276   -175.276    545.266   5378.410    561.599    545.266    545.266
119.070   4872.733   5011.141   -138.407    545.712   4996.066    561.253    545.712    545.712
119.170   4625.000   4629.883     -4.883    546.166   4615.618    560.885    546.166    546.166
119.270   4344.541   4256.641     87.900    546.626   4243.194    560.508    546.626    546.626
119.370   3953.000   3896.575     56.425    547.094   3883.944    560.134    547.094    547.094
119.470   3485.198   3553.851    -68.653    547.569   3542.022    559.774    547.569    547.569
119.570   3299.000   3231.644     67.356    548.051   3220.596    559.440    548.051    548.051
119.670   3021.000   2932.183     88.817    548.541   2921.886    559.141    548.541    548.541
119.770   2654.276   2656.829     -2.553    549.037   2647.245    558.887    549.037    549.037
119.870   2326.000   2406.162    -80.162    549.542   2397.247    558.684    549.542    549.542
119.970   2235.930   2180.098     55.832    550.054   2171.804    558.540    550.054    550.054
120.070   2020.000   1978.004     41.996    550.573   1970.276    558.458    550.573    550.573
120.170   1823.900   1798.811     25.090    551.100   1791.593    558.444    551.100    551.100
120.270   1608.994   1641.126    -32.132    551.634   1634.359    558.501    551.634    551.634
120.370   1492.000   1503.331    -11.331    552.176   1496.954    558.629    552.176    552.176
120.470   1426.728   1383.676     43.053    552.726   1377.624    558.833    552.726    552.726
120.570   1294.000   1280.350     13.650    553.283   1274.561    559.111    553.283    553.283
120.670   1235.000   1191.557     43.443    553.849   1185.964    559.466    553.849    553.849
120.770   1150.000   1115.559     34.441    554.421   1110.097    559.897    554.421    554.421
120.870   1083.000   1050.725     32.275    555.002   1045.327    560.405    555.002    555.002
120.970   1042.968    995.554     47.414    555.591    990.154    560.991    555.591    555.591
121.070    902.880    948.696    -45.817    556.188    943.224    561.655    556.188    556.188
121.170    886.000    908.954    -22.954    556.792    903.342    562.398    556.792    556.792
121.270    866.000    875.287     -9.287    557.405    869.464    563.220    557.405    557.405
121.370    914.000    846.800     67.200    558.026    840.694    564.123    558.026    558.026
121.470    870.393    822.733     47.660    558.654    816.270    565.109    558.654    558.654
121.570    833.000    802.449     30.551    559.291    795.554    566.179    559.291    559.291
121.670    751.000    785.416    -34.416    559.937    778.012    567.335    559.937    559.937
121.770    779.000    771.193      7.807    560.590    763.200    568.579    560.590    560.590
121.870    796.782    759.417     37.365    561.252    750.753    569.913    561.252    561.252
121.970    723.000    749.787    -26.787    561.922    740.368    571.339    561.922    561.922
122.070    763.303    742.054     21.249    562.600    731.796    572.859    562.600    562.600
122.170    685.000    736.012    -51.012    563.287    724.828    574.473    563.287    563.287
122.270    737.143    731.487      5.656    563.982    719.290    576.183    563.982    563.982
122.370    718.000    728.330    -10.330    564.686    715.032    577.990    564.686    564.686
122.470    722.000    726.412     -4.412    565.398    711.926    579.892    565.398    565.398
122.570    742.301    725.617     16.684    566.119    709.857    581.888    566.119    566.119
122.670    749.906    725.841     24.065    566.849    708.723    583.978    566.849    566.849
122.770    697.000    726.985    -29.985    567.587    708.429    586.156    567.587    567.587
122.870    774.000    728.953     45.047    568.334    708.884    588.418    568.334    568.334
122.970    727.000    731.650     -4.650    569.090    709.999    590.757    569.090    569.090
123.070    720.088    734.978    -14.889    569.855    711.689    593.162    569.855    569.855
123.170    728.334    738.836    -10.503    570.628    713.864    595.622    570.628    570.628
123.270    713.000    743.120    -30.120    571.411    716.435    598.120    571.411    571.411
123.370    694.000    747.719    -53.719    572.202    719.309    600.638    572.202    572.202
123.470    785.948    752.514     33.434    573.003    722.391    603.155    573.003    573.003
123.570    740.088    757.382    -17.294    573.812    725.582    605.645    573.812    573.812
123.670    764.000    762.193      1.807    574.631    728.778    608.081    574.631    574.631
123.770    770.000    766.813      3.187    575.459    731.876    610.435    575.459    575.459
123.870    824.234    771.106     53.128    576.296    734.769    612.674    576.296    576.296
123.970    773.000    774.933     -1.933    577.142    737.353    614.768    577.142    577.142
124.070    738.000    778.161    -40.161    577.997    739.524    616.683    577.997    577.997
124.170    814.000    780.668     33.332    578.862    741.190    618.392    578.862    578.862
124.270    801.000    782.345     18.655    579.737    742.268    619.868    579.737    579.737
124.370    766.000    783.106    -17.106    580.620    742.693    621.090    580.620    580.620
124.470    803.000    782.892     20.108    581.514    742.420    622.045    581.514    581.514
124.570    778.000    781.677     -3.677    582.417    741.426    622.728    582.417    582.417
124.670    807.000    779.446     27.554    583.329    739.696    623.141    583.329    583.329
124.770    794.000    776.268     17.732    584.251    737.284    623.297    584.251    584.251
124.870    740.606    772.229    -31.623    585.183    734.258    623.217    585.183    585.183
124.970    805.000    767.403     37.597    586.124    730.665    622.924    586.124    586.124
