neutron_powder_diffraction_0154
R_wp: 3.888
Temperature (K): 1074.000
Counts: 83248.00
Wavelength (Ã…): 2.52098
COMMENTS
Test file for demonstrating the .xyy file format in Reel1.0
END OF HEADER
   tth       Y_obs     Y_calc      Y_res    Background    Phase_1_Nuc    Phase_1_Mag    Phase_2_Nuc    Phase_2_Mag
  9.970    560.000    573.648    -13.648    572.938    573.591    572.938    572.995    572.938
 10.070    573.000    573.706     -0.706    572.940    573.648    572.940    572.997    572.940
 10.170    646.000    573.767     72.233    572.937    573.709    572.937    572.994    572.937
 10.270    635.000    573.833     61.167    572.929    573.775    572.929    572.987    572.929
 10.370    616.222    573.907     42.314    572.917    573.849    572.917    572.975    572.917
 10.470    545.000    573.991    -28.991    572.900    573.933    572.900    572.958    572.900
 10.570    566.559    574.089     -7.530    572.879    574.030    572.879    572.937    572.879
 10.670    598.000    574.205     23.795    572.853    574.146    572.853    572.911    572.853
 10.770    629.000    574.347     54.653    572.823    574.287    572.823    572.881    572.823
 10.870    606.000    574.522     31.478    572.788    574.462    572.788    572.847    572.788
 10.970    578.000    574.743      3.257    572.749    574.683    572.749    572.808    572.749
 11.070    622.310    575.028     47.283    572.706    574.967    572.706    572.765    572.706
 11.170    584.000    575.402      8.598    572.658    575.341    572.658    572.718    572.658
 11.270    568.134    575.904     -7.770    572.607    575.842    572.607    572.667    572.607
 11.370    559.000    576.600    -17.600    572.551    576.537    572.551    572.611    572.551
 11.470    614.000    577.636     36.364    572.491    577.573    572.491    572.551    572.491
 11.570    624.000    579.424     44.576    572.427    579.359    572.427    572.488    572.427
 11.670    549.000    583.138    -34.138    572.359    583.071    572.359    572.420    572.359
 11.770    641.583    591.549     50.034    572.287    591.477    572.287    572.348    572.287
 11.870    605.000    609.185     -4.185    572.210    609.103    572.210    572.272    572.210
 11.970    693.000    639.628     53.372    572.131    639.529    572.131    572.193    572.131
 12.070    702.000    679.004     22.996    572.047    678.880    572.047    572.113    572.047
 12.170    698.000    710.031    -12.031    571.959    709.888    571.959    572.027    571.959
 12.270    691.000    710.957    -19.957    571.868    710.813    571.868    571.936    571.868
 12.370    694.000    680.862     13.138    571.772    680.734    571.772    571.841    571.772
 12.470    624.000    641.123    -17.123    571.674    641.016    571.674    571.743    571.674
 12.570    620.000    609.795     10.205    571.571    609.705    571.571    571.641    571.571
 12.670    575.208    591.363    -16.155    571.465    591.283    571.465    571.535    571.465
 12.770    571.000    582.427    -11.427    571.355    582.351    571.355    571.425    571.355
 12.870    572.000    578.387     -6.387    571.242    578.313    571.242    571.312    571.242
 12.970    620.721    576.366     44.356    571.125    576.292    571.125    571.196    571.125
 13.070    554.446    575.128    -20.682    571.005    575.054    571.005    571.076    571.005
 13.170    593.661    574.242     19.419    570.881    574.169    570.881    570.953    570.881
 13.270    586.000    573.557     12.443    570.754    573.484    570.754    570.826    570.754
 13.370    533.720    573.003    -39.284    570.624    572.930    570.624    570.696    570.624
 13.470    581.000    572.541      8.459    570.490    572.467    570.490    570.563    570.490
 13.570    525.000    572.144    -47.144    570.353    572.070    570.353    570.426    570.353
 13.670    549.000    571.794    -22.794    570.213    571.720    570.213    570.286    570.213
 13.770    531.359    571.480    -40.121    570.070    571.406    570.070    570.143    570.070
 13.870    578.548    571.193      7.356    569.923    571.118    569.923    569.997    569.923
 13.970    596.000    570.926     25.074    569.774    570.851    569.774    569.848    569.774
 14.070    571.890    570.674      1.216    569.621    570.599    569.621    569.696    569.621
 14.170    538.000    570.434    -32.434    569.465    570.359    569.465    569.540    569.465
 14.270    549.142    570.204    -21.062    569.307    570.128    569.307    569.382    569.307
 14.370    535.000    569.984    -34.984    569.145    569.907    569.145    569.221    569.145
 14.470    535.000    569.767    -34.767    568.980    569.691    568.980    569.057    568.980
 14.570    580.101    569.553     10.548    568.813    569.476    568.813    568.890    568.813
 14.670    591.000    569.342     21.658    568.643    569.265    568.643    568.720    568.643
 14.770    562.671    569.133     -6.462    568.469    569.055    568.469    568.547    568.469
 14.870    576.000    568.926      7.074    568.294    568.847    568.294    568.371    568.294
 14.970    539.000    568.719    -29.719    568.115    568.640    568.115    568.193    568.115
 15.070    589.000    568.513     20.487    567.934    568.434    567.934    568.012    567.934
 15.170    547.000    568.307    -21.307    567.750    568.227    567.750    567.829    567.750
 15.270    588.000    568.100     19.900    567.563    568.021    567.563    567.643    567.563
 15.370    524.244    567.893    -43.650    567.374    567.813    567.374    567.454    567.374
 15.470    585.000    567.686     17.314    567.182    567.605    567.182    567.262    567.182
 15.570    587.332    567.479     19.853    566.988    567.397    566.988    567.069    566.988
 15.670    559.000    567.271     -8.271    566.791    567.189    566.791    566.872    566.791
 15.770    612.897    567.061     45.836    566.592    566.979    566.592    566.673    566.592
 15.870    555.000    566.849    -11.849    566.390    566.766    566.390    566.472    566.390
 15.970    560.000    566.636     -6.636    566.186    566.553    566.186    566.269    566.186
 16.070    606.645    566.421     40.224    565.979    566.338    565.979    566.063    565.979
 16.170    557.719    566.205     -8.486    565.771    566.121    565.771    565.854    565.771
 16.270    599.245    565.988     33.257    565.560    565.903    565.560    565.644    565.560
 16.370    606.000    565.769     40.231    565.346    565.684    565.346    565.431    565.346
 16.470    572.000    565.548      6.452    565.131    565.463    565.131    565.216    565.131
 16.570    604.573    565.327     39.246    564.913    565.241    564.913    564.999    564.913
 16.670    591.950    565.103     26.847    564.694    565.017    564.694    564.780    564.694
 16.770    549.989    564.878    -14.889    564.472    564.791    564.472    564.558    564.472
 16.870    533.687    564.651    -30.964    564.248    564.564    564.248    564.335    564.248
 16.970    572.000    564.423      7.577    564.022    564.335    564.022    564.109    564.022
 17.070    557.000    564.193     -7.193    563.794    564.104    563.794    563.882    563.794
 17.170    519.897    563.964    -44.067    563.563    563.875    563.563    563.652    563.563
 17.270    568.000    563.731      4.269    563.331    563.642    563.331    563.421    563.331
 17.370    565.000    563.497      1.503    563.097    563.406    563.097    563.188    563.097
 17.470    539.833    563.261    -23.427    562.862    563.170    562.862    562.953    562.862
 17.570    564.000    563.025      0.975    562.624    562.932    562.624    562.717    562.624
 17.670    604.889    562.787     42.103    562.384    562.692    562.384    562.479    562.384
 17.770    570.000    562.546      7.454    562.143    562.451    562.143    562.239    562.143
 17.870    607.856    562.304     45.552    561.900    562.208    561.900    561.996    561.900
 17.970    551.000    562.061    -11.061    561.655    561.964    561.655    561.752    561.655
 18.070    536.000    561.817    -25.817    561.409    561.719    561.409    561.506    561.409
 18.170    584.000    561.570     22.430    561.161    561.472    561.161    561.259    561.161
 18.270    527.000    561.323    -34.323    560.911    561.224    560.911    561.009    560.911
 18.370    544.000    561.074    -17.074    560.659    560.975    560.659    560.759    560.659
 18.470    595.000    560.824     34.176    560.406    560.724    560.406    560.506    560.406
 18.570    570.348    560.572      9.776    560.152    560.471    560.152    560.253    560.152
 18.670    524.000    560.320    -36.320    559.896    560.218    559.896    559.997    559.896
 18.770    582.542    560.066     22.476    559.638    559.963    559.638    559.740    559.638
 18.870    593.762    559.811     33.951    559.379    559.707    559.379    559.482    559.379
 18.970    575.000    559.554     15.446    559.118    559.450    559.118    559.222    559.118
 19.070    545.000    559.297    -14.297    558.857    559.192    558.857    558.961    558.857
 19.170    577.000    559.039     17.961    558.593    558.933    558.593    558.699    558.593
 19.270    580.000    558.779     21.221    558.329    558.673    558.329    558.435    558.329
 19.370    589.801    558.520     31.282    558.063    558.413    558.063    558.170    558.063
 19.470    573.000    558.259     14.741    557.795    558.151    557.795    557.904    557.795
 19.570    566.000    557.997      8.003    557.527    557.888    557.527    557.636    557.527
 19.670    545.000    557.734    -12.734    557.257    557.624    557.257    557.367    557.257
 19.770    535.291    557.472    -22.181    556.986    557.361    556.986    557.097    556.986
 19.870    548.000    557.221     -9.221    556.714    557.109    556.714    556.826    556.714
 19.970    582.000    556.965     25.035    556.441    556.853    556.441    556.554    556.441
 20.070    524.256    556.700    -32.444    556.166    556.587    556.166    556.280    556.166
 20.170    566.000    556.434      9.566    555.891    556.319    555.891    556.006    555.891
 20.270    549.000    556.167     -7.167    555.614    556.051    555.614    555.730    555.614
 20.370    538.990    555.899    -16.909    555.337    555.782    555.337    555.454    555.337
 20.470    551.000    555.631     -4.631    555.058    555.513    555.058    555.176    555.058
 20.570    511.000    555.362    -44.362    554.778    555.243    554.778    554.898    554.778
 20.670    554.000    555.093     -1.093    554.498    554.973    554.498    554.618    554.498
 20.770    534.000    554.824    -20.824    554.216    554.703    554.216    554.338    554.216
 20.870    569.572    554.564     15.008    553.934    554.441    553.934    554.056    553.934
 20.970    510.375    554.382    -44.007    553.651    554.258    553.651    553.774    553.651
 21.070    587.809    554.135     33.674    553.366    554.010    553.366    553.491    553.366
 21.170    510.000    553.868    -43.868    553.081    553.741    553.081    553.208    553.081
 21.270    511.678    553.599    -41.921    552.795    553.471    552.795    552.923    552.795
 21.370    564.224    553.331     10.894    552.509    553.202    552.509    552.638    552.509
 21.470    587.000    553.063     33.937    552.221    552.932    552.221    552.352    552.221
 21.570    553.000    552.798      0.202    551.933    552.666    551.933    552.065    551.933
 21.670    567.038    552.553     14.485    551.644    552.420    551.644    551.778    551.644
 21.770    553.791    552.317      1.474    551.355    552.182    551.355    551.490    551.355
 21.870    531.000    552.056    -21.056    551.065    551.919    551.065    551.201    551.065
 21.970    510.458    551.794    -41.336    550.774    551.655    550.774    550.912    550.774
 22.070    561.000    551.537      9.463    550.482    551.398    550.482    550.622    550.482
 22.170    529.000    551.325    -22.325    550.190    551.184    550.190    550.332    550.190
 22.270    541.528    551.089     -9.561    549.898    550.945    549.898    550.041    549.898
 22.370    544.000    550.840     -6.840    549.604    550.695    549.604    549.750    549.604
 22.470    513.565    550.595    -37.030    549.311    550.448    549.311    549.458    549.311
 22.570    518.860    550.351    -31.491    549.017    550.202    549.017    549.166    549.017
 22.670    554.000    550.112      3.888    548.722    549.960    548.722    548.873    548.722
 22.770    578.000    549.878     28.122    548.427    549.725    548.427    548.580    548.427
 22.870    577.000    549.653     27.347    548.131    549.497    548.131    548.287    548.131
 22.970    525.767    549.436    -23.669    547.835    549.279    547.835    547.993    547.835
 23.070    585.744    549.232     36.512    547.539    549.072    547.539    547.699    547.539
 23.170    593.532    549.044     44.488    547.242    548.881    547.242    547.405    547.242
 23.270    512.000    548.871    -36.871    546.945    548.705    546.945    547.111    546.945
 23.370    523.000    548.719    -25.719    546.648    548.552    546.648    546.816    546.648
 23.470    562.852    548.597     14.255    546.350    548.427    546.350    546.521    546.350
 23.570    556.000    548.513      7.487    546.052    548.340    546.052    546.226    546.052
 23.670    583.633    548.480     35.152    545.754    548.304    545.754    545.931    545.754
 23.770    583.000    548.518     34.482    545.456    548.339    545.456    545.636    545.456
 23.870    547.535    548.657     -1.122    545.157    548.474    545.157    545.341    545.157
 23.970    561.000    548.951     12.049    544.858    548.765    544.858    545.046    544.858
 24.070    500.000    549.531    -49.531    544.559    549.342    544.559    544.750    544.559
 24.170    576.000    550.767     25.233    544.260    550.575    544.260    544.455    544.260
 24.270    522.278    553.655    -31.378    543.961    553.462    543.961    544.160    543.961
 24.370    599.191    560.298     38.893    543.662    560.106    543.662    543.865    543.662
 24.470    589.000    573.630     15.370    543.362    573.443    543.362    543.570    543.362
 24.570    587.000    595.146     -8.146    543.063    594.971    543.063    543.275    543.063
 24.670    574.197    620.615    -46.418    542.763    620.454    542.763    542.980    542.763
 24.770    585.000    637.515    -52.515    542.463    637.362    542.463    542.686    542.463
 24.870    655.572    633.408     22.164    542.164    633.246    542.164    542.392    542.164
 24.970    609.000    611.665     -2.665    541.864    611.482    541.864    542.098    541.864
 25.070    592.000    586.240      5.760    541.565    586.031    541.565    541.805    541.565
 25.170    538.000    566.886    -28.886    541.265    566.657    541.265    541.512    541.265
 25.270    539.000    555.506    -16.506    540.966    555.261    540.966    541.220    540.966
 25.370    549.000    549.834     -0.834    540.666    549.577    540.666    540.928    540.666
 25.470    558.000    547.124     10.876    540.367    546.857    540.367    540.637    540.367
 25.570    567.038    545.671     21.366    540.068    545.396    540.068    540.346    540.068
 25.670    521.000    544.732    -23.732    539.769    544.447    539.769    540.056    539.769
 25.770    547.000    544.037      2.963    539.470    543.741    539.470    539.767    539.470
 25.870    566.037    543.490     22.547    539.172    543.183    539.172    539.479    539.172
 25.970    587.929    543.071     44.858    538.873    542.753    538.873    539.192    538.873
 26.070    551.000    542.728      8.272    538.575    542.397    538.575    538.906    538.575
 26.170    532.000    542.427    -10.427    538.277    542.083    538.277    538.622    538.277
 26.270    555.448    542.184     13.264    537.979    541.825    537.979    538.338    537.979
 26.370    579.000    541.997     37.003    537.682    541.622    537.682    538.057    537.682
 26.470    547.000    541.856      5.144    537.385    541.464    537.385    537.777    537.385
 26.570    582.067    541.770     40.298    537.088    541.359    537.088    537.498    537.088
 26.670    501.000    541.751    -40.751    536.791    541.320    536.791    537.222    536.791
 26.770    514.000    541.821    -27.821    536.495    541.367    536.495    536.949    536.495
 26.870    549.293    541.973      7.319    536.199    541.495    536.199    536.678    536.199
 26.970    589.000    542.205     46.795    535.904    541.699    535.904    536.410    535.904
 27.070    559.000    542.566     16.434    535.609    542.029    535.609    536.145    535.609
 27.170    580.822    543.097     37.725    535.314    542.526    535.314    535.884    535.314
 27.270    578.000    543.860     34.140    535.020    543.251    535.020    535.628    535.020
 27.370    520.000    544.947    -24.947    534.726    544.294    534.726    535.378    534.726
 27.470    554.000    546.531      7.469    534.433    545.829    534.433    535.133    534.433
 27.570    557.000    549.058      7.942    534.140    548.300    534.140    534.895    534.140
 27.670    551.903    554.046     -2.142    533.848    553.223    533.848    534.666    533.848
 27.770    615.000    566.340     48.660    533.556    565.441    533.556    534.447    533.556
 27.870    612.000    597.477     14.523    533.264    596.483    533.264    534.240    533.264
 27.970    683.000    664.315     18.685    532.974    663.203    532.974    534.047    532.974
 28.070    781.000    773.111      7.889    532.683    771.852    532.683    533.872    532.683
 28.170    854.094    893.192    -39.098    532.393    891.771    532.393    533.720    532.393
 28.270    934.000    952.403    -18.403    532.104    950.819    532.104    533.596    532.104
 28.370    895.000    903.162     -8.162    531.816    901.410    531.816    533.509    531.816
 28.470    806.000    796.532      9.468    531.528    794.563    531.528    533.472    531.528
 28.570    738.000    713.564     24.436    531.240    711.286    531.240    533.506    531.240
 28.670    738.000    696.348     41.652    530.954    693.644    530.954    533.644    530.954
 28.770    737.000    740.698     -3.698    530.668    737.412    530.668    533.935    530.668
 28.870    799.033    807.795     -8.762    530.382    803.711    530.382    534.455    530.382
 28.970    782.000    839.304    -57.304    530.098    834.105    530.098    535.300    530.098
 29.070    774.217    800.485    -26.268    529.814    793.725    529.814    536.587    529.814
 29.170    687.000    721.148    -34.148    529.530    712.265    529.530    538.427    529.530
 29.270    647.294    647.475     -0.182    529.248    635.845    529.248    540.886    529.248
 29.370    579.000    600.546    -21.546    528.966    585.609    528.966    543.906    528.966
 29.470    570.457    578.242     -7.785    528.685    559.778    528.685    547.148    528.685
 29.570    609.404    569.725     39.679    528.404    548.297    528.404    549.831    528.404
 29.670    553.203    565.867    -12.665    528.125    543.121    528.125    550.869    528.125
 29.770    555.972    562.138     -6.167    527.846    540.336    527.846    549.646    527.846
 29.870    575.000    557.594     17.406    527.568    538.534    527.568    546.626    527.568
 29.970    558.000    552.853      5.147    527.291    537.274    527.291    542.867    527.291
 30.070    513.717    548.621    -34.904    527.014    536.410    527.014    539.223    527.014
 30.170    576.000    545.278     30.722    526.739    535.915    526.739    536.099    526.739
 30.270    607.000    543.037     63.963    526.464    535.905    526.464    533.594    526.464
 30.370    577.000    542.302     34.698    526.190    536.830    526.190    531.658    526.190
 30.470    592.000    544.125     47.875    525.917    539.851    525.917    530.185    525.917
 30.570    559.000    550.494      8.506    525.645    547.070    525.645    529.057    525.645
 30.670    567.000    563.531      3.469    525.374    560.709    525.374    528.174    525.374
 30.770    596.000    582.986     13.014    525.103    580.596    525.103    527.456    525.103
 30.870    606.000    603.081      2.919    524.834    601.014    524.834    526.851    524.834
 30.970    651.000    612.220     38.780    524.566    610.409    524.566    526.322    524.566
 31.070    590.193    602.728    -12.535    524.298    601.135    524.298    525.846    524.298
 31.170    615.000    581.717     33.283    524.031    580.310    524.031    525.410    524.031
 31.270    559.000    560.777     -1.777    523.766    559.523    523.766    525.004    523.766
 31.370    530.000    545.925    -15.925    523.501    544.797    523.501    524.622    523.501
 31.470    573.000    537.540     35.460    523.237    536.515    523.237    524.258    523.237
 31.570    527.396    533.441     -6.045    522.975    532.503    522.975    523.911    522.975
 31.670    580.000    531.478     48.522    522.713    530.613    522.713    523.576    522.713
 31.770    535.253    530.417      4.836    522.452    529.616    522.452    523.252    522.452
 31.870    528.141    529.744     -1.602    522.193    528.997    522.193    522.938    522.193
 31.970    498.950    529.278    -30.328    521.934    528.580    521.934    522.631    521.934
 32.070    568.846    528.957     39.890    521.677    528.301    521.677    522.331    521.677
 32.170    517.000    528.758    -11.758    521.420    528.140    521.420    522.037    521.420
 32.270    553.000    528.672     24.328    521.165    528.087    521.165    521.749    521.165
 32.370    610.000    528.700     81.300    520.910    528.144    520.910    521.465    520.910
 32.470    517.564    528.850    -11.286    520.657    528.321    520.657    521.185    520.657
 32.570    532.856    529.140      3.716    520.405    528.634    520.405    520.910    520.405
 32.670    554.000    529.596     24.404    520.154    529.112    520.154    520.637    520.154
 32.770    539.624    530.258      9.366    519.904    529.793    519.904    520.368    519.904
 32.870    547.508    531.184     16.324    519.655    530.736    519.655    520.102    519.655
 32.970    512.000    532.459    -20.459    519.407    532.026    519.407    519.839    519.407
 33.070    519.199    534.218    -15.019    519.161    533.799    519.161    519.578    519.161
 33.170    527.000    536.704     -9.704    518.915    536.297    518.915    519.320    518.915
 33.270    545.000    540.481      4.519    518.671    540.085    518.671    519.064    518.671
 33.370    527.000    547.066    -20.066    518.428    546.680    518.428    518.810    518.428
 33.470    598.000    560.373     37.627    518.186    559.995    518.186    518.558    518.186
 33.570    636.585    588.713     47.872    517.945    588.339    517.945    518.309    517.945
 33.670    675.000    644.959     30.041    517.705    644.584    517.705    518.061    517.705
 33.770    724.000    740.465    -16.464    517.467    740.083    517.467    517.815    517.467
 33.870    908.977    871.082     37.895    517.230    870.692    517.230    517.571    517.230
 33.970    977.000   1001.519    -24.519    516.994   1001.128    516.994    517.329    516.994
 34.070   1121.313   1065.321     55.992    516.759   1064.945    516.759    517.088    516.759
 34.170    972.000   1017.413    -45.413    516.526   1017.068    516.526    516.850    516.526
 34.270    892.022    893.106     -1.085    516.293    892.788    516.293    516.612    516.293
 34.370    781.961    759.265     22.696    516.062    758.961    516.062    516.377    516.062
 34.470    644.000    656.724    -12.724    515.832    656.423    515.832    516.143    515.832
 34.570    577.000    593.925    -16.925    515.604    593.624    515.604    515.911    515.604
 34.670    582.000    561.161     20.839    515.376    560.861    515.376    515.680    515.376
 34.770    525.000    545.344    -20.344    515.150    545.044    515.150    515.451    515.150
 34.870    546.000    537.365      8.635    514.926    537.067    514.926    515.224    514.926
 34.970    516.000    532.690    -16.690    514.702    532.395    514.702    514.998    514.702
 35.070    525.000    529.494     -4.494    514.480    529.200    514.480    514.773    514.480
 35.170    547.800    527.092     20.708    514.259    526.800    514.259    514.550    514.259
 35.270    496.409    525.200    -28.790    514.040    524.910    514.040    514.329    514.040
 35.370    551.000    523.668     27.332    513.821    523.380    513.821    514.109    513.821
 35.470    511.214    522.402    -11.187    513.604    522.115    513.604    513.891    513.604
 35.570    490.116    521.337    -31.221    513.389    521.051    513.389    513.674    513.389
 35.670    502.000    520.427    -18.427    513.174    520.142    513.174    513.458    513.174
 35.770    503.657    519.639    -15.982    512.961    519.356    512.961    513.244    512.961
 35.870    504.712    518.949    -14.237    512.750    518.666    512.750    513.032    512.750
 35.970    544.000    518.338     25.662    512.539    518.056    512.539    512.821    512.539
 36.070    515.000    517.793     -2.793    512.330    517.511    512.330    512.612    512.330
 36.170    489.181    517.303    -28.122    512.123    517.022    512.123    512.404    512.123
 36.270    523.482    516.862      6.621    511.916    516.581    511.916    512.197    511.916
 36.370    471.390    516.463    -45.073    511.712    516.182    511.712    511.992    511.712
 36.470    481.000    516.103    -35.103    511.508    515.822    511.508    511.789    511.508
 36.570    501.000    515.780    -14.780    511.306    515.500    511.306    511.587    511.306
 36.670    501.000    515.497    -14.497    511.105    515.215    511.105    511.386    511.105
 36.770    484.000    515.257    -31.257    510.906    514.976    510.906    511.187    510.906
 36.870    519.188    515.080      4.108    510.708    514.798    510.708    510.990    510.708
 36.970    496.000    515.017    -19.017    510.511    514.735    510.511    510.794    510.511
 37.070    473.741    515.192    -41.452    510.316    514.909    510.316    510.599    510.316
 37.170    547.463    515.847     31.616    510.122    515.564    510.122    510.406    510.122
 37.270    501.000    517.333    -16.333    509.930    517.049    509.930    510.215    509.930
 37.370    521.393    519.946      1.446    509.739    519.662    509.739    510.025    509.739
 37.470    566.191    523.600     42.590    509.549    523.315    509.549    509.836    509.549
 37.570    522.000    527.455     -5.455    509.361    527.170    509.361    509.649    509.361
 37.670    535.000    529.880      5.120    509.174    529.596    509.174    509.463    509.174
 37.770    534.717    529.514      5.203    508.989    529.230    508.989    509.279    508.989
 37.870    512.000    526.704    -14.704    508.805    526.421    508.805    509.097    508.805
 37.970    504.000    522.945    -18.945    508.622    522.662    508.622    508.916    508.622
 38.070    514.000    519.401     -5.401    508.441    519.117    508.441    508.737    508.441
 38.170    519.000    516.533      2.467    508.262    516.246    508.262    508.559    508.262
 38.270    557.973    514.429     43.543    508.083    514.138    508.083    508.382    508.083
 38.370    518.000    512.991      5.009    507.907    512.695    507.907    508.207    507.907
 38.470    482.000    512.040    -30.040    507.731    511.741    507.731    508.034    507.731
 38.570    447.000    511.413    -64.413    507.558    511.109    507.558    507.862    507.558
 38.670    521.000    510.981     10.019    507.385    510.675    507.385    507.692    507.385
 38.770    504.000    510.659     -6.659    507.214    510.351    507.214    507.523    507.214
 38.870    504.701    510.397     -5.696    507.045    510.086    507.045    507.356    507.045
 38.970    502.000    510.168     -8.168    506.877    509.855    506.877    507.191    506.877
 39.070    500.714    509.961     -9.247    506.710    509.645    506.710    507.027    506.710
 39.170    451.000    509.769    -58.769    506.545    509.451    506.545    506.864    506.545
 39.270    538.000    509.590     28.410    506.382    509.269    506.382    506.703    506.382
 39.370    491.000    509.421    -18.421    506.219    509.097    506.219    506.544    506.219
 39.470    539.000    509.262     29.738    506.059    508.935    506.059    506.386    506.059
 39.570    479.000    509.111    -30.111    505.900    508.782    505.900    506.230    505.900
 39.670    518.000    508.969      9.031    505.742    508.636    505.742    506.075    505.742
 39.770    483.000    508.835    -25.835    505.586    508.499    505.586    505.922    505.586
 39.870    546.365    508.709     37.656    505.431    508.369    505.431    505.771    505.431
 39.970    534.000    508.590     25.410    505.278    508.248    505.278    505.621    505.278
 40.070    510.000    508.480      1.520    505.126    508.134    505.126    505.472    505.126
 40.170    545.001    508.379     36.622    504.975    508.029    504.975    505.326    504.975
 40.270    519.000    508.287     10.713    504.827    507.933    504.827    505.181    504.827
 40.370    515.000    508.205      6.795    504.679    507.848    504.679    505.037    504.679
 40.470    488.621    508.134    -19.513    504.533    507.773    504.533    504.895    504.533
 40.570    532.000    508.076     23.924    504.389    507.711    504.389    504.755    504.389
 40.670    503.502    508.033     -4.530    504.246    507.663    504.246    504.616    504.246
 40.770    533.829    508.005     25.824    504.105    507.631    504.105    504.479    504.105
 40.870    527.282    507.997     19.285    503.965    507.619    503.965    504.344    503.965
 40.970    512.991    508.012      4.979    503.826    507.629    503.826    504.210    503.826
 41.070    505.000    508.055     -3.055    503.690    507.667    503.690    504.078    503.690
 41.170    473.000    508.131    -35.131    503.554    507.738    503.554    503.948    503.554
 41.270    473.000    508.250    -35.250    503.420    507.852    503.420    503.819    503.420
 41.370    490.000    508.423    -18.423    503.288    508.020    503.288    503.692    503.288
 41.470    525.396    508.666     16.730    503.157    508.258    503.157    503.566    503.157
 41.570    486.000    509.005    -23.005    503.027    508.592    503.027    503.443    503.027
 41.670    513.034    509.487      3.547    502.899    509.068    502.899    503.320    502.899
 41.770    511.000    510.216      0.784    502.773    509.791    502.773    503.200    502.773
 41.870    510.000    511.439     -1.439    502.648    511.009    502.648    503.081    502.648
 41.970    529.000    513.727     15.273    502.524    513.291    502.524    502.964    502.524
 42.070    536.000    518.198     17.802    502.402    517.757    502.402    502.849    502.402
 42.170    509.000    526.623    -17.623    502.282    526.179    502.282    502.736    502.282
 42.270    553.686    541.007     12.680    502.163    540.563    502.163    502.624    502.163
 42.370    531.000    562.360    -31.360    502.046    561.919    502.046    502.514    502.046
 42.470    628.000    588.897     39.103    501.929    588.463    501.929    502.406    501.929
 42.570    595.000    614.463    -19.463    501.815    614.035    501.815    502.299    501.815
 42.670    636.214    629.072      7.143    501.702    628.646    501.702    502.194    501.702
 42.770    645.615    625.109     20.506    501.590    624.676    501.590    502.091    501.590
 42.870    577.000    604.894    -27.894    501.480    604.443    501.480    501.990    501.480
 42.970    546.000    577.926    -31.926    501.372    577.452    501.372    501.891    501.372
 43.070    554.000    552.900      1.100    501.265    552.401    501.265    501.794    501.265
 43.170    539.000    534.140      4.860    501.159    533.620    501.159    501.698    501.159
 43.270    510.663    522.136    -11.473    501.055    521.598    501.055    501.605    501.055
 43.370    551.000    515.323     35.677    500.952    514.769    500.952    501.513    500.952
 43.470    516.000    511.713      4.287    500.851    511.145    500.851    501.423    500.851
 43.570    521.107    509.787     11.320    500.752    509.206    500.752    501.336    500.752
 43.670    507.000    508.664     -1.664    500.653    508.070    500.653    501.250    500.653
 43.770    476.000    507.923    -31.923    500.557    507.315    500.557    501.166    500.557
 43.870    526.000    507.382     18.618    500.461    506.760    500.461    501.085    500.461
 43.970    530.924    506.965     23.959    500.368    506.329    500.368    501.005    500.368
 44.070    507.000    506.635      0.365    500.275    505.984    500.275    500.928    500.275
 44.170    488.357    506.371    -18.014    500.185    505.704    500.185    500.853    500.185
 44.270    499.000    506.159     -7.159    500.095    505.476    500.095    500.780    500.095
 44.370    477.000    505.990    -28.990    500.007    505.289    500.007    500.709    500.007
 44.470    512.000    505.855      6.145    499.921    505.136    499.921    500.641    499.921
 44.570    510.000    505.750      4.250    499.836    505.011    499.836    500.575    499.836
 44.670    514.182    505.671      8.512    499.752    504.912    499.752    500.512    499.752
 44.770    540.000    505.614     34.386    499.670    504.834    499.670    500.451    499.670
 44.870    481.000    505.578    -24.578    499.590    504.776    499.590    500.393    499.590
 44.970    520.880    505.562     15.318    499.511    504.735    499.511    500.337    499.511
 45.070    539.000    505.564     33.436    499.433    504.712    499.433    500.285    499.433
 45.170    473.000    505.583    -32.583    499.357    504.705    499.357    500.235    499.357
 45.270    518.000    505.620     12.380    499.282    504.713    499.282    500.189    499.282
 45.370    552.000    505.675     46.325    499.209    504.738    499.209    500.146    499.209
 45.470    506.000    505.748      0.252    499.137    504.778    499.137    500.106    499.137
 45.570    561.000    505.839     55.161    499.066    504.836    499.066    500.070    499.066
 45.670    486.901    505.951    -19.049    498.997    504.910    498.997    500.038    498.997
 45.770    484.000    506.084    -22.084    498.929    505.003    498.929    500.009    498.929
 45.870    474.000    506.239    -32.239    498.863    505.117    498.863    499.986    498.863
 45.970    529.000    506.421     22.579    498.799    505.253    498.799    499.966    498.799
 46.070    498.000    506.631     -8.631    498.735    505.413    498.735    499.952    498.735
 46.170    506.000    506.873     -0.873    498.673    505.602    498.673    499.943    498.673
 46.270    510.000    507.152      2.848    498.613    505.824    498.613    499.940    498.613
 46.370    502.000    507.474     -5.474    498.554    506.084    498.554    499.943    498.554
 46.470    514.000    507.847      6.153    498.496    506.389    498.496    499.953    498.496
 46.570    543.000    508.282     34.718    498.440    506.749    498.440    499.971    498.440
 46.670    550.467    508.795     41.672    498.385    507.181    498.385    499.998    498.385
 46.770    547.000    509.414     37.586    498.331    507.711    498.331    500.034    498.331
 46.870    495.000    510.197    -15.197    498.279    508.394    498.279    500.080    498.279
 46.970    519.371    511.270      8.101    498.228    509.357    498.228    500.138    498.228
 47.070    528.098    512.906     15.192    498.179    510.872    498.179    500.210    498.179
 47.170    514.000    515.627     -1.627    498.131    513.456    498.131    500.297    498.131
 47.270    516.004    520.280     -4.276    498.084    517.955    498.084    500.401    498.084
 47.370    542.000    527.917     14.083    498.039    525.415    498.039    500.526    498.039
 47.470    544.000    539.373      4.627    497.995    536.672    497.995    500.675    497.995
 47.570    572.000    554.548     17.452    497.953    551.616    497.953    500.852    497.953
 47.670    559.878    571.617    -11.739    497.912    568.423    497.912    501.062    497.912
 47.770    580.000    586.596     -6.596    497.872    583.103    497.872    501.311    497.872
 47.870    626.000    594.169     31.831    497.834    590.337    497.834    501.609    497.834
 47.970    626.191    591.191     34.999    497.797    586.968    497.797    501.968    497.797
 48.070    578.000    579.812     -1.812    497.761    575.126    497.761    502.405    497.761
 48.170    580.000    565.229     14.771    497.726    559.978    497.726    502.946    497.726
 48.270    547.945    551.939     -3.994    497.693    545.978    497.693    503.634    497.693
 48.370    512.000    542.375    -30.375    497.662    535.493    497.662    504.530    497.662
 48.470    543.219    537.165      6.054    497.631    529.055    497.631    505.733    497.631
 48.570    526.000    535.829     -9.829    497.602    526.044    497.602    507.381    497.602
 48.670    532.000    537.587     -5.587    497.574    525.490    497.574    509.667    497.574
 48.770    547.560    541.861      5.699    497.548    526.579    497.548    512.826    497.548
 48.870    495.000    548.440    -53.440    497.523    528.838    497.523    517.121    497.523
 48.970    608.000    557.429     50.571    497.499    532.133    497.499    522.789    497.499
 49.070    605.850    569.156     36.695    497.476    536.652    497.476    529.974    497.476
 49.170    577.058    584.251     -7.193    497.455    543.089    497.455    538.610    497.455
 49.270    650.000    604.145     45.855    497.435    553.307    497.435    548.263    497.435
 49.370    624.000    632.398     -8.398    497.416    571.882    497.416    557.917    497.416
 49.470    659.124    677.215    -18.092    497.399    608.746    497.399    565.842    497.399
 49.570    801.128    754.692     46.437    497.383    682.075    497.383    569.953    497.383
 49.670    897.000    889.996      7.004    497.368    818.377    497.368    568.909    497.368
 49.770   1101.234   1110.911     -9.678    497.354   1045.063    497.354    563.085    497.354
 49.870   1454.241   1430.050     24.191    497.342   1372.975    497.342    554.263    497.342
 49.970   1800.148   1821.213    -21.066    497.330   1773.920    497.330    544.458    497.330
 50.070   2224.952   2204.293     20.659    497.320   2166.365    497.320    535.119    497.320
 50.170   2554.000   2457.205     96.795    497.312   2427.468    497.312    527.013    497.312
 50.270   2447.000   2473.886    -26.886    497.304   2450.861    497.304    520.411    497.304
 50.370   2317.118   2243.952     73.165    497.298   2226.134    497.298    515.286    497.298
 50.470   1849.000   1863.220    -14.220    497.293   1849.263    497.293    511.449    497.293
 50.570   1438.288   1458.474    -20.185    497.289   1447.297    497.289    508.646    497.289
 50.670   1103.000   1120.570    -17.570    497.286   1111.374    497.286    506.622    497.286
 50.770    842.964    885.839    -42.874    497.285    878.066    497.285    505.155    497.285
 50.870    752.397    747.151      5.246    497.285    740.427    497.285    504.077    497.285
 50.970    693.117    675.889     17.228    497.286    669.962    497.286    503.263    497.286
 51.070    621.000    641.246    -20.246    497.288    635.945    497.288    502.631    497.288
 51.170    633.000    620.834     12.166    497.291    616.035    497.291    502.128    497.291
 51.270    621.547    603.471     18.076    497.296    599.079    497.296    501.719    497.296
 51.370    610.000    586.476     23.524    497.301    582.422    497.301    501.381    497.301
 51.470    563.000    570.858     -7.858    497.308    567.086    497.308    501.099    497.308
 51.570    565.000    558.000      7.000    497.316    554.467    497.316    500.862    497.316
 51.670    526.000    548.521    -22.521    497.325    545.191    497.325    500.663    497.325
 51.770    581.000    542.228     38.772    497.335    539.074    497.335    500.496    497.335
 51.870    551.000    538.473     12.527    497.347    535.469    497.347    500.355    497.347
 51.970    510.000    536.535    -26.535    497.359    533.660    497.359    500.237    497.359
 52.070    580.000    535.862     44.138    497.373    533.098    497.373    500.140    497.373
 52.170    553.000    536.158     16.842    497.387    533.489    497.387    500.059    497.387
 52.270    544.938    537.372      7.566    497.403    534.783    497.403    499.994    497.403
 52.370    555.430    539.727     15.703    497.420    537.206    497.420    499.943    497.420
 52.470    584.548    543.882     40.665    497.438    541.417    497.438    499.905    497.438
 52.570    581.000    551.288     29.712    497.457    548.870    497.457    499.877    497.457
 52.670    594.825    564.731     30.094    497.477    562.349    497.477    499.860    497.477
 52.770    568.000    588.840    -20.840    497.498    586.487    497.498    499.852    497.498
 52.870    628.000    630.030     -2.030    497.521    627.697    497.521    499.852    497.521
 52.970    679.000    695.144    -16.144    497.544    692.825    497.544    499.861    497.544
 53.070    864.000    788.404     75.596    497.568    786.094    497.568    499.878    497.568
 53.170    873.415    907.150    -33.735    497.594    904.844    497.594    499.902    497.594
 53.270   1054.000   1037.792     16.208    497.620   1035.488    497.620    499.933    497.620
 53.370   1131.000   1153.936    -22.936    497.647   1151.633    497.647    499.970    497.647
 53.470   1251.408   1221.106     30.302    497.676   1218.800    497.676    500.015    497.676
 53.570   1192.000   1214.013    -22.013    497.705   1211.698    497.705    500.066    497.705
 53.670   1112.000   1135.844    -23.844    497.736   1133.508    497.736    500.124    497.736
 53.770    956.495   1015.288    -58.792    497.767   1012.916    497.767    500.188    497.767
 53.870    887.000    885.984      1.016    497.800    883.566    497.800    500.259    497.800
 53.970    773.000    771.966      1.034    497.833    769.494    497.833    500.336    497.833
 54.070    656.635    684.573    -27.938    497.868    682.042    497.868    500.421    497.868
 54.170    611.000    624.886    -13.886    497.903    622.291    497.903    500.512    497.903
 54.270    569.169    587.929    -18.760    497.939    585.267    497.939    500.611    497.939
 54.370    575.215    566.787      8.429    497.977    564.052    497.977    500.717    497.977
 54.470    570.000    555.338     14.662    498.015    552.526    498.015    500.831    498.015
 54.570    596.335    549.319     47.016    498.054    546.422    498.054    500.954    498.054
 54.670    521.400    546.226    -24.825    498.094    543.237    498.094    501.085    498.094
 54.770    562.840    544.774     18.066    498.135    541.686    498.135    501.226    498.135
 54.870    560.000    544.372     15.628    498.177    541.174    498.177    501.377    498.177
 54.970    575.000    544.768     30.232    498.220    541.452    498.220    501.538    498.220
 55.070    550.000    545.873      4.127    498.264    542.427    498.264    501.711    498.264
 55.170    589.655    547.676     41.979    498.309    544.089    498.309    501.897    498.309
 55.270    591.000    550.219     40.781    498.354    546.478    498.354    502.097    498.354
 55.370    581.300    553.600     27.701    498.400    549.690    498.400    502.311    498.400
 55.470    557.000    557.994     -0.994    498.448    553.901    498.448    502.542    498.448
 55.570    600.000    563.741     36.259    498.496    559.447    498.496    502.791    498.496
 55.670    540.000    571.539    -31.539    498.545    567.026    498.545    503.059    498.545
 55.770    592.638    582.890      9.748    498.595    578.134    498.595    503.351    498.595
 55.870    571.000    600.926    -29.926    498.645    595.904    498.645    503.666    498.645
 55.970    643.545    631.708     11.837    498.697    626.391    498.697    504.010    498.697
 56.070    644.955    685.681    -40.726    498.749    680.035    498.749    504.385    498.749
 56.170    774.000    778.344     -4.344    498.802    772.332    498.802    504.795    498.802
 56.270    916.000    928.531    -12.531    498.856    922.111    498.856    505.246    498.856
 56.370   1130.000   1152.768    -22.768    498.911   1145.895    498.911    505.742    498.911
 56.470   1350.000   1455.782   -105.782    498.966   1448.409    498.966    506.291    498.966
 56.570   1771.000   1819.731    -48.731    499.022   1811.814    499.022    506.900    499.022
 56.670   2209.111   2196.341     12.770    499.080   2187.833    499.080    507.580    499.080
 56.770   2450.000   2506.958    -56.958    499.137   2497.806    499.137    508.342    499.137
 56.870   2527.000   2661.446   -134.446    499.196   2651.577    499.196    509.201    499.196
 56.970   2674.823   2605.625     69.198    499.255   2594.922    499.255    510.176    499.255
 57.070   2375.000   2361.630     13.370    499.315   2349.922    499.315    511.292    499.315
 57.170   2056.046   2009.276     46.770    499.376   1996.342    499.376    512.583    499.376
 57.270   1622.971   1635.834    -12.863    499.437   1621.414    499.437    514.099    499.437
 57.370   1300.849   1304.557     -3.708    499.500   1288.333    499.500    515.915    499.500
 57.470   1005.806   1047.211    -41.406    499.562   1028.769    499.562    518.142    499.562
 57.570    919.959    868.859     51.099    499.626    847.624    499.626    520.952    499.626
 57.670    748.455    757.893     -9.438    499.690    733.041    499.690    524.596    499.690
 57.770    722.000    696.716     25.284    499.755    667.067    499.755    529.433    499.755
 57.870    688.000    669.523     18.477    499.821    633.415    499.821    535.942    499.821
 57.970    710.756    665.946     44.811    499.887    621.114    499.887    544.720    499.887
 58.070    673.000    681.366     -8.366    499.954    624.865    499.954    556.446    499.954
 58.170    743.011    715.404     27.607    500.022    643.603    500.022    571.803    500.022
 58.270    788.000    769.695     18.305    500.090    678.403    500.090    591.351    500.090
 58.370    878.000    845.592     32.408    500.158    730.355    500.158    615.355    500.158
 58.470    918.000    942.092    -24.092    500.228    798.704    500.228    643.567    500.228
 58.570   1034.000   1054.176    -20.176    500.298    879.482    500.298    674.940    500.298
 58.670   1114.000   1172.086    -58.086    500.369    965.174    500.369    707.231    500.369
 58.770   1343.999   1282.676     61.323    500.440   1046.442    500.440    736.635    500.440
 58.870   1430.000   1372.671     57.329    500.512   1115.215    500.512    757.945    500.512
 58.970   1382.000   1430.657    -48.657    500.584   1165.144    500.584    766.094    500.584
 59.070   1494.000   1447.982     46.018    500.657   1189.824    500.657    758.832    500.657
 59.170   1499.000   1422.329     76.671    500.730   1184.866    500.730    738.225    500.730
 59.270   1408.000   1362.066     45.934    500.804   1153.642    500.804    709.264    500.804
 59.370   1295.000   1284.320     10.680    500.879   1108.038    500.879    677.184    500.879
 59.470   1215.000   1207.797      7.203    500.954   1062.881    500.954    645.868    500.954
 59.570   1198.000   1148.702     49.298    501.030   1032.067    501.030    617.628    501.030
 59.670   1143.000   1121.248     21.752    501.106   1028.710    501.106    593.564    501.106
 59.770   1147.000   1136.762     10.238    501.182   1063.856    501.182    573.957    501.182
 59.870   1184.936   1198.842    -13.906    501.260   1141.352    501.260    558.563    501.260
 59.970   1321.000   1298.541     22.459    501.337   1252.807    501.337    546.834    501.337
 60.070   1472.000   1412.834     59.166    501.415   1375.885    501.415    538.090    501.415
 60.170   1589.000   1507.087     81.913    501.494   1476.644    501.494    531.651    501.494
 60.270   1522.000   1544.265    -22.265    501.573   1518.657    501.573    526.916    501.573
 60.370   1495.000   1502.696     -7.696    501.652   1480.734    501.652    523.402    501.652
 60.470   1403.097   1389.481     13.616    501.732   1370.317    501.732    520.749    501.732
 60.570   1233.000   1233.519     -0.519    501.812   1216.539    501.812    518.702    501.812
 60.670   1021.492   1067.962    -46.471    501.893   1052.715    501.893    517.094    501.893
 60.770    902.000    918.492    -16.492    501.974    904.631    501.974    515.815    501.974
 60.870    805.942    799.538      6.403    502.056    786.790    502.056    514.798    502.056
 60.970    716.771    715.195      1.576    502.138    703.330    502.138    513.999    502.138
 61.070    711.950    662.671     49.279    502.220    651.494    502.220    513.391    502.220
 61.170    657.000    636.613     20.387    502.303    625.950    502.303    512.954    502.303
 61.270    598.381    632.729    -34.348    502.386    622.425    502.386    512.670    502.386
 61.370    667.000    649.802     17.198    502.469    639.722    502.469    512.518    502.469
 61.470    700.000    689.862     10.138    502.553    679.895    502.553    512.472    502.553
 61.570    806.000    756.671     49.329    502.637    746.745    502.637    512.492    502.637
 61.670    817.000    852.900    -35.900    502.722    842.999    502.722    512.523    502.722
 61.770   1001.713    976.669     25.044    502.806    966.847    502.806    512.498    502.806
 61.870   1098.000   1118.482    -20.482    502.891   1108.866    502.891    512.351    502.891
 61.970   1191.000   1259.641    -68.641    502.977   1250.399    502.977    512.046    502.977
 62.070   1317.000   1373.316    -56.316    503.062   1364.613    503.062    511.595    503.062
 62.170   1338.000   1430.865    -92.865    503.148   1422.819    503.148    511.048    503.148
 62.270   1296.000   1414.849   -118.849    503.235   1407.513    503.235    510.465    503.235
 62.370   1295.000   1330.010    -35.010    503.321   1323.376    503.321    509.894    503.321
 62.470   1219.000   1199.838     19.162    503.408   1193.851    503.408    509.370    503.408
 62.570   1068.700   1053.245     15.455    503.495   1047.831    503.495    508.908    503.495
 62.670    870.000    914.134    -44.134    503.582    909.211    503.582    508.517    503.582
 62.770    746.000    797.381    -51.381    503.669    792.871    503.669    508.194    503.669
 62.870    749.765    708.840     40.925    503.757    704.675    503.757    507.936    503.757
 62.970    602.000    647.427    -45.427    503.845    643.548    503.845    507.733    503.845
 63.070    635.257    608.111     27.145    503.933    604.471    503.933    507.577    503.933
 63.170    601.609    584.723     16.885    504.021    581.286    504.021    507.459    504.021
 63.270    557.495    571.855    -14.360    504.110    568.591    504.110    507.371    504.110
 63.370    595.103    565.718     29.385    504.198    562.604    504.198    507.307    504.198
 63.470    578.000    564.273     13.727    504.287    561.291    504.287    507.262    504.287
 63.570    590.380    567.020     23.360    504.376    564.154    504.376    507.232    504.376
 63.670    622.000    574.734     47.266    504.465    571.971    504.465    507.215    504.465
 63.770    633.000    589.194     43.806    504.554    586.522    504.554    507.207    504.554
 63.870    664.000    612.810     51.190    504.644    610.216    504.644    507.208    504.644
 63.970    687.000    648.007     38.993    504.733    645.481    504.733    507.216    504.733
 64.070    740.000    696.321     43.679    504.823    693.853    504.823    507.231    504.823
 64.170    778.000    757.307     20.693    504.912    754.888    504.912    507.252    504.912
 64.270    887.000    827.512     59.488    505.002    825.136    505.002    507.279    505.002
 64.370    907.000    899.810      7.190    505.092    897.476    505.092    507.310    505.092
 64.470    949.000    963.625    -14.625    505.182    961.337    505.182    507.346    505.182
 64.570    954.505   1007.150    -52.645    505.272   1004.914    505.272    507.386    505.272
 64.670   1079.000   1021.952     57.048    505.362   1019.777    505.362    507.430    505.362
 64.770    996.797   1006.746     -9.949    505.452   1004.637    505.452    507.477    505.452
 64.870   1011.000    966.930     44.070    505.542    964.888    505.542    507.528    505.542
 64.970    948.000    911.651     36.349    505.632    909.672    505.632    507.582    505.632
 65.070    887.000    850.785     36.215    505.722    848.863    505.722    507.639    505.722
 65.170    823.642    792.261     31.381    505.812    790.387    505.812    507.699    505.812
 65.270    730.000    740.576    -10.576    505.902    738.740    505.902    507.762    505.902
 65.370    664.233    697.081    -32.848    505.992    695.276    505.992    507.827    505.992
 65.470    602.000    661.402    -59.402    506.083    659.620    506.083    507.894    506.083
 65.570    678.748    632.721     46.027    506.173    630.955    506.173    507.964    506.173
 65.670    562.000    610.213    -48.213    506.263    608.460    506.263    508.035    506.263
 65.770    584.000    593.047     -9.047    506.353    591.304    506.353    508.109    506.353
 65.870    570.000    580.407    -10.407    506.443    578.673    506.443    508.185    506.443
 65.970    536.000    571.539    -35.539    506.532    569.813    506.532    508.263    506.532
 66.070    575.380    565.769      9.611    506.622    564.050    506.622    508.343    506.622
 66.170    551.000    562.507    -11.507    506.712    560.794    506.712    508.425    506.712
 66.270    545.000    561.260    -16.260    506.801    559.553    506.801    508.509    506.801
 66.370    597.263    561.664     35.599    506.891    559.960    506.891    508.594    506.891
 66.470    562.279    563.520     -1.241    506.980    561.819    506.980    508.682    506.980
 66.570    525.994    566.868    -40.874    507.070    565.167    507.070    508.771    507.070
 66.670    525.000    572.091    -47.091    507.159    570.389    507.159    508.862    507.159
 66.770    559.000    580.124    -21.124    507.248    578.419    507.248    508.955    507.248
 66.870    562.000    592.793    -30.793    507.336    591.081    507.336    509.050    507.336
 66.970    572.741    613.271    -40.530    507.425    611.550    507.425    509.146    507.425
 67.070    603.000    646.581    -43.581    507.514    644.847    507.514    509.245    507.514
 67.170    708.317    699.867      8.450    507.602    698.118    507.602    509.345    507.602
 67.270    757.612    782.094    -24.482    507.690    780.327    507.690    509.448    507.690
 67.370    930.369    902.746     27.623    507.778    900.959    507.778    509.553    507.778
 67.470   1088.000   1069.324     18.676    507.866   1067.519    507.866    509.660    507.866
 67.570   1240.000   1283.876    -43.876    507.953   1282.058    507.953    509.769    507.953
 67.670   1577.446   1539.337     38.109    508.041   1537.515    508.041    509.880    508.041
 67.770   1752.713   1816.733    -64.020    508.128   1814.919    508.128    509.994    508.128
 67.870   2082.000   2084.250     -2.250    508.215   2082.458    508.215    510.111    508.215
 67.970   2283.000   2299.639    -16.639    508.301   2297.880    508.301    510.231    508.301
 68.070   2350.258   2419.054    -68.796    508.388   2417.332    508.388    510.353    508.388
 68.170   2477.000   2413.711     63.289    508.474   2412.013    508.474    510.479    508.474
 68.270   2310.000   2285.081     24.919    508.559   2283.376    508.559    510.608    508.559
 68.370   2014.000   2063.962    -49.962    508.645   2062.214    508.645    510.741    508.645
 68.470   1784.042   1794.553    -10.511    508.730   1792.727    508.730    510.878    508.730
 68.570   1519.000   1518.400      0.600    508.815   1516.472    508.815    511.020    508.815
 68.670   1210.935   1266.254    -55.319    508.900   1264.211    508.900    511.166    508.900
 68.770   1058.000   1056.019      1.981    508.984   1053.855    508.984    511.317    508.984
 68.870    906.000    893.866     12.134    509.068    891.582    509.068    511.474    509.068
 68.970    795.138    777.149     17.989    509.152    774.747    509.152    511.637    509.152
 69.070    664.000    698.084    -34.084    509.235    695.568    509.235    511.806    509.235
 69.170    665.000    647.156     17.844    509.318    644.527    509.318    511.983    509.318
 69.270    669.000    615.521     53.479    509.400    612.777    509.400    512.169    509.400
 69.370    579.000    596.203    -17.203    509.483    593.338    509.483    512.363    509.483
 69.470    597.000    584.333     12.667    509.564    581.341    509.564    512.568    509.564
 69.570    580.901    576.834      4.067    509.646    573.704    509.646    512.784    509.646
 69.670    560.000    571.913    -11.913    509.727    568.634    509.727    513.012    509.727
 69.770    528.603    568.595    -39.991    509.808    565.152    509.808    513.255    509.808
 69.870    596.077    566.372     29.705    509.888    562.750    509.888    513.514    509.888
 69.970    602.830    564.994     37.837    509.968    561.173    509.968    513.791    509.968
 70.070    524.000    564.342    -40.342    510.047    560.302    510.047    514.088    510.047
 70.170    553.000    564.380    -11.380    510.126    560.098    510.126    514.409    510.126
 70.270    596.999    565.141     31.858    510.204    560.588    510.204    514.757    510.204
 70.370    587.000    566.743     20.257    510.282    561.889    510.282    515.135    510.282
 70.470    528.568    569.448    -40.880    510.360    564.256    510.360    515.550    510.360
 70.570    589.000    573.768     15.232    510.437    568.194    510.437    516.006    510.437
 70.670    536.583    580.626    -44.043    510.514    574.619    510.514    516.513    510.514
 70.770    601.000    591.589      9.411    510.590    585.085    510.590    517.082    510.590
 70.870    646.128    609.124     37.004    510.665    602.044    510.665    517.728    510.665
 70.970    621.556    636.812    -15.256    510.740    629.052    510.740    518.473    510.740
 71.070    684.845    679.359      5.486    510.815    670.779    510.815    519.354    510.815
 71.170    735.000    742.243     -7.243    510.889    732.651    510.889    520.422    510.889
 71.270    864.997    830.813     34.184    510.963    819.937    510.963    521.756    510.963
 71.370    958.000    948.842      9.158    511.036    936.297    511.036    523.472    511.036
 71.470   1054.000   1096.711    -42.711    511.108   1081.948    511.108    525.733    511.108
 71.570   1291.946   1269.623     22.323    511.180   1251.878    511.180    528.759    511.180
 71.670   1489.755   1456.327     33.429    511.251   1434.558    511.251    532.833    511.251
 71.770   1623.000   1638.759    -15.759    511.322   1611.594    511.322    538.290    511.322
 71.870   1822.900   1793.219     29.681    511.392   1758.922    511.392    545.498    511.392
 71.970   1894.000   1894.388     -0.388    511.462   1850.868    511.462    554.813    511.462
 72.070   1864.000   1923.262    -59.262    511.531   1868.144    511.531    566.516    511.531
 72.170   1910.000   1875.912     34.088    511.599   1806.682    511.599    580.736    511.599
 72.270   1784.000   1765.680     18.320    511.667   1679.929    511.667    597.361    511.667
 72.370   1667.000   1616.318     50.682    511.734   1512.073    511.734    615.949    511.734
 72.470   1402.080   1452.555    -50.475    511.801   1328.718    511.801    635.626    511.801
 72.570   1278.489   1294.138    -15.650    511.867   1151.001    511.867    655.003    511.867
 72.670   1094.000   1153.615    -59.615    511.932    993.415    511.932    672.134    511.932
 72.770   1042.538   1036.344      6.194    511.997    863.644    511.997    684.699    511.997
 72.870    901.000    941.996    -40.996    512.061    763.503    512.061    690.554    512.061
 72.970    854.190    867.023    -12.833    512.124    690.577    512.124    688.568    512.124
 73.070    767.000    807.071    -40.071    512.187    640.092    512.187    679.162    512.187
 73.170    746.159    758.415    -12.256    512.249    606.563    512.249    664.096    512.249
 73.270    722.000    718.330      3.670    512.310    584.952    512.310    645.684    512.310
 73.370    694.000    684.962      9.038    512.371    571.245    512.371    626.084    512.371
 73.470    690.354    657.120     33.234    512.430    562.588    512.430    606.960    512.430
 73.570    659.697    634.079     25.618    512.490    557.142    512.490    589.427    512.490
 73.670    609.000    615.398     -6.398    512.548    553.823    512.548    574.126    512.548
 73.770    560.322    600.754    -40.432    512.606    552.046    512.606    561.319    512.606
 73.870    618.000    589.820     28.180    512.663    551.506    512.663    550.986    512.663
 73.970    583.602    582.198      1.404    512.719    552.023    512.719    542.908    512.719
 74.070    565.301    577.393    -12.092    512.775    553.428    512.775    536.758    512.775
 74.170    616.000    574.810     41.190    512.829    555.495    512.829    532.169    512.829
 74.270    610.000    573.775     36.225    512.883    557.903    512.883    528.786    512.883
 74.370    644.000    573.556     70.444    512.937    560.230    512.937    526.300    512.937
 74.470    630.000    573.409     56.591    512.989    561.982    512.989    524.458    512.989
 74.570    609.000    572.671     36.329    513.041    562.685    513.041    523.072    513.041
 74.670    597.000    570.907     26.093    513.092    562.041    513.092    522.003    513.092
 74.770    613.000    568.035     44.965    513.142    560.063    513.142    521.157    513.142
 74.870    655.000    564.313     90.687    513.191    557.075    513.191    520.468    513.191
 74.970    609.000    560.205     48.795    513.239    553.584    513.239    519.895    513.239
 75.070    582.000    556.238     25.762    513.287    550.143    513.287    519.408    513.287
 75.170    562.000    552.922      9.078    513.334    547.286    513.334    518.990    513.334
 75.270    553.000    550.743      2.257    513.380    545.510    513.380    518.626    513.380
 75.370    528.034    550.178    -22.144    513.425    545.302    513.425    518.309    513.425
 75.470    579.000    551.720     27.280    513.469    547.162    513.469    518.029    513.469
 75.570    543.000    555.885    -12.885    513.513    551.612    513.513    517.782    513.513
 75.670    585.688    563.185     22.503    513.556    559.167    513.556    517.564    513.556
 75.770    539.701    574.048    -34.346    513.597    570.259    513.597    517.370    513.597
 75.870    576.000    588.682    -12.682    513.638    585.099    513.638    517.197    513.638
 75.970    612.754    606.915      5.839    513.678    603.518    513.678    517.043    513.678
 76.070    615.000    628.035    -13.035    513.717    624.807    513.717    516.905    513.717
 76.170    699.000    650.684     48.316    513.756    647.608    513.756    516.782    513.756
 76.270    627.622    672.831    -45.208    513.793    669.896    513.793    516.671    513.793
 76.370    675.000    691.867    -16.867    513.829    689.063    513.829    516.572    513.829
 76.470    745.087    704.933     40.154    513.865    702.253    513.865    516.483    513.865
 76.570    689.000    709.629    -20.629    513.900    707.066    513.900    516.402    513.900
 76.670    739.000    704.954     34.046    513.933    702.503    513.933    516.330    513.933
 76.770    688.716    691.788     -3.073    513.966    689.444    513.966    516.264    513.966
 76.870    647.741    672.458    -24.717    513.998    670.214    513.998    516.205    513.998
 76.970    660.000    649.801     10.199    514.029    647.650    514.029    516.152    514.029
 77.070    607.000    626.433    -19.433    514.059    624.367    514.059    516.103    514.059
 77.170    576.000    604.394    -28.394    514.088    602.408    514.088    516.059    514.088
 77.270    565.000    585.042    -20.042    514.116    583.129    514.116    516.019    514.116
 77.370    568.000    569.063     -1.063    514.143    567.217    514.143    515.983    514.143
 77.470    543.000    556.577    -13.577    514.169    554.793    514.169    515.950    514.169
 77.570    506.000    547.292    -41.292    514.195    545.564    514.195    515.920    514.195
 77.670    531.098    540.682     -9.584    514.219    539.007    514.219    515.892    514.219
 77.770    524.000    536.145    -12.145    514.242    534.519    514.242    515.867    514.242
 77.870    564.133    533.113     31.021    514.264    531.532    514.264    515.843    514.264
 77.970    518.000    531.115    -13.115    514.285    529.577    514.285    515.822    514.285
 78.070    541.086    529.798     11.288    514.306    528.300    514.306    515.802    514.306
 78.170    518.000    528.918    -10.918    514.325    527.458    514.325    515.784    514.325
 78.270    493.000    528.317    -35.317    514.343    526.892    514.343    515.768    514.343
 78.370    534.354    527.901      6.453    514.360    526.508    514.360    515.752    514.360
 78.470    536.657    527.618      9.039    514.377    526.256    514.377    515.738    514.377
 78.570    532.000    527.445      4.555    514.392    526.112    514.392    515.725    514.392
 78.670    540.978    527.374     13.604    514.406    526.066    514.406    515.713    514.406
 78.770    500.632    527.397    -26.765    514.419    526.113    514.419    515.702    514.419
 78.870    506.000    527.544    -21.544    514.431    526.282    514.431    515.693    514.431
 78.970    527.000    527.875     -0.875    514.442    526.631    514.442    515.685    514.442
 79.070    569.818    528.394     41.424    514.452    527.166    514.452    515.679    514.452
 79.170    492.000    529.132    -37.132    514.461    527.917    514.461    515.675    514.461
 79.270    543.000    530.119     12.881    514.469    528.913    514.469    515.674    514.469
 79.370    491.625    531.385    -39.760    514.476    530.182    514.476    515.675    514.476
 79.470    520.000    532.955    -12.955    514.482    531.753    514.482    515.681    514.482
 79.570    559.000    534.865     24.135    514.486    533.657    514.486    515.690    514.486
 79.670    519.721    537.163    -17.442    514.490    535.944    514.490    515.704    514.490
 79.770    536.000    539.933     -3.933    514.492    538.698    514.492    515.722    514.492
 79.870    517.000    543.315    -26.315    514.494    542.058    514.494    515.746    514.494
 79.970    508.000    547.527    -39.527    514.494    546.242    514.494    515.774    514.494
 80.070    565.690    552.893     12.796    514.494    551.578    514.494    515.805    514.494
 80.170    563.000    559.846      3.154    514.492    558.496    514.492    515.838    514.492
 80.270    546.000    568.871    -22.871    514.489    567.487    514.489    515.872    514.489
 80.370    603.000    580.416     22.584    514.485    579.001    514.485    515.902    514.485
 80.470    584.000    594.773    -10.773    514.480    593.332    514.480    515.926    514.480
 80.570    649.305    611.965     37.340    514.473    610.509    514.473    515.940    514.473
 80.670    638.000    631.667      6.333    514.466    630.210    514.466    515.938    514.466
 80.770    617.000    653.154    -36.154    514.457    651.712    514.457    515.920    514.457
 80.870    694.000    675.324     18.676    514.448    673.914    514.448    515.885    514.448
 80.970    739.000    696.816     42.184    514.437    695.452    514.437    515.835    514.437
 81.070    760.746    716.207     44.539    514.425    714.899    514.425    515.775    514.425
 81.170    702.000    732.200    -30.200    514.412    730.953    514.412    515.707    514.412
 81.270    742.000    743.742     -1.742    514.398    742.558    514.398    515.636    514.398
 81.370    753.000    750.105      2.895    514.383    748.983    514.383    515.565    514.383
 81.470    703.000    750.967    -47.967    514.366    749.902    514.366    515.496    514.366
 81.570    718.000    746.433    -28.433    514.349    745.421    514.349    515.430    514.349
 81.670    794.000    736.990     57.010    514.330    736.023    514.330    515.368    514.330
 81.770    768.000    723.473     44.527    514.310    722.545    514.310    515.309    514.310
 81.870    684.000    707.044    -23.044    514.289    706.148    514.289    515.255    514.289
 81.970    721.000    689.029     31.971    514.267    688.158    514.267    515.205    514.267
 82.070    716.000    670.636     45.364    514.243    669.785    514.243    515.159    514.243
 82.170    661.912    652.738      9.174    514.219    651.903    514.219    515.115    514.219
 82.270    641.000    635.819      5.181    514.193    634.996    514.193    515.073    514.193
 82.370    645.000    620.086     24.914    514.166    619.271    514.166    515.033    514.166
 82.470    576.000    605.639    -29.639    514.138    604.829    514.138    514.994    514.138
 82.570    542.000    592.600    -50.600    514.109    591.793    514.109    514.956    514.109
 82.670    540.000    581.140    -41.140    514.079    580.334    514.079    514.918    514.079
 82.770    598.752    571.437     27.315    514.047    570.631    514.047    514.880    514.047
 82.870    565.552    563.642      1.911    514.014    562.833    514.014    514.842    514.014
 82.970    538.000    557.863    -19.863    513.980    557.052    513.980    514.804    513.980
 83.070    536.000    554.156    -18.156    513.945    553.341    513.945    514.765    513.945
 83.170    547.000    552.506     -5.506    513.909    551.687    513.909    514.725    513.909
 83.270    525.000    552.808    -27.808    513.871    551.985    513.871    514.685    513.871
 83.370    563.000    554.853      8.147    513.833    554.025    513.833    514.644    513.833
 83.470    540.000    558.312    -18.312    513.793    557.479    513.793    514.602    513.793
 83.570    573.000    562.737     10.263    513.752    561.898    513.752    514.559    513.752
 83.670    600.353    567.573     32.780    513.709    566.730    513.709    514.516    513.709
 83.770    523.000    572.185    -49.185    513.666    571.338    513.666    514.471    513.666
 83.870    580.157    575.903      4.253    513.621    575.054    513.621    514.426    513.621
 83.970    622.925    578.115     44.810    513.575    577.265    513.575    514.380    513.575
 84.070    597.762    578.387     19.375    513.528    577.538    513.528    514.333    513.528
 84.170    577.000    576.589      0.411    513.480    575.742    513.480    514.285    513.480
 84.270    589.000    572.923     16.077    513.430    572.079    513.430    514.236    513.430
 84.370    571.000    567.841      3.159    513.380    567.001    513.380    514.187    513.380
 84.470    585.000    561.901     23.099    513.328    561.065    513.328    514.136    513.328
 84.570    553.000    555.653     -2.653    513.275    554.820    513.275    514.085    513.275
 84.670    551.000    549.562      1.438    513.220    548.731    513.220    514.032    513.220
 84.770    545.000    543.979      1.021    513.165    543.151    513.165    513.979    513.165
 84.870    551.060    539.133     11.927    513.108    538.305    513.108    513.924    513.108
 84.970    513.000    535.130    -22.130    513.050    534.302    513.050    513.869    513.050
 85.070    489.255    531.981    -42.725    512.991    531.152    512.991    513.813    512.991
 85.170    500.365    529.623    -29.258    512.930    528.792    512.930    513.756    512.930
 85.270    547.000    527.955     19.045    512.869    527.121    512.869    513.698    512.869
 85.370    495.000    526.862    -31.862    512.806    526.025    512.806    513.639    512.806
 85.470    493.558    526.242    -32.684    512.742    525.400    512.742    513.580    512.742
 85.570    545.702    526.014     19.688    512.677    525.167    512.677    513.519    512.677
 85.670    505.919    526.135    -20.216    512.610    525.283    512.610    513.457    512.610
 85.770    553.000    526.603     26.397    512.542    525.745    512.542    513.395    512.542
 85.870    519.248    527.458     -8.209    512.474    526.592    512.474    513.332    512.474
 85.970    553.000    528.783     24.217    512.403    527.910    512.403    513.267    512.403
 86.070    543.650    530.705     12.944    512.332    529.823    512.332    513.202    512.332
 86.170    538.000    533.387      4.613    512.259    532.495    512.259    513.136    512.259
 86.270    511.000    537.015    -26.015    512.186    536.111    512.186    513.070    512.186
 86.370    534.000    541.778     -7.778    512.111    540.860    512.111    513.002    512.111
 86.470    522.000    547.841    -25.841    512.035    546.908    512.035    512.934    512.035
 86.570    541.000    555.309    -14.309    511.957    554.359    511.957    512.864    511.957
 86.670    497.000    564.184    -67.184    511.879    563.215    511.879    512.794    511.879
 86.770    596.448    574.325     22.123    511.799    573.336    511.799    512.724    511.799
 86.870    624.752    585.419     39.333    511.718    584.409    511.718    512.652    511.718
 86.970    597.981    596.961      1.020    511.635    595.928    511.635    512.580    511.635
 87.070    658.222    608.256     49.966    511.552    607.202    511.552    512.507    511.552
 87.170    584.560    618.443    -33.883    511.467    617.370    511.467    512.433    511.467
 87.270    616.516    626.609    -10.094    511.381    625.519    511.381    512.359    511.381
 87.370    655.000    631.895     23.105    511.294    630.791    511.294    512.284    511.294
 87.470    593.440    633.694    -40.254    511.206    632.579    511.206    512.208    511.206
 87.570    629.000    631.849     -2.849    511.117    630.728    511.117    512.132    511.117
 87.670    640.000    626.697     13.303    511.026    625.573    511.026    512.055    511.026
 87.770    581.039    618.958    -37.920    510.934    617.832    510.934    511.978    510.934
 87.870    632.000    609.558     22.442    510.841    608.429    510.841    511.901    510.841
 87.970    613.393    599.473     13.920    510.747    598.342    510.747    511.823    510.747
 88.070    584.873    589.625     -4.752    510.651    588.489    510.651    511.744    510.651
 88.170    632.000    580.810     51.190    510.555    579.668    510.555    511.666    510.555
 88.270    547.968    573.656    -25.688    510.457    572.506    510.457    511.587    510.457
 88.370    579.000    568.596     10.404    510.358    567.436    510.358    511.508    510.358
 88.470    582.000    565.860     16.140    510.258    564.687    510.258    511.428    510.258
 88.570    582.797    565.480     17.318    510.156    564.293    510.156    511.349    510.156
 88.670    632.000    567.303     64.697    510.054    566.101    510.054    511.270    510.054
 88.770    601.000    571.011     29.989    509.950    569.792    509.950    511.191    509.950
 88.870    604.830    576.138     28.692    509.845    574.901    509.845    511.112    509.845
 88.970    623.723    582.099     41.624    509.739    580.842    509.739    511.034    509.739
 89.070    625.160    588.218     36.942    509.632    586.938    509.632    510.956    509.632
 89.170    606.000    593.763     12.237    509.523    592.460    509.523    510.878    509.523
 89.270    568.000    598.014    -30.014    509.414    596.684    509.414    510.801    509.414
 89.370    560.147    600.351    -40.204    509.303    598.990    509.303    510.726    509.303
 89.470    616.000    600.376     15.624    509.191    598.980    509.191    510.651    509.191
 89.570    613.000    598.004     14.996    509.078    596.569    509.078    510.578    509.078
 89.670    612.000    593.474     18.526    508.964    591.995    508.964    510.506    508.964
 89.770    593.000    587.262      5.738    508.849    585.733    508.849    510.436    508.849
 89.870    574.000    579.952     -5.952    508.732    578.369    508.732    510.368    508.732
 89.970    576.000    572.135      3.865    508.615    570.493    508.615    510.303    508.615
 90.070    542.905    564.332    -21.427    508.496    562.627    508.496    510.240    508.496
 90.170    502.000    556.963    -54.963    508.376    555.191    508.376    510.181    508.376
 90.270    507.956    550.331    -42.375    508.255    548.487    508.255    510.126    508.255
 90.370    513.000    544.621    -31.621    508.133    542.699    508.133    510.076    508.133
 90.470    518.000    539.910    -21.910    508.010    537.904    508.010    510.032    508.010
 90.570    512.000    536.189    -24.189    507.886    534.091    507.886    509.995    507.886
 90.670    515.000    533.387    -18.387    507.761    531.188    507.761    509.967    507.761
 90.770    531.752    531.397      0.355    507.634    529.086    507.634    509.951    507.634
 90.870    548.000    530.102     17.898    507.507    527.663    507.507    509.949    507.507
 90.970    540.441    529.392     11.049    507.378    526.807    507.378    509.965    507.378
 91.070    528.000    529.183     -1.183    507.248    526.427    507.248    510.005    507.248
 91.170    497.000    529.425    -32.425    507.117    526.467    507.117    510.075    507.117
 91.270    522.000    530.107     -8.107    506.985    526.906    506.985    510.184    506.985
 91.370    522.000    531.261     -9.261    506.852    527.768    506.852    510.342    506.852
 91.470    545.176    532.966     12.209    506.718    529.119    506.718    510.562    506.718
 91.570    534.000    535.343     -1.343    506.583    531.064    506.583    510.857    506.583
 91.670    523.000    538.521    -15.521    506.447    533.717    506.447    511.244    506.447
 91.770    533.000    542.774     -9.774    506.310    537.332    506.310    511.741    506.310
 91.870    488.000    548.320    -60.320    506.172    542.112    506.172    512.367    506.172
 91.970    578.964    555.385     23.579    506.032    548.261    506.032    513.139    506.032
 92.070    593.391    564.195     29.195    505.892    555.992    505.892    514.075    505.892
 92.170    572.653    574.946     -2.293    505.751    565.483    505.751    515.188    505.751
 92.270    589.000    587.771      1.229    505.608    576.860    505.608    516.487    505.608
 92.370    576.810    602.701    -25.891    505.465    590.152    505.465    517.975    505.465
 92.470    620.000    619.650      0.350    505.321    605.279    505.321    519.646    505.321
 92.570    646.521    638.392      8.129    505.175    622.032    505.175    521.482    505.175
 92.670    665.696    658.544      7.152    505.029    640.059    505.029    523.455    505.029
 92.770    669.000    679.565    -10.565    504.882    658.861    504.882    525.520    504.882
 92.870    732.000    700.769     31.231    504.733    677.816    504.733    527.616    504.733
 92.970    728.000    721.381      6.619    504.584    696.231    504.584    529.660    504.584
 93.070    747.396    740.637      6.759    504.434    713.442    504.434    531.552    504.434
 93.170    784.000    757.912     26.088    504.283    728.943    504.283    533.174    504.283
 93.270    805.000    772.841     32.159    504.131    742.492    504.131    534.401    504.131
 93.370    810.000    785.343     24.657    503.978    754.124    503.978    535.121    503.978
 93.470    823.572    795.574     27.998    503.824    764.071    503.824    535.253    503.824
 93.570    784.000    803.842    -19.842    503.669    772.667    503.669    534.772    503.669
 93.670    807.028    810.538     -3.510    503.513    780.270    503.513    533.712    503.513
 93.770    783.000    816.115    -33.115    503.356    787.247    503.356    532.158    503.356
 93.870    817.000    821.128     -4.128    503.198    794.035    503.198    530.228    503.198
 93.970    777.535    826.223    -48.687    503.040    801.157    503.040    528.045    503.040
 94.070    885.278    832.053     53.225    502.880    809.148    502.880    525.726    502.880
 94.170    876.000    839.110     36.890    502.720    818.403    502.720    523.370    502.720
 94.270    910.000    847.548     62.452    502.559    828.998    502.559    521.054    502.559
 94.370    844.000    857.072    -13.072    502.397    840.577    502.397    518.839    502.397
 94.470    914.920    866.902     48.018    502.234    852.320    502.234    516.767    502.234
 94.570    935.855    875.839     60.017    502.070    863.000    502.070    514.864    502.070
 94.670    891.000    882.387      8.613    501.906    871.106    501.906    513.147    501.906
 94.770    888.000    884.981      3.019    501.740    875.070    501.740    511.620    501.740
 94.870    943.000    882.284     60.716    501.574    873.555    501.574    510.279    501.574
 94.970    902.050    873.507     28.543    501.407    865.783    501.407    509.115    501.407
 95.070    937.000    858.630     78.370    501.239    851.747    501.239    508.115    501.239
 95.170    890.000    838.421     51.579    501.071    832.231    501.071    507.261    501.071
 95.270    831.000    814.264     16.736    500.901    808.636    500.901    506.535    500.901
 95.370    780.397    787.906     -7.509    500.731    782.728    500.731    505.918    500.731
 95.470    766.000    761.227      4.773    500.560    756.405    500.560    505.393    500.560
 95.570    786.714    736.087     50.627    500.389    731.543    500.389    504.944    500.389
 95.670    763.000    714.230     48.770    500.216    709.898    500.216    504.557    500.216
 95.770    727.000    697.229     29.771    500.043    693.058    500.043    504.220    500.043
 95.870    686.000    686.468     -0.468    499.869    682.413    499.869    503.924    499.869
 95.970    658.000    683.126    -25.126    499.695    679.153    499.695    503.661    499.695
 96.070    659.748    688.178    -28.430    499.520    684.258    499.520    503.425    499.520
 96.170    682.000    702.448    -20.448    499.344    698.558    499.344    503.210    499.344
 96.270    743.000    726.512     16.488    499.167    722.633    499.167    503.013    499.167
 96.370    774.000    760.695     13.305    498.990    756.809    498.990    502.832    498.990
 96.470    787.000    805.000    -18.000    498.812    801.093    498.812    502.665    498.812
 96.570    886.000    859.012     26.988    498.634    855.070    498.634    502.510    498.634
 96.670    904.438    921.793    -17.355    498.455    917.805    498.455    502.367    498.455
 96.770   1018.645    991.801     26.845    498.275    987.756    498.275    502.235    498.275
 96.870   1020.940   1066.829    -45.889    498.094   1062.719    498.094    502.114    498.094
 96.970   1166.000   1143.980     22.020    497.913   1139.795    497.913    502.004    497.913
 97.070   1169.000   1219.710    -50.710    497.732   1215.443    497.732    501.906    497.732
 97.170   1315.000   1289.945     25.055    497.550   1285.588    497.550    501.818    497.550
 97.270   1359.047   1350.315      8.732    497.367   1345.861    497.367    501.743    497.367
 97.370   1386.000   1396.578    -10.578    497.184   1392.017    497.184    501.681    497.184
 97.470   1385.108   1425.206    -40.098    497.000   1420.527    497.000    501.633    497.000
 97.570   1501.000   1434.037     66.963    496.816   1429.228    496.816    501.600    496.816
 97.670   1435.000   1422.712     12.288    496.631   1417.755    496.631    501.584    496.631
 97.770   1384.000   1392.694     -8.694    496.446   1387.569    496.446    501.588    496.446
 97.870   1315.000   1346.880    -31.880    496.260   1341.560    496.260    501.614    496.260
 97.970   1235.000   1289.026    -54.026    496.074   1283.481    496.074    501.666    496.074
 98.070   1268.809   1223.224     45.584    495.887   1217.418    495.887    501.750    495.887
 98.170   1172.000   1153.529     18.471    495.700   1147.419    495.700    501.872    495.700
 98.270   1075.903   1083.718     -7.815    495.513   1077.252    495.513    502.041    495.513
 98.370   1071.000   1017.153     53.847    495.325   1010.269    495.325    502.269    495.325
 98.470    993.245    956.704     36.541    495.137    949.326    495.137    502.569    495.137
 98.570    855.007    904.734    -49.727    494.948    896.768    494.948    502.961    494.948
 98.670    849.000    863.116    -14.116    494.759    854.447    494.759    503.467    494.759
 98.770    783.000    833.280    -50.280    494.569    823.765    494.569    504.114    494.569
 98.870    800.000    816.285    -16.285    494.380    805.747    494.380    504.937    494.380
 98.970    783.000    812.883    -29.883    494.190    801.108    494.190    505.974    494.190
 99.070    814.000    823.587     -9.587    493.999    810.316    493.999    507.271    493.999
 99.170    860.000    848.702     11.298    493.808    833.625    493.808    508.878    493.808
 99.270    882.000    888.316     -6.316    493.617    871.072    493.617    510.848    493.617
 99.370    903.598    942.268    -38.670    493.426    922.438    493.426    513.238    493.426
 99.470    992.000   1010.073    -18.073    493.235    987.184    493.235    516.104    493.235
 99.570   1043.391   1090.835    -47.443    493.043   1064.360    493.043    519.498    493.043
 99.670   1193.000   1183.134      9.866    492.851   1152.504    492.851    523.466    492.851
 99.770   1309.625   1284.994     24.630    492.659   1249.605    492.659    528.041    492.659
 99.870   1396.000   1393.754      2.246    492.466   1352.987    492.466    533.239    492.466
 99.970   1564.000   1506.072     57.928    492.274   1459.310    492.274    539.057    492.274
100.070   1682.000   1618.006     63.994    492.081   1564.665    492.081    545.464    492.081
100.170   1727.000   1725.206      1.794    491.888   1664.760    491.888    552.400    491.888
100.270   1802.000   1823.239    -21.239    491.695   1755.260    491.695    559.767    491.695
100.370   1880.483   1907.992    -27.509    491.502   1832.183    491.502    567.431    491.502
100.470   1929.986   1976.012    -46.026    491.309   1892.258    491.309    575.210    491.309
100.570   2070.000   2024.668     45.332    491.116   1933.079    491.116    582.877    491.116
100.670   2072.000   2052.137     19.863    490.922   1953.101    490.922    590.154    490.922
100.770   2057.000   2057.360     -0.360    490.729   1951.582    490.729    596.720    490.729
100.870   1953.489   2040.134    -86.645    490.535   1928.670    490.535    602.226    490.535
100.970   2047.000   2001.370     45.630    490.342   1885.618    490.342    606.329    490.342
101.070   1987.657   1943.322     44.336    490.149   1824.977    490.149    608.730    490.149
101.170   1913.000   1869.595     43.405    489.955   1750.546    489.955    609.239    489.955
101.270   1796.895   1784.805     12.090    489.762   1666.992    489.762    607.799    489.762
101.370   1713.000   1694.014     18.986    489.569   1579.286    489.569    604.509    489.569
101.470   1585.000   1602.156    -17.156    489.375   1492.132    489.375    599.596    489.375
101.570   1529.000   1513.569     15.431    489.182   1409.556    489.182    593.376    489.182
101.670   1415.000   1431.707    -16.707    488.989   1334.661    488.989    586.198    488.989
101.770   1350.000   1358.996     -8.996    488.796   1269.532    488.796    578.406    488.796
101.870   1258.000   1296.794    -38.794    488.604   1215.216    488.604    570.311    488.604
101.970   1228.000   1245.426    -17.426    488.411   1171.779    488.411    562.174    488.411
102.070   1238.274   1204.282     33.992    488.219   1138.394    488.219    554.212    488.219
102.170   1155.064   1171.941    -16.878    488.026   1113.474    488.026    546.590    488.026
102.270   1133.000   1146.357    -13.357    487.834   1094.850    487.834    539.433    487.834
102.370   1077.000   1125.076    -48.076    487.643   1079.982    487.643    532.826    487.643
102.470   1074.000   1105.509    -31.509    487.451   1066.228    487.451    526.820    487.451
102.570   1037.000   1085.245    -48.245    487.260   1051.156    487.260    521.438    487.260
102.670   1103.009   1062.365     40.644    487.069   1032.846    487.069    516.677    487.069
102.770   1012.560   1035.667    -23.107    486.879   1010.120    486.879    512.516    486.879
102.870   1058.000   1004.748     53.252    486.689    982.610    486.689    508.917    486.689
102.970   1002.477    969.910     32.567    486.499    950.666    486.499    505.832    486.499
103.070    987.954    931.965     55.989    486.309    915.153    486.309    503.207    486.309
103.170    882.054    892.010     -9.956    486.120    877.225    486.120    500.986    486.120
103.270    796.606    851.243    -54.637    485.932    838.137    485.932    499.114    485.932
103.370    789.000    810.830    -21.830    485.744    799.107    485.744    497.537    485.744
103.470    766.000    771.822     -5.822    485.556    761.235    485.556    496.206    485.556
103.570    778.000    735.096     42.904    485.369    725.442    485.369    495.078    485.369
103.670    737.558    701.326     36.232    485.182    692.440    485.182    494.116    485.182
103.770    657.000    670.968    -13.968    484.996    662.717    484.996    493.288    484.996
103.870    652.000    644.264      7.736    484.810    636.542    484.810    492.567    484.810
103.970    701.000    621.263     79.737    484.625    613.984    484.625    491.933    484.625
104.070    630.369    601.848     28.521    484.441    594.945    484.441    491.367    484.441
104.170    563.000    585.779    -22.779    484.257    579.198    484.257    490.857    484.257
104.270    574.491    572.732      1.759    484.074    566.429    484.074    490.391    484.074
104.370    577.365    562.337     15.028    483.891    556.277    483.891    489.962    483.891
104.470    580.768    554.216     26.552    483.709    548.370    483.709    489.563    483.709
104.570    551.000    548.006      2.994    483.528    542.350    483.528    489.190    483.528
104.670    532.537    543.371    -10.834    483.348    537.883    483.348    488.839    483.348
104.770    589.000    540.042     48.958    483.168    534.705    483.168    488.506    483.168
104.870    528.000    537.787     -9.787    482.989    532.586    482.989    488.191    482.989
104.970    527.000    536.432     -9.432    482.811    531.352    482.811    487.890    482.811
105.070    531.000    535.857     -4.857    482.634    530.885    482.634    487.603    482.634
105.170    557.000    535.993     21.007    482.457    531.118    482.457    487.328    482.457
105.270    556.772    536.815     19.957    482.282    532.026    482.282    487.065    482.282
105.370    511.000    538.340    -27.340    482.107    533.627    482.107    486.812    482.107
105.470    519.066    540.617    -21.551    481.933    535.971    481.933    486.570    481.933
105.570    544.000    543.723      0.277    481.761    539.136    481.761    486.337    481.761
105.670    549.037    547.752      1.285    481.589    543.215    481.589    486.112    481.589
105.770    557.000    552.804      4.196    481.418    548.309    481.418    485.897    481.418
105.870    574.000    558.968     15.032    481.248    554.508    481.248    485.689    481.248
105.970    548.369    566.308    -17.939    481.079    561.877    481.079    485.489    481.079
106.070    584.908    574.852     10.056    480.912    570.442    480.912    485.297    480.912
106.170    639.000    584.575     54.425    480.745    580.180    480.745    485.112    480.745
106.270    586.000    595.395     -9.395    480.579    591.009    480.579    484.934    480.579
106.370    628.000    607.160     20.840    480.415    602.777    480.415    484.763    480.415
106.470    592.433    619.653    -27.220    480.252    615.268    480.252    484.599    480.252
106.570    581.274    632.589    -51.315    480.090    628.197    480.090    484.442    480.090
106.670    616.895    645.625    -28.729    479.929    641.221    479.929    484.291    479.929
106.770    627.587    658.366    -30.779    479.769    653.946    479.769    484.147    479.769
106.870    692.890    670.389     22.500    479.611    665.948    479.611    484.009    479.611
106.970    600.000    681.265    -81.265    479.454    676.799    479.454    483.877    479.454
107.070    687.000    690.599     -3.599    479.298    686.102    479.298    483.752    479.298
107.170    666.000    698.077    -32.077    479.144    693.546    479.144    483.634    479.144
107.270    673.730    703.521    -29.792    478.991    698.952    478.991    483.522    478.991
107.370    692.000    706.930    -14.930    478.839    702.318    478.839    483.417    478.839
107.470    673.000    708.484    -35.484    478.689    703.824    478.689    483.319    478.689
107.570    621.000    708.517    -87.517    478.541    703.805    478.541    483.227    478.541
107.670    672.846    707.466    -34.620    478.393    702.695    478.393    483.143    478.393
107.770    693.000    705.795    -12.795    478.248    700.960    478.248    483.065    478.248
107.870    716.101    703.943     12.158    478.103    699.038    478.103    482.995    478.103
107.970    715.000    702.275     12.725    477.961    697.294    477.961    482.933    477.961
108.070    698.622    701.052     -2.430    477.820    695.989    477.820    482.878    477.820
108.170    699.313    700.417     -1.103    477.681    695.265    477.681    482.831    477.681
108.270    668.000    700.380    -32.380    477.543    695.133    477.543    482.793    477.543
108.370    706.000    700.826      5.174    477.407    695.476    477.407    482.763    477.407
108.470    669.000    701.519    -32.519    477.272    696.060    477.272    482.742    477.272
108.570    663.000    702.125    -39.125    477.140    696.548    477.140    482.730    477.140
108.670    686.663    702.242    -15.579    477.009    696.539    477.009    482.728    477.009
108.770    686.000    701.445    -15.445    476.880    695.608    476.880    482.736    476.880
108.870    654.000    699.345    -45.345    476.753    693.364    476.753    482.755    476.753
108.970    682.000    695.645    -13.645    476.628    689.511    476.628    482.785    476.628
109.070    708.000    690.189     17.811    476.504    683.891    476.504    482.827    476.504
109.170    734.000    682.980     51.020    476.383    676.508    476.383    482.881    476.383
109.270    712.000    674.173     37.827    476.263    667.514    476.263    482.948    476.263
109.370    642.000    664.034    -22.034    476.146    657.177    476.146    483.029    476.146
109.470    624.000    652.903    -28.903    476.030    645.833    476.030    483.125    476.030
109.570    634.000    641.146     -7.146    475.916    633.850    475.916    483.237    475.916
109.670    622.622    629.132     -6.509    475.805    621.593    475.805    483.365    475.805
109.770    589.000    617.202    -28.202    475.696    609.405    475.696    483.512    475.696
109.870    564.450    605.662    -41.212    475.588    597.589    475.588    483.679    475.588
109.970    622.000    594.772     27.228    475.483    586.403    475.483    483.868    475.483
110.070    599.000    584.738     14.262    475.381    576.052    475.381    484.081    475.381
110.170    558.000    575.710    -17.710    475.280    566.681    475.280    484.320    475.280
110.270    583.846    567.762     16.084    475.182    558.363    475.182    484.590    475.182
110.370    553.098    560.972     -7.875    475.085    551.172    475.085    484.893    475.085
110.470    550.000    555.363     -5.363    474.992    545.125    474.992    485.235    474.992
110.570    582.000    550.882     31.118    474.900    540.163    474.900    485.622    474.900
110.670    537.000    547.466    -10.466    474.811    536.217    474.811    486.061    474.811
110.770    559.415    545.037     14.378    474.725    533.200    474.725    486.562    474.725
110.870    545.000    543.505      1.495    474.641    531.010    474.641    487.134    474.641
110.970    551.525    542.780      8.745    474.559    529.544    474.559    487.793    474.559
111.070    573.000    542.773     30.227    474.480    528.696    474.480    488.553    474.480
111.170    498.658    543.404    -44.747    474.403    528.368    474.403    489.435    474.403
111.270    564.231    544.606     19.625    474.329    528.468    474.329    490.462    474.329
111.370    604.000    546.325     57.675    474.258    528.916    474.258    491.661    474.258
111.470    517.000    548.523    -31.523    474.189    529.641    474.189    493.064    474.189
111.570    544.000    551.178     -7.178    474.124    530.585    474.124    494.709    474.124
111.670    598.315    554.283     44.032    474.060    531.699    474.060    496.636    474.060
111.770    565.000    557.848      7.152    474.000    532.946    474.000    498.892    474.000
111.870    553.000    561.900     -8.900    473.942    534.302    473.942    501.530    473.942
111.970    599.000    566.481     32.519    473.887    535.753    473.887    504.606    473.887
112.070    590.000    571.646     18.354    473.835    537.293    473.835    508.178    473.835
112.170    520.000    577.465    -57.465    473.786    538.931    473.786    512.309    473.786
112.270    582.080    584.016     -1.936    473.740    540.683    473.740    517.062    473.740
112.370    600.423    591.386      9.037    473.697    542.573    473.697    522.499    473.697
112.470    586.813    599.666    -12.853    473.657    544.634    473.657    528.677    473.657
112.570    611.000    608.949      2.051    473.620    546.907    473.620    535.649    473.620
112.670    673.000    619.331     53.669    473.586    549.444    473.586    543.459    473.586
112.770    585.000    630.908    -45.908    473.555    552.311    473.555    552.139    473.555
112.870    688.641    643.779     44.861    473.527    555.590    473.527    561.703    473.527
112.970    657.929    658.050     -0.121    473.503    559.389    473.503    572.149    473.503
113.070    698.601    673.831     24.770    473.481    563.847    473.481    583.450    473.481
113.170    642.000    691.265    -49.265    473.463    569.149    473.463    595.562    473.463
113.270    722.000    710.511     11.489    473.449    575.534    473.449    608.406    473.449
113.370    708.000    731.776    -23.776    473.437    583.318    473.437    621.873    473.437
113.470    728.000    755.325    -27.325    473.429    592.909    473.429    635.821    473.429
113.570    766.000    781.506    -15.506    473.425    604.833    473.425    650.070    473.425
113.670    755.000    810.769    -55.769    473.424    619.757    473.424    664.403    473.424
113.770    832.000    843.690    -11.690    473.426    638.516    473.426    678.562    473.426
113.870    847.000    881.003    -34.003    473.432    662.142    473.432    692.247    473.432
113.970    896.583    923.624    -27.040    473.442    691.888    473.442    705.122    473.442
114.070    959.000    972.679    -13.679    473.455    729.248    473.455    716.819    473.455
114.170   1039.892   1029.533     10.359    473.472    775.967    473.472    726.956    473.472
114.270   1086.000   1095.812     -9.812    473.492    834.045    473.492    735.161    473.492
114.370   1142.000   1173.408    -31.408    473.516    905.715    473.516    741.090    473.516
114.470   1194.794   1264.510    -69.715    473.544    993.413    473.544    744.497    473.544
114.570   1423.000   1371.524     51.476    473.576   1099.710    473.576    745.218    473.576
114.670   1423.368   1497.040    -73.672    473.612   1227.227    473.612    743.219    473.612
114.770   1570.695   1643.706    -73.011    473.651   1378.520    473.651    738.595    473.651
114.870   1737.155   1814.082    -76.927    473.695   1555.933    473.695    731.559    473.695
114.970   2103.000   2010.439     92.561    473.742   1761.437    473.742    722.414    473.742
115.070   2295.000   2234.545     60.455    473.794   1996.442    473.794    711.517    473.794
115.170   2604.000   2487.442    116.558    473.849   2261.611    473.849    699.251    473.849
115.270   2709.178   2769.230    -60.052    473.909   2556.667    473.909    685.991    473.909
115.370   3150.000   3078.880     71.120    473.973   2880.229    473.973    672.092    473.973
115.470   3338.184   3414.081    -75.897    474.041   3229.670    474.041    657.874    474.041
115.570   3702.914   3771.140    -68.226    474.113   3601.018    474.113    643.614    474.113
115.670   4104.000   4144.932    -40.932    474.189   3988.914    474.189    629.553    474.189
115.770   4445.000   4528.919    -83.919    474.270   4386.622    474.270    615.887    474.270
115.870   5029.548   4915.222    114.326    474.355   4786.107    474.355    602.778    474.355
115.970   5223.000   5294.773    -71.773    474.445   5178.175    474.445    590.350    474.445
116.070   5577.363   5657.529    -80.166    474.539   5552.695    474.539    578.696    474.539
116.170   5959.000   5992.780    -33.780    474.637   5898.893    474.637    567.881    474.637
116.270   6284.000   6289.561     -5.561    474.740   6205.768    474.740    557.939    474.740
116.370   6574.000   6537.196     36.804    474.848   6462.630    474.848    548.885    474.848
116.470   6680.102   6725.986    -45.884    474.960   6659.788    474.960    540.712    474.960
116.570   6707.894   6847.991   -140.097    475.077   6789.322    475.077    533.396    475.077
116.670   6892.428   6897.807     -5.379    475.198   6845.861    475.198    526.899    475.198
116.770   6841.000   6873.159    -32.159    475.324   6827.174    475.324    521.173    475.324
116.870   6883.000   6775.168    107.832    475.455   6734.434    475.455    516.163    475.455
116.970   6493.000   6608.198   -115.198    475.591   6572.058    475.591    511.807    475.591
117.070   6369.125   6379.335    -10.211    475.732   6347.193    475.732    508.044    475.732
117.170   6135.529   6097.651     37.878    475.878   6068.968    475.878    504.812    475.878
117.270   5781.318   5773.402      7.916    476.028   5747.699    476.028    502.048    476.028
117.370   5187.000   5417.334   -230.334    476.184   5394.189    476.184    499.696    476.184
117.470   5024.015   5040.132    -16.117    476.345   5019.177    476.345    497.701    476.345
117.570   4604.961   4651.887    -46.926    476.511   4632.805    476.511    496.015    476.511
117.670   4272.181   4261.844     10.337    476.682   4244.362    476.682    494.592    476.682
117.770   3879.000   3878.153      0.847    476.858   3862.038    476.858    493.394    476.858
117.870   3623.000   3507.713    115.287    477.039   3492.771    477.039    492.386    477.039
117.970   3151.000   3156.092     -5.092    477.226   3142.159    477.226    491.540    477.226
118.070   2960.000   2827.512    132.488    477.418   2814.452    477.418    490.829    477.418
118.170   2577.138   2524.896     52.241    477.615   2512.596    477.615    490.232    477.615
118.270   2273.255   2249.961     23.294    477.818   2238.327    477.818    489.732    477.818
118.370   2068.551   2003.353     65.198    478.027   1992.308    478.027    489.314    478.027
118.470   1840.000   1784.803     55.197    478.241   1774.284    478.241    488.966    478.241
118.570   1567.000   1593.296    -26.296    478.460   1583.251    478.460    488.677    478.460
118.670   1363.000   1427.246    -64.246    478.685   1417.632    478.685    488.441    478.685
118.770   1239.000   1284.662    -45.662    478.916   1275.441    478.916    488.250    478.916
118.870   1084.000   1163.302    -79.302    479.153   1154.444    479.153    488.099    479.153
118.970   1029.000   1060.814    -31.814    479.395   1052.292    479.395    487.985    479.395
119.070   1003.000    974.848     28.152    479.643    966.640    479.643    487.903    479.643
119.170    877.148    903.148    -26.000    479.897    895.232    479.897    487.851    479.897
119.270    851.516    843.616      7.900    480.157    835.974    480.157    487.826    480.157
119.370    744.163    794.352    -50.189    480.423    786.965    480.423    487.828    480.423
119.470    739.000    753.676    -14.676    480.695    746.528    480.695    487.855    480.695
119.570    679.000    720.131    -41.131    480.973    713.206    480.973    487.906    480.973
119.670    671.000    692.479    -21.479    481.257    685.762    481.257    487.980    481.257
119.770    640.000    669.683    -29.683    481.547    663.158    481.547    488.076    481.547
119.870    677.562    650.883     26.679    481.844    644.536    481.844    488.194    481.844
119.970    626.000    635.379     -9.379    482.146    629.194    482.146    488.334    482.146
120.070    638.000    622.605     15.395    482.456    616.568    482.456    488.495    482.456
120.170    601.000    612.108    -11.108    482.771    606.203    482.771    488.679    482.771
120.270    572.000    603.525    -31.525    483.093    597.737    483.093    488.884    483.093
120.370    618.000    596.573     21.427    483.421    590.886    483.421    489.111    483.421
120.470    560.219    591.025    -30.806    483.756    585.425    483.756    489.360    483.756
120.570    590.424    586.706      3.717    484.098    581.176    484.098    489.632    484.098
120.670    611.000    583.478     27.522    484.446    578.002    484.446    489.927    484.446
120.770    617.000    581.233     35.767    484.801    575.794    484.801    490.245    484.801
120.870    596.000    579.884     16.116    485.162    574.466    485.162    490.587    485.162
120.970    598.000    579.363     18.637    485.531    573.948    485.531    490.952    485.531
121.070    581.000    579.611      1.389    485.906    574.183    485.906    491.342    485.906
121.170    555.932    580.576    -24.645    486.288    575.119    486.288    491.755    486.288
121.270    620.285    582.212     38.073    486.677    576.708    486.677    492.192    486.677
121.370    557.000    584.469    -27.469    487.074    578.903    487.074    492.653    487.074
121.470    596.000    587.297      8.703    487.477    581.651    487.477    493.137    487.477
121.570    599.000    590.638      8.362    487.887    584.898    487.887    493.643    487.887
121.670    586.000    594.429     -8.429    488.305    588.581    488.305    494.171    488.305
121.770    625.000    598.599     26.401    488.729    592.629    488.729    494.720    488.729
121.870    615.000    603.066     11.934    489.161    596.964    489.161    495.287    489.161
121.970    574.708    607.743    -33.035    489.601    601.499    489.601    495.872    489.601
122.070    614.000    612.531      1.469    490.048    606.136    490.048    496.471    490.048
122.170    621.000    617.325      3.675    490.502    610.775    490.502    497.083    490.502
122.270    643.442    622.013     21.429    490.963    615.306    490.963    497.705    490.963
122.370    671.001    626.481     44.520    491.433    619.618    491.433    498.334    491.433
122.470    651.000    630.613     20.387    491.910    623.597    491.910    498.965    491.910
122.570    634.000    634.297     -0.297    492.394    627.138    492.394    499.596    492.394
122.670    676.593    637.430     39.162    492.887    630.141    492.887    500.221    492.887
122.770    652.337    639.926     12.411    493.387    632.523    493.387    500.836    493.387
122.870    601.117    641.719    -40.602    493.895    634.224    493.895    501.438    493.895
122.970    688.731    642.768     45.963    494.411    635.206    494.411    502.021    494.411
123.070    622.195    643.060    -20.866    494.935    635.461    494.935    502.582    494.935
123.170    672.000    642.611     29.389    495.467    635.007    495.467    503.118    495.467
123.270    637.000    641.458     -4.458    496.007    633.884    496.007    503.628    496.007
123.370    589.000    639.662    -50.662    496.555    632.152    496.555    504.110    496.555
123.470    687.449    637.295     50.154    497.111    629.885    497.111    504.565    497.111
123.570    652.016    634.440     17.577    497.676    627.163    497.676    504.995    497.676
123.670    633.901    631.184      2.718    498.249    624.070    498.249    505.402    498.249
123.770    608.165    627.614    -19.450    498.830    620.691    498.830    505.791    498.830
123.870    631.000    623.816      7.184    499.420    617.106    499.420    506.165    499.420
123.970    602.804    619.869    -17.065    500.018    613.390    500.018    506.528    500.018
124.070    583.961    615.843    -31.882    500.625    609.611    500.625    506.885    500.625
124.170    649.000    611.802     37.198    501.240    605.827    501.240    507.240    501.240
124.270    616.127    607.795      8.332    501.864    602.084    501.864    507.597    501.864
124.370    629.000    603.862     25.138    502.497    598.419    502.497    507.960    502.497
124.470    602.000    600.034      1.966    503.139    594.857    503.139    508.332    503.139
124.570    592.000    596.327     -4.327    503.789    591.415    503.789    508.715    503.789
124.670    630.254    592.753     37.502    504.449    588.100    504.449    509.113    504.449
124.770    583.279    589.312     -6.033    505.117    584.913    505.117    509.527    505.117
124.870    595.651    586.004      9.647    505.795    581.849    505.795    509.958    505.795
124.970    561.000    582.822    -21.822    506.481    578.900    506.481    510.409    506.481
