neutron_powder_diffraction_0238
R_wp: 3.898
Temperature (K): 1013.186
Counts: 84110.00
Wavelength (Ã…): 2.52098
COMMENTS
Test file for demonstrating the .xyy file format in Reel1.0
END OF HEADER
   tth       Y_obs     Y_calc      Y_res    Background    Phase_1_Nuc    Phase_1_Mag    Phase_2_Nuc    Phase_2_Mag
  9.970    609.000    570.570     38.430    569.898    570.539    569.898    569.928    569.898
 10.070    573.533    570.711      2.822    569.981    570.681    569.981    570.011    569.981
 10.170    586.000    570.867     15.133    570.058    570.836    570.058    570.088    570.058
 10.270    589.000    571.020     17.980    570.129    570.989    570.129    570.159    570.129
 10.370    583.751    571.173     12.578    570.194    571.142    570.194    570.224    570.194
 10.470    596.000    571.335     24.665    570.253    571.304    570.253    570.283    570.253
 10.570    595.633    571.510     24.123    570.306    571.478    570.306    570.337    570.306
 10.670    595.000    571.703     23.297    570.353    571.671    570.353    570.384    570.353
 10.770    620.000    571.920     48.080    570.395    571.887    570.395    570.427    570.395
 10.870    582.000    572.171      9.829    570.431    572.137    570.431    570.464    570.431
 10.970    552.000    572.465    -20.465    570.461    572.431    570.461    570.495    570.461
 11.070    611.000    572.822     38.178    570.486    572.787    570.486    570.520    570.486
 11.170    527.612    573.266    -45.655    570.506    573.231    570.506    570.539    570.506
 11.270    572.000    573.838     -1.838    570.519    573.802    570.519    570.554    570.519
 11.370    611.000    574.602     36.398    570.528    574.565    570.528    570.562    570.528
 11.470    563.000    575.704    -12.704    570.531    575.666    570.531    570.566    570.531
 11.570    583.000    577.535      5.465    570.529    577.494    570.529    570.565    570.529
 11.670    601.000    581.170     19.830    570.522    581.120    570.522    570.566    570.522
 11.770    590.000    589.040      0.960    570.509    588.979    570.509    570.559    570.509
 11.870    655.000    605.063     49.937    570.491    604.994    570.491    570.542    570.491
 11.970    634.118    632.460      1.658    570.469    632.374    570.469    570.520    570.469
 12.070    673.574    668.357      5.217    570.441    668.252    570.441    570.492    570.441
 12.170    719.000    698.392     20.608    570.408    698.270    570.408    570.460    570.408
 12.270    742.426    702.568     39.858    570.371    702.443    570.371    570.422    570.371
 12.370    666.014    677.137    -11.123    570.328    677.026    570.328    570.380    570.328
 12.470    675.117    640.516     34.601    570.281    640.425    570.281    570.333    570.281
 12.570    615.000    610.203      4.797    570.229    610.124    570.229    570.285    570.229
 12.670    548.000    591.522    -43.522    570.172    591.451    570.172    570.231    570.172
 12.770    543.000    582.066    -39.066    570.110    581.999    570.110    570.170    570.110
 12.870    588.000    577.686     10.314    570.044    577.621    570.044    570.104    570.044
 12.970    592.000    575.518     16.482    569.973    575.454    569.973    570.034    569.973
 13.070    551.629    574.232    -22.603    569.898    574.169    569.898    569.959    569.898
 13.170    550.643    573.338    -22.695    569.818    573.275    569.818    569.880    569.818
 13.270    548.000    572.661    -24.661    569.734    572.598    569.734    569.796    569.734
 13.370    522.000    572.123    -50.123    569.646    572.060    569.646    569.708    569.646
 13.470    611.145    571.681     39.464    569.553    571.618    569.553    569.615    569.553
 13.570    635.000    571.309     63.691    569.456    571.245    569.456    569.519    569.456
 13.670    538.000    570.986    -32.986    569.355    570.922    569.355    569.418    569.355
 13.770    521.000    570.700    -49.700    569.249    570.636    569.249    569.313    569.249
 13.870    562.538    570.441     -7.903    569.140    570.377    569.140    569.203    569.140
 13.970    567.000    570.203     -3.203    569.026    570.139    569.026    569.090    569.026
 14.070    540.857    569.981    -29.124    568.908    569.916    568.908    568.973    568.908
 14.170    555.000    569.771    -14.771    568.787    569.706    568.787    568.851    568.787
 14.270    591.000    569.572     21.428    568.661    569.506    568.661    568.726    568.661
 14.370    564.351    569.377     -5.026    568.531    569.311    568.531    568.597    568.531
 14.470    556.000    569.187    -13.187    568.398    569.121    568.398    568.464    568.398
 14.570    547.000    569.002    -22.002    568.261    568.936    568.261    568.327    568.261
 14.670    558.208    568.822    -10.614    568.120    568.754    568.120    568.188    568.120
 14.770    571.285    568.642      2.643    567.975    568.571    567.975    568.046    567.975
 14.870    563.000    568.461     -5.461    567.827    568.389    567.827    567.899    567.827
 14.970    608.849    568.280     40.569    567.675    568.207    567.675    567.748    567.675
 15.070    550.899    568.098    -17.199    567.519    568.024    567.519    567.593    567.519
 15.170    534.000    567.915    -33.915    567.360    567.841    567.360    567.434    567.360
 15.270    555.000    567.732    -12.732    567.198    567.658    567.198    567.272    567.198
 15.370    581.000    567.548     13.452    567.032    567.472    567.032    567.107    567.032
 15.470    564.000    567.362     -3.362    566.862    567.286    566.862    566.938    566.862
 15.570    574.106    567.174      6.932    566.690    567.097    566.690    566.766    566.690
 15.670    545.000    566.984    -21.984    566.514    566.907    566.514    566.590    566.514
 15.770    587.434    566.792     20.641    566.334    566.715    566.334    566.411    566.334
 15.870    523.476    566.599    -43.123    566.152    566.521    566.152    566.229    566.152
 15.970    529.000    566.403    -37.403    565.966    566.325    565.966    566.044    565.966
 16.070    552.000    566.206    -14.206    565.777    566.127    565.777    565.856    565.777
 16.170    520.000    566.006    -46.006    565.585    565.927    565.585    565.664    565.585
 16.270    556.000    565.804     -9.804    565.390    565.724    565.390    565.470    565.390
 16.370    606.623    565.599     41.024    565.192    565.519    565.192    565.272    565.192
 16.470    544.000    565.393    -21.393    564.991    565.312    564.991    565.072    564.991
 16.570    622.000    565.184     56.816    564.787    565.103    564.787    564.868    564.787
 16.670    522.000    564.972    -42.972    564.580    564.891    564.580    564.662    564.580
 16.770    550.279    564.759    -14.480    564.371    564.677    564.371    564.453    564.371
 16.870    583.638    564.543     19.095    564.158    564.460    564.158    564.241    564.158
 16.970    582.000    564.325     17.675    563.943    564.242    563.943    564.026    563.943
 17.070    566.000    564.107      1.893    563.725    564.022    563.725    563.809    563.725
 17.170    562.000    563.887     -1.887    563.504    563.801    563.504    563.590    563.504
 17.270    550.000    563.662    -13.662    563.281    563.575    563.281    563.368    563.281
 17.370    555.000    563.435     -8.435    563.055    563.348    563.055    563.142    563.055
 17.470    540.000    563.206    -23.206    562.827    563.118    562.827    562.915    562.827
 17.570    583.310    562.974     20.336    562.596    562.886    562.596    562.684    562.596
 17.670    577.000    562.741     14.259    562.362    562.652    562.362    562.451    562.362
 17.770    605.914    562.505     43.409    562.126    562.416    562.126    562.216    562.126
 17.870    545.000    562.269    -17.269    561.888    562.179    561.888    561.978    561.888
 17.970    530.000    562.029    -32.029    561.647    561.939    561.647    561.738    561.647
 18.070    573.000    561.788     11.212    561.404    561.696    561.404    561.496    561.404
 18.170    604.491    561.544     42.947    561.159    561.451    561.159    561.251    561.159
 18.270    545.275    561.298    -16.023    560.911    561.205    560.911    561.004    560.911
 18.370    563.000    561.050      1.950    560.662    560.956    560.662    560.755    560.662
 18.470    557.000    560.800     -3.800    560.410    560.706    560.410    560.504    560.410
 18.570    578.000    560.549     17.451    560.155    560.454    560.155    560.250    560.155
 18.670    559.000    560.295     -1.295    559.899    560.200    559.899    559.995    559.899
 18.770    575.000    560.040     14.960    559.641    559.944    559.641    559.737    559.641
 18.870    595.000    559.783     35.217    559.380    559.686    559.380    559.478    559.380
 18.970    606.000    559.525     46.475    559.118    559.427    559.118    559.216    559.118
 19.070    576.076    559.265     16.811    558.854    559.166    558.854    558.953    558.854
 19.170    590.000    559.005     30.995    558.588    558.903    558.588    558.689    558.588
 19.270    545.000    558.746    -13.746    558.319    558.639    558.319    558.427    558.319
 19.370    514.000    558.482    -44.482    558.049    558.373    558.049    558.158    558.049
 19.470    531.811    558.222    -26.411    557.778    558.113    557.778    557.887    557.778
 19.570    567.000    557.972      9.028    557.504    557.861    557.504    557.615    557.504
 19.670    544.431    557.704    -13.273    557.229    557.593    557.229    557.340    557.229
 19.770    537.000    557.434    -20.434    556.952    557.321    556.952    557.064    556.952
 19.870    538.000    557.162    -19.162    556.673    557.049    556.673    556.786    556.673
 19.970    575.000    556.889     18.111    556.393    556.775    556.393    556.507    556.393
 20.070    545.569    556.615    -11.046    556.111    556.499    556.111    556.226    556.111
 20.170    572.000    556.339     15.661    555.827    556.223    555.827    555.943    555.827
 20.270    567.000    556.063     10.937    555.542    555.945    555.542    555.659    555.542
 20.370    561.000    555.785      5.215    555.255    555.667    555.255    555.374    555.255
 20.470    541.511    555.507    -13.996    554.967    555.388    554.967    555.087    554.967
 20.570    533.661    555.228    -21.567    554.678    555.107    554.678    554.798    554.678
 20.670    558.000    554.948      3.052    554.387    554.826    554.387    554.509    554.387
 20.770    504.000    554.667    -50.667    554.094    554.544    554.094    554.217    554.094
 20.870    510.175    554.386    -44.211    553.801    554.262    553.801    553.925    553.801
 20.970    520.522    554.104    -33.582    553.506    553.979    553.506    553.631    553.506
 21.070    563.000    553.822      9.178    553.209    553.695    553.209    553.336    553.209
 21.170    558.000    553.539      4.461    552.912    553.411    552.912    553.040    552.912
 21.270    559.000    553.257      5.743    552.613    553.127    552.613    552.743    552.613
 21.370    538.545    552.974    -14.429    552.313    552.843    552.313    552.444    552.313
 21.470    519.088    552.691    -33.603    552.012    552.559    552.012    552.144    552.012
 21.570    546.930    552.408     -5.478    551.710    552.275    551.710    551.844    551.710
 21.670    497.000    552.127    -55.127    551.406    551.991    551.406    551.542    551.406
 21.770    527.000    551.850    -24.850    551.102    551.713    551.102    551.239    551.102
 21.870    549.570    551.570     -2.000    550.796    551.432    550.796    550.935    550.796
 21.970    550.000    551.291     -1.291    550.490    551.151    550.490    550.630    550.490
 22.070    560.000    551.013      8.987    550.183    550.871    550.183    550.325    550.183
 22.170    576.435    550.737     25.698    549.874    550.593    549.874    550.018    549.874
 22.270    519.319    550.466    -31.146    549.565    550.320    549.565    549.711    549.565
 22.370    521.745    550.195    -28.450    549.255    550.048    549.255    549.402    549.255
 22.470    562.143    549.938     12.205    548.944    549.789    548.944    549.093    548.944
 22.570    594.690    549.763     44.927    548.632    549.612    548.632    548.784    548.632
 22.670    568.958    549.513     19.445    548.319    549.360    548.319    548.473    548.319
 22.770    513.000    549.273    -36.273    548.006    549.118    548.006    548.162    548.006
 22.870    552.000    549.090      2.910    547.692    548.932    547.692    547.850    547.692
 22.970    562.000    548.890     13.110    547.377    548.730    547.377    547.537    547.377
 23.070    586.763    548.668     38.094    547.061    548.505    547.061    547.225    547.061
 23.170    579.000    548.459     30.541    546.745    548.290    546.745    546.914    546.745
 23.270    542.000    548.264     -6.264    546.428    548.093    546.428    546.600    546.428
 23.370    516.106    548.093    -31.986    546.111    547.919    546.111    546.285    546.111
 23.470    553.000    547.949      5.051    545.793    547.773    545.793    545.970    545.793
 23.570    512.000    547.843    -35.843    545.474    547.663    545.474    545.655    545.474
 23.670    559.000    547.786     11.214    545.155    547.604    545.155    545.339    545.155
 23.770    539.000    547.799     -8.799    544.836    547.614    544.836    545.022    544.836
 23.870    530.045    547.910    -17.865    544.516    547.722    544.516    544.706    544.516
 23.970    585.000    548.173     36.827    544.195    547.982    544.195    544.389    544.195
 24.070    515.275    548.713    -33.438    543.874    548.518    543.874    544.072    543.874
 24.170    571.000    549.862     21.138    543.553    549.664    543.553    543.754    543.553
 24.270    507.781    552.469    -44.689    543.231    552.269    543.231    543.437    543.231
 24.370    574.000    558.255     15.745    542.909    558.056    542.909    543.119    542.909
 24.470    605.000    569.619     35.381    542.587    569.423    542.587    542.801    542.587
 24.570    558.903    587.979    -29.075    542.264    587.791    542.264    542.484    542.264
 24.670    600.884    610.562     -9.678    541.941    610.387    541.941    542.166    541.941
 24.770    624.155    627.803     -3.648    541.618    627.635    541.618    541.848    541.618
 24.870    636.000    628.203      7.797    541.295    628.030    541.295    541.530    541.295
 24.970    646.000    611.187     34.813    540.971    610.996    540.971    541.213    540.971
 25.070    546.087    587.986    -41.899    540.648    587.772    540.648    540.896    540.648
 25.170    606.000    568.631     37.369    540.324    568.396    540.324    540.579    540.324
 25.270    570.000    556.279     13.721    540.000    556.028    540.000    540.262    540.000
 25.370    564.000    549.667     14.333    539.676    549.403    539.676    539.945    539.676
 25.470    566.000    546.380     19.620    539.352    546.106    539.352    539.630    539.352
 25.570    513.283    544.646    -31.364    539.028    544.363    539.028    539.314    539.028
 25.670    572.077    543.570     28.506    538.704    543.277    538.704    538.999    538.704
 25.770    537.195    542.782     -5.587    538.380    542.478    538.380    538.685    538.380
 25.870    502.553    542.146    -39.593    538.055    541.831    538.055    538.372    538.055
 25.970    584.000    541.626     42.374    537.731    541.299    537.731    538.059    537.731
 26.070    550.000    541.182      8.818    537.407    540.843    537.407    537.748    537.407
 26.170    574.584    540.815     33.769    537.083    540.461    537.083    537.437    537.083
 26.270    558.000    540.503     17.497    536.760    540.135    536.760    537.128    536.760
 26.370    541.000    540.229      0.771    536.436    539.845    536.436    536.821    536.436
 26.470    563.018    540.002     23.016    536.112    539.600    536.112    536.514    536.112
 26.570    537.000    539.824     -2.824    535.789    539.403    535.789    536.210    535.789
 26.670    574.599    539.711     34.888    535.466    539.269    535.466    535.908    535.466
 26.770    540.000    539.681      0.319    535.143    539.217    535.143    535.608    535.143
 26.870    570.590    539.688     30.903    534.820    539.198    534.820    535.311    534.820
 26.970    560.000    539.771     20.229    534.498    539.253    534.498    535.016    534.498
 27.070    543.000    539.953      3.047    534.176    539.404    534.176    534.725    534.176
 27.170    549.005    540.269      8.736    533.854    539.684    533.854    534.438    533.854
 27.270    555.166    540.764     14.402    533.533    540.140    533.533    534.156    533.533
 27.370    579.910    541.510     38.400    533.211    540.842    533.211    533.878    533.211
 27.470    589.000    542.653     46.347    532.891    541.935    532.891    533.607    532.891
 27.570    580.000    544.462     35.538    532.570    543.687    532.570    533.343    532.570
 27.670    529.000    548.075    -19.075    532.250    547.235    532.250    533.088    532.250
 27.770    546.000    557.556    -11.556    531.931    556.637    531.931    532.843    531.931
 27.870    623.118    583.914     39.204    531.612    582.900    531.612    532.610    531.612
 27.970    614.661    645.847    -31.186    531.293    644.712    531.293    532.393    531.293
 28.070    812.000    754.584     57.416    530.975    753.299    530.975    532.194    530.975
 28.170    860.000    883.003    -23.003    530.657    881.548    530.657    532.018    530.657
 28.270    949.680    956.029     -6.349    530.340    954.405    530.340    531.871    530.340
 28.370    952.000    916.216     35.784    530.023    914.420    530.023    531.762    530.023
 28.470    808.000    805.664      2.336    529.707    803.648    529.707    531.703    529.707
 28.570    761.802    710.816     50.986    529.392    708.492    529.392    531.712    529.392
 28.670    681.000    683.679     -2.679    529.077    680.928    529.077    531.820    529.077
 28.770    728.000    725.055      2.945    528.763    721.716    528.763    532.084    528.763
 28.870    794.585    796.859     -2.274    528.449    792.679    528.449    532.607    528.449
 28.970    872.174    838.047     34.127    528.136    832.604    528.136    533.565    528.136
 29.070    845.000    807.410     37.590    527.824    800.011    527.824    535.226    527.824
 29.170    711.000    729.325    -18.325    527.512    718.923    527.512    537.929    527.512
 29.270    659.000    652.940      6.060    527.201    638.157    527.201    541.998    527.201
 29.370    586.000    604.596    -18.596    526.891    583.938    526.891    547.558    526.891
 29.470    595.099    583.770     11.329    526.582    556.157    526.582    554.198    526.582
 29.570    605.000    578.355     26.645    526.273    544.155    526.273    560.472    526.273
 29.670    622.000    576.895     45.105    525.965    539.027    525.965    563.830    525.965
 29.770    601.000    573.069     27.931    525.658    536.409    525.658    562.316    525.658
 29.870    598.000    566.070     31.930    525.351    534.753    525.351    556.666    525.351
 29.970    533.000    557.940    -24.940    525.046    533.591    525.046    549.393    525.046
 30.070    536.000    550.597    -14.597    524.741    532.777    524.741    542.559    524.741
 30.170    543.000    544.913     -1.913    524.437    532.277    524.437    537.071    524.437
 30.270    529.636    541.095    -11.460    524.134    532.178    524.134    533.049    524.134
 30.370    526.000    539.270    -13.270    523.832    532.847    523.832    530.251    523.832
 30.470    541.259    540.135      1.124    523.531    535.326    523.531    528.334    523.531
 30.570    508.699    545.446    -36.747    523.230    541.679    523.230    526.986    523.230
 30.670    541.000    557.486    -16.486    522.931    554.413    522.931    525.983    522.931
 30.770    600.000    576.592     23.408    522.632    574.002    522.632    525.187    522.632
 30.870    596.000    597.630     -1.630    522.335    595.398    522.335    524.517    522.335
 30.970    619.000    609.168      9.832    522.038    607.220    522.038    523.931    522.038
 31.070    563.714    602.279    -38.565    521.742    600.570    521.742    523.405    521.742
 31.170    582.000    582.038     -0.038    521.448    580.532    521.448    522.922    521.448
 31.270    578.000    560.167     17.833    521.154    558.830    521.154    522.474    521.154
 31.370    520.000    544.024    -24.024    520.861    542.824    520.861    522.052    520.861
 31.470    521.397    534.734    -13.337    520.570    533.648    520.570    521.651    520.570
 31.570    528.550    530.194     -1.644    520.279    529.202    520.279    521.268    520.279
 31.670    539.600    528.067     11.533    519.990    527.155    519.990    520.900    519.990
 31.770    535.014    526.952      8.062    519.701    526.108    519.701    520.543    519.701
 31.870    492.890    526.249    -33.360    519.414    525.465    519.414    520.197    519.414
 31.970    566.000    525.754     40.246    519.128    525.022    519.128    519.859    519.128
 32.070    500.000    525.395    -25.395    518.843    524.708    518.843    519.529    518.843
 32.170    488.408    525.148    -36.740    518.559    524.501    518.559    519.205    518.559
 32.270    532.000    525.004      6.996    518.276    524.392    518.276    518.887    518.276
 32.370    563.095    524.962     38.133    517.994    524.381    517.994    518.574    517.994
 32.470    563.150    525.028     38.122    517.714    524.475    517.714    518.266    517.714
 32.570    563.000    525.217     37.783    517.434    524.689    517.434    517.962    517.434
 32.670    535.404    525.552      9.851    517.156    525.047    517.156    517.661    517.156
 32.770    538.000    526.068     11.932    516.879    525.582    516.879    517.364    516.879
 32.870    569.606    526.815     42.791    516.604    526.348    516.604    517.070    516.604
 32.970    526.769    527.860     -1.092    516.329    527.409    516.329    516.779    516.329
 33.070    530.000    529.318      0.682    516.056    528.882    516.056    516.491    516.056
 33.170    577.198    531.387     45.811    515.784    530.964    515.784    516.205    515.784
 33.270    562.000    534.511     27.489    515.513    534.100    515.513    515.922    515.513
 33.370    542.938    539.899      3.039    515.243    539.498    515.243    515.641    515.243
 33.470    568.217    550.817     17.400    514.975    550.424    514.975    515.363    514.975
 33.570    602.283    574.665     27.618    514.708    574.276    514.708    515.087    514.708
 33.670    646.000    623.901     22.099    514.442    623.510    514.442    514.812    514.442
 33.770    718.527    711.325      7.201    514.178    710.927    514.178    514.540    514.178
 33.870    857.278    836.799     20.479    513.915    836.389    513.915    514.270    513.915
 33.970   1005.000    970.553     34.447    513.653    970.139    513.653    514.002    513.653
 34.070   1044.000   1049.927     -5.927    513.393   1049.527    513.393    513.735    513.393
 34.170   1017.000   1023.142     -6.142    513.134   1022.773    513.134    513.471    513.134
 34.270    861.629    910.007    -48.378    512.876    909.667    512.876    513.208    512.876
 34.370    723.840    774.557    -50.717    512.620    774.234    512.620    512.947    512.620
 34.470    676.000    664.965     11.035    512.365    664.648    512.365    512.688    512.365
 34.570    563.000    595.620    -32.620    512.111    595.305    512.111    512.431    512.111
 34.670    557.479    558.914     -1.434    511.859    558.599    511.859    512.175    511.859
 34.770    543.000    541.376      1.624    511.608    541.063    511.608    511.921    511.608
 34.870    514.000    532.861    -18.861    511.359    532.551    511.359    511.669    511.359
 34.970    531.772    528.104      3.668    511.111    527.796    511.111    511.418    511.111
 35.070    516.000    524.948     -8.948    510.864    524.643    510.864    511.169    510.864
 35.170    524.000    522.606      1.394    510.619    522.303    510.619    510.922    510.619
 35.270    518.000    520.768     -2.768    510.375    520.467    510.375    510.676    510.375
 35.370    502.000    519.280    -17.280    510.133    518.980    510.133    510.433    510.133
 35.470    529.000    518.049     10.951    509.892    517.751    509.892    510.190    509.892
 35.570    521.522    517.010      4.511    509.653    516.713    509.653    509.950    509.653
 35.670    541.000    516.121     24.879    509.415    515.825    509.415    509.711    509.415
 35.770    490.000    515.347    -25.347    509.179    515.052    509.179    509.474    509.179
 35.870    506.000    514.667     -8.667    508.944    514.373    508.944    509.238    508.944
 35.970    509.000    514.061     -5.061    508.711    513.768    508.711    509.004    508.711
 36.070    476.000    513.519    -37.519    508.479    513.226    508.479    508.772    508.479
 36.170    505.000    513.029     -8.029    508.249    512.736    508.249    508.541    508.249
 36.270    519.000    512.584      6.416    508.020    512.292    508.020    508.312    508.020
 36.370    515.000    512.180      2.820    507.792    511.887    507.792    508.085    507.792
 36.470    483.421    511.813    -28.391    507.567    511.520    507.567    507.859    507.567
 36.570    467.000    511.481    -44.481    507.342    511.189    507.342    507.635    507.342
 36.670    537.000    511.187     25.813    507.120    510.894    507.120    507.412    507.120
 36.770    542.278    510.935     31.344    506.899    510.642    506.899    507.192    506.899
 36.870    495.000    510.741    -15.741    506.679    510.448    506.679    506.973    506.679
 36.970    497.000    510.651    -13.651    506.461    510.357    506.461    506.755    506.461
 37.070    542.156    510.765     31.391    506.244    510.471    506.244    506.539    506.244
 37.170    499.000    511.276    -12.276    506.030    510.980    506.030    506.325    506.030
 37.270    464.000    512.462    -48.462    505.816    512.166    505.816    506.113    505.816
 37.370    484.411    514.583    -30.172    505.605    514.287    505.605    505.902    505.605
 37.470    505.000    517.645    -12.645    505.394    517.348    505.394    505.693    505.394
 37.570    504.200    521.107    -16.907    505.186    520.809    505.186    505.486    505.186
 37.670    517.000    523.754     -6.754    504.979    523.457    504.979    505.280    504.979
 37.770    518.000    524.248     -6.248    504.774    523.951    504.774    505.076    504.774
 37.870    529.000    522.344      6.656    504.570    522.047    504.570    504.874    504.570
 37.970    500.000    519.113    -19.113    504.368    518.817    504.368    504.674    504.368
 38.070    494.180    515.711    -21.532    504.167    515.415    504.167    504.475    504.167
 38.170    481.000    512.723    -31.723    503.968    512.424    503.968    504.278    503.968
 38.270    536.000    510.392     25.608    503.771    510.088    503.771    504.082    503.771
 38.370    487.202    508.739    -21.537    503.575    508.431    503.575    503.888    503.575
 38.470    487.000    507.636    -20.636    503.381    507.324    503.381    503.696    503.381
 38.570    477.000    506.913    -29.913    503.189    506.598    503.189    503.506    503.189
 38.670    537.000    506.422     30.578    502.998    506.104    502.998    503.318    502.998
 38.770    517.076    506.062     11.014    502.809    505.741    502.809    503.131    502.809
 38.870    485.000    505.770    -20.770    502.622    505.447    502.622    502.946    502.622
 38.970    473.000    505.516    -32.516    502.436    505.190    502.436    502.763    502.436
 39.070    487.000    505.285    -18.285    502.252    504.957    502.252    502.581    502.252
 39.170    529.222    505.071     24.151    502.070    504.740    502.070    502.401    502.070
 39.270    513.000    504.870      8.130    501.889    504.536    501.889    502.223    501.889
 39.370    538.000    504.681     33.319    501.710    504.343    501.710    502.047    501.710
 39.470    514.295    504.501      9.794    501.532    504.161    501.532    501.873    501.532
 39.570    496.000    504.330     -8.330    501.357    503.987    501.357    501.700    501.357
 39.670    475.408    504.167    -28.760    501.183    503.821    501.183    501.529    501.183
 39.770    499.000    504.013     -5.013    501.010    503.663    501.010    501.360    501.010
 39.870    470.587    503.866    -33.280    500.839    503.513    500.839    501.193    500.839
 39.970    525.101    503.728     21.373    500.670    503.371    500.670    501.027    500.670
 40.070    490.000    503.597    -13.597    500.503    503.237    500.503    500.863    500.503
 40.170    518.882    503.475     15.407    500.337    503.111    500.337    500.701    500.337
 40.270    490.000    503.362    -13.362    500.173    502.995    500.173    500.541    500.173
 40.370    475.000    503.259    -28.259    500.011    502.887    500.011    500.383    500.011
 40.470    464.400    503.166    -38.766    499.850    502.790    499.850    500.227    499.850
 40.570    513.000    503.085      9.915    499.691    502.705    499.691    500.072    499.691
 40.670    498.000    503.018     -5.018    499.534    502.633    499.534    499.919    499.534
 40.770    495.000    502.965     -7.965    499.379    502.577    499.379    499.768    499.379
 40.870    498.000    502.931     -4.931    499.225    502.537    499.225    499.619    499.225
 40.970    491.000    502.917    -11.917    499.073    502.519    499.073    499.472    499.073
 41.070    519.262    502.929     16.333    498.922    502.526    498.922    499.326    498.922
 41.170    513.000    502.972     10.028    498.774    502.563    498.774    499.183    498.774
 41.270    536.000    503.052     32.948    498.627    502.639    498.627    499.041    498.627
 41.370    486.000    503.181    -17.181    498.481    502.762    498.481    498.901    498.481
 41.470    531.493    503.372     28.122    498.338    502.947    498.338    498.763    498.338
 41.570    536.000    503.646     32.354    498.196    503.216    498.196    498.627    498.196
 41.670    507.000    504.043      2.957    498.056    503.607    498.056    498.493    498.056
 41.770    507.000    504.642      2.358    497.917    504.200    497.917    498.361    497.917
 41.870    530.997    505.638     25.359    497.780    505.190    497.780    498.231    497.780
 41.970    497.035    507.482    -10.447    497.645    507.028    497.645    498.102    497.645
 42.070    482.000    511.104    -29.104    497.512    510.645    497.512    497.976    497.512
 42.170    499.000    518.068    -19.068    497.380    517.605    497.380    497.851    497.380
 42.270    556.000    530.339     25.661    497.250    529.873    497.250    497.729    497.250
 42.370    588.824    549.308     39.517    497.122    548.844    497.122    497.608    497.122
 42.470    554.799    574.127    -19.328    496.996    573.668    496.996    497.490    496.996
 42.570    627.246    600.028     27.218    496.871    599.575    496.871    497.373    496.871
 42.670    662.006    618.137     43.869    496.748    617.687    496.748    497.259    496.748
 42.770    667.721    619.709     48.011    496.626    619.255    496.626    497.146    496.626
 42.870    574.000    603.767    -29.767    496.507    603.297    496.507    497.036    496.507
 42.970    540.000    578.253    -38.253    496.389    577.761    496.389    496.927    496.389
 43.070    595.515    552.580     42.935    496.272    552.064    496.272    496.821    496.272
 43.170    496.000    532.294    -36.294    496.158    531.755    496.158    496.717    496.158
 43.270    491.000    518.798    -27.798    496.045    518.240    496.045    496.615    496.045
 43.370    521.050    510.940     10.110    495.933    510.365    495.933    496.515    495.933
 43.470    516.000    506.745      9.255    495.824    506.156    495.824    496.417    495.824
 43.570    431.000    504.543    -73.543    495.716    503.941    495.716    496.322    495.716
 43.670    496.000    503.302     -7.302    495.610    502.686    495.610    496.228    495.610
 43.770    459.934    502.507    -42.573    495.506    501.877    495.506    496.137    495.506
 43.870    507.815    501.936      5.878    495.403    501.292    495.403    496.048    495.403
 43.970    508.000    501.498      6.502    495.302    500.839    495.302    495.962    495.302
 44.070    505.000    501.151      3.849    495.202    500.476    495.202    495.878    495.202
 44.170    468.450    500.870    -32.420    495.105    500.179    495.105    495.796    495.105
 44.270    505.506    500.642      4.864    495.009    499.935    495.009    495.717    495.009
 44.370    540.124    500.457     39.667    494.915    499.731    494.915    495.641    494.915
 44.470    525.000    500.307     24.693    494.822    499.562    494.822    495.567    494.822
 44.570    489.000    500.186    -11.186    494.731    499.422    494.731    495.495    494.731
 44.670    509.239    500.090      9.148    494.642    499.305    494.642    495.427    494.642
 44.770    481.262    500.017    -18.755    494.554    499.210    494.554    495.361    494.554
 44.870    579.000    499.964     79.036    494.468    499.134    494.468    495.298    494.468
 44.970    463.294    499.930    -36.636    494.384    499.076    494.384    495.238    494.384
 45.070    534.002    499.913     34.089    494.301    499.033    494.301    495.182    494.301
 45.170    480.228    499.914    -19.686    494.220    499.006    494.220    495.128    494.220
 45.270    468.410    499.931    -31.521    494.141    498.994    494.141    495.078    494.141
 45.370    475.292    499.964    -24.673    494.063    498.997    494.063    495.031    494.063
 45.470    536.512    500.015     36.497    493.987    499.014    493.987    494.988    493.987
 45.570    488.000    500.083    -12.083    493.913    499.047    493.913    494.949    493.913
 45.670    529.000    500.169     28.831    493.841    499.096    493.841    494.914    493.841
 45.770    505.000    500.276      4.724    493.769    499.162    493.769    494.883    493.769
 45.870    474.917    500.403    -25.486    493.700    499.246    493.700    494.857    493.700
 45.970    500.000    500.554     -0.554    493.632    499.350    493.632    494.836    493.632
 46.070    484.000    500.731    -16.731    493.566    499.477    493.566    494.820    493.566
 46.170    557.000    500.938     56.062    493.502    499.629    493.502    494.810    493.502
 46.270    538.000    501.178     36.822    493.439    499.810    493.439    494.805    493.439
 46.370    499.000    501.456     -2.456    493.378    500.025    493.378    494.808    493.378
 46.470    482.000    501.781    -19.781    493.318    500.281    493.318    494.818    493.318
 46.570    498.000    502.161     -4.161    493.260    500.585    493.260    494.835    493.260
 46.670    494.000    502.611     -8.611    493.204    500.952    493.204    494.862    493.204
 46.770    534.000    503.154     30.846    493.149    501.403    493.149    494.898    493.149
 46.870    495.799    503.836     -8.037    493.096    501.984    493.096    494.946    493.096
 46.970    525.000    504.760     20.240    493.044    502.797    493.044    495.005    493.044
 47.070    490.000    506.147    -16.147    492.994    504.059    492.994    495.079    492.994
 47.170    453.000    508.421    -55.421    492.946    506.194    492.946    495.168    492.946
 47.270    529.000    512.314     16.686    492.899    509.929    492.899    495.275    492.899
 47.370    557.000    518.776     38.224    492.853    516.213    492.853    495.404    492.853
 47.470    545.000    528.683     16.317    492.810    525.917    492.810    495.557    492.810
 47.570    529.698    542.232    -12.534    492.768    539.232    492.768    495.738    492.768
 47.670    560.000    558.201      1.799    492.727    554.934    492.727    495.954    492.727
 47.770    568.000    573.427     -5.427    492.688    569.855    492.688    496.210    492.688
 47.870    601.000    583.189     17.811    492.651    579.269    492.651    496.515    492.651
 47.970    569.906    583.666    -13.760    492.615    579.348    492.615    496.879    492.615
 48.070    578.829    575.156      3.673    492.580    570.372    492.580    497.319    492.580
 48.170    536.000    561.789    -25.789    492.548    556.447    492.548    497.856    492.548
 48.270    594.000    548.246     45.754    492.516    542.216    492.516    498.522    492.516
 48.370    576.000    537.573     38.427    492.487    530.669    492.487    499.375    492.487
 48.470    531.000    530.954      0.046    492.458    522.891    492.458    500.512    492.458
 48.570    559.000    528.308     30.692    492.432    518.633    492.432    502.101    492.432
 48.670    543.877    529.063     14.815    492.406    517.048    492.406    504.417    492.406
 48.770    512.000    532.775    -20.775    492.383    517.272    492.383    507.881    492.383
 48.870    551.000    539.429     11.571    492.360    518.716    492.360    513.070    492.360
 48.970    549.000    549.433     -0.433    492.340    521.111    492.340    520.657    492.340
 49.070    524.680    563.435    -38.755    492.321    524.485    492.321    531.265    492.321
 49.170    570.288    582.153    -11.865    492.303    529.240    492.303    545.210    492.303
 49.270    618.000    606.458     11.542    492.287    536.591    492.287    562.144    492.287
 49.370    649.000    638.168     10.832    492.272    549.814    492.272    580.611    492.272
 49.470    714.000    682.146     31.854    492.258    576.775    492.258    597.605    492.258
 49.570    712.003    750.116    -38.113    492.247    633.569    492.247    608.749    492.247
 49.670    897.000    864.863     32.137    492.236    746.878    492.236    610.145    492.236
 49.770   1112.000   1058.650     53.350    492.227    949.550    492.227    601.210    492.227
 49.870   1312.000   1357.283    -45.283    492.220   1264.124    492.220    585.223    492.220
 49.970   1783.620   1750.995     32.625    492.213   1676.300    492.213    566.742    492.213
 50.070   2139.000   2169.939    -30.939    492.209   2112.813    492.209    549.211    492.209
 50.170   2470.000   2487.589    -17.589    492.205   2445.332    492.205    534.441    492.205
 50.270   2641.005   2571.720     69.285    492.204   2541.023    492.204    523.007    492.204
 50.370   2362.773   2376.781    -14.008    492.203   2354.462    492.203    514.721    492.203
 50.470   2054.000   1987.414     66.586    492.204   1970.839    492.204    509.005    492.204
 50.570   1551.000   1545.998      5.002    492.206   1533.226    492.206    505.177    492.206
 50.670   1112.000   1165.679    -53.679    492.210   1155.408    492.210    502.629    492.210
 50.770    872.790    897.820    -25.030    492.215    889.236    492.215    500.898    492.215
 50.870    724.561    739.694    -15.132    492.222    732.304    492.222    499.675    492.222
 50.970    631.051    660.314    -29.263    492.230    653.820    492.230    498.769    492.230
 51.070    658.753    624.775     33.977    492.239    618.984    492.239    498.069    492.239
 51.170    585.000    607.069    -22.069    492.249    601.843    492.249    497.510    492.249
 51.270    623.000    593.179     29.821    492.261    588.416    492.261    497.055    492.261
 51.370    547.168    578.851    -31.683    492.274    574.471    492.274    496.680    492.274
 51.470    580.881    564.695     16.186    492.289    560.635    492.289    496.368    492.289
 51.570    596.390    552.265     44.125    492.305    548.476    492.305    496.109    492.305
 51.670    528.000    542.555    -14.555    492.322    538.995    492.322    495.892    492.322
 51.770    543.000    535.763      7.237    492.340    532.399    492.340    495.711    492.340
 51.870    537.433    531.517      5.916    492.360    528.322    492.360    495.561    492.360
 51.970    563.803    529.214     34.589    492.381    526.163    492.381    495.436    492.381
 52.070    500.591    528.297    -27.706    492.403    525.369    492.403    495.334    492.403
 52.170    530.000    528.405      1.595    492.427    525.583    492.427    495.252    492.427
 52.270    487.647    529.410    -41.763    492.452    526.677    492.452    495.187    492.452
 52.370    549.789    531.432     18.357    492.478    528.774    492.478    495.137    492.478
 52.470    536.293    534.947      1.346    492.505    532.353    492.505    495.101    492.505
 52.570    560.000    541.063     18.937    492.534    538.521    492.534    495.077    492.534
 52.670    538.700    551.978    -13.278    492.564    549.478    492.564    495.064    492.564
 52.770    538.235    571.503    -33.268    492.595    569.035    492.595    495.061    492.595
 52.870    635.825    605.244     30.581    492.627    602.800    492.627    495.068    492.627
 52.970    709.000    659.806     49.194    492.661    657.378    492.661    495.084    492.661
 53.070    754.000    740.476     13.524    492.695    738.057    492.695    495.108    492.695
 53.170    936.000    847.503     88.497    492.731    845.088    492.731    495.140    492.731
 53.270   1020.000    972.065     47.935    492.768    969.652    492.768    495.180    492.768
 53.370   1102.000   1093.555      8.445    492.807   1091.142    492.807    495.227    492.807
 53.470   1166.000   1180.913    -14.913    492.846   1178.497    492.846    495.281    492.846
 53.570   1227.000   1203.601     23.399    492.886   1201.178    492.886    495.343    492.886
 53.670   1131.000   1152.104    -21.104    492.928   1149.661    492.928    495.411    492.928
 53.770   1041.000   1046.696     -5.696    492.971   1044.222    492.971    495.486    492.971
 53.870    939.108    920.814     18.295    493.015    918.296    493.015    495.568    493.015
 53.970    833.120    802.075     31.045    493.060    799.506    493.060    495.658    493.060
 54.070    681.000    706.047    -25.047    493.106    703.419    493.106    495.754    493.106
 54.170    598.000    637.305    -39.305    493.154    634.613    493.154    495.858    493.154
 54.270    615.828    592.953     22.876    493.202    590.193    493.202    495.970    493.202
 54.370    584.000    566.710     17.290    493.252    563.878    493.252    496.089    493.252
 54.470    564.000    552.154     11.846    493.302    549.243    493.302    496.217    493.302
 54.570    561.000    544.378     16.622    493.354    541.381    493.354    496.353    493.354
 54.670    563.000    540.293     22.707    493.407    537.203    493.407    496.499    493.407
 54.770    521.338    538.225    -16.887    493.460    535.032    493.460    496.654    493.460
 54.870    582.000    537.361     44.639    493.515    534.057    493.515    496.820    493.515
 54.970    555.000    537.344     17.656    493.571    533.920    493.571    496.997    493.571
 55.070    513.811    538.033    -24.222    493.628    534.477    493.628    497.185    493.628
 55.170    530.000    539.387     -9.387    493.686    535.686    493.686    497.387    493.686
 55.270    544.000    541.424      2.576    493.744    537.566    493.744    497.603    493.744
 55.370    563.000    544.211     18.789    493.804    540.181    493.804    497.834    493.804
 55.470    539.000    547.880     -8.880    493.865    543.663    493.865    498.083    493.865
 55.570    522.173    552.682    -30.509    493.927    548.260    493.927    498.349    493.927
 55.670    559.000    559.130     -0.130    493.990    554.483    493.990    498.637    493.990
 55.770    588.305    568.343     19.962    494.054    563.449    494.054    498.947    494.054
 55.870    570.000    582.739    -12.739    494.118    577.573    494.118    499.282    494.118
 55.970    602.000    607.219     -5.219    494.184    601.751    494.184    499.646    494.184
 56.070    641.000    650.728     -9.728    494.251    644.923    494.251    500.042    494.251
 56.170    698.789    727.470    -28.680    494.318    721.289    494.318    500.474    494.318
 56.270    834.000    856.282    -22.282    494.386    849.681    494.386    500.947    494.386
 56.370    984.000   1056.295    -72.295    494.456   1049.226    494.456    501.466    494.456
 56.470   1240.000   1338.106    -98.106    494.526   1330.520    494.526    502.040    494.526
 56.570   1699.000   1692.236      6.764    494.597   1684.087    494.597    502.676    494.597
 56.670   2015.000   2079.244    -64.244    494.669   2070.486    494.669    503.383    494.669
 56.770   2327.000   2427.014   -100.014    494.742   2417.597    494.742    504.175    494.742
 56.870   2599.901   2643.865    -43.964    494.815   2633.719    494.815    505.065    494.815
 56.970   2569.000   2657.834    -88.834    494.890   2646.847    494.890    506.072    494.890
 57.070   2478.654   2464.172     14.482    494.965   2452.172    494.965    507.218    494.965
 57.170   2188.000   2129.340     58.660    495.041   2116.112    495.041    508.535    495.041
 57.270   1748.209   1745.688      2.521    495.118   1730.984    495.118    510.061    495.118
 57.370   1383.503   1388.830     -5.327    495.196   1372.359    495.196    511.857    495.196
 57.470   1134.304   1102.086     32.219    495.275   1083.483    495.275    514.013    495.275
 57.570    864.000    898.112    -34.112    495.354    876.875    495.354    516.679    495.354
 57.670    841.000    768.396     72.604    495.434    743.780    495.434    520.102    495.434
 57.770    650.608    695.058    -44.450    495.515    665.909    495.515    524.693    495.515
 57.870    661.799    660.448      1.351    495.596    624.958    495.596    531.099    495.596
 57.970    632.000    652.340    -20.340    495.679    607.733    495.679    540.287    495.679
 58.070    664.000    665.129     -1.129    495.762    607.310    495.762    553.572    495.762
 58.170    720.340    698.650     21.690    495.846    621.906    495.846    572.570    495.846
 58.270    779.000    755.766     23.234    495.930    652.679    495.930    598.986    495.930
 58.370    882.000    839.630     42.370    496.015    701.368    496.015    634.236    496.015
 58.470    965.000    950.980     14.020    496.101    768.128    496.101    678.902    496.101
 58.570   1118.000   1085.825     32.175    496.188    849.881    496.188    732.076    496.188
 58.670   1210.000   1233.942    -23.942    496.275    939.551    496.275    790.612    496.275
 58.770   1417.000   1379.133     37.867    496.363   1027.125    496.363    848.329    496.363
 58.870   1484.000   1502.324    -18.324    496.452   1103.026    496.452    895.724    496.452
 58.970   1586.000   1585.435      0.565    496.541   1160.152    496.541    921.821    496.541
 59.070   1591.000   1614.314    -23.314    496.631   1191.802    496.631    919.163    496.631
 59.170   1635.958   1583.775     52.183    496.721   1191.900    496.721    888.636    496.721
 59.270   1544.000   1503.140     40.860    496.812   1161.210    496.812    838.788    496.812
 59.370   1344.000   1394.657    -50.657    496.904   1111.033    496.904    780.561    496.904
 59.470   1312.000   1283.777     28.223    496.996   1057.914    496.996    722.868    496.996
 59.570   1203.273   1191.682     11.591    497.089   1017.455    497.089    671.288    497.089
 59.670   1122.000   1134.810    -12.810    497.182   1003.410    497.182    628.510    497.182
 59.770   1152.000   1125.603     26.397    497.276   1027.631    497.276    595.124    497.276
 59.870   1230.000   1169.292     60.708    497.370   1096.130    497.370    570.356    497.370
 59.970   1243.748   1259.125    -15.377    497.465   1203.659    497.465    552.703    497.465
 60.070   1425.000   1374.076     50.924    497.561   1330.912    497.561    540.458    497.561
 60.170   1526.000   1480.499     45.501    497.657   1445.824    497.657    532.052    497.657
 60.270   1606.597   1539.587     67.010    497.753   1510.846    497.753    526.232    497.753
 60.370   1521.627   1522.811     -1.185    497.850   1498.349    497.850    522.098    497.850
 60.470   1486.000   1427.757     58.243    497.948   1406.497    497.948    519.052    497.948
 60.570   1214.986   1278.219    -63.233    498.046   1259.443    498.046    516.723    498.046
 60.670   1106.000   1108.605     -2.605    498.144   1091.804    498.144    514.890    498.144
 60.770    912.000    948.856    -36.856    498.243    933.646    498.243    513.426    498.243
 60.870    775.139    817.720    -42.582    498.342    803.790    498.342    512.260    498.342
 60.970    742.000    722.247     19.753    498.442    709.328    498.442    511.354    498.442
 61.070    694.020    660.845     33.175    498.542    648.692    498.542    510.687    498.542
 61.170    629.000    627.896      1.104    498.642    616.277    498.642    510.250    498.642
 61.270    583.487    618.035    -34.548    498.743    606.726    498.743    510.033    498.743
 61.370    634.000    628.863      5.137    498.844    617.655    498.844    510.023    498.844
 61.470    676.000    661.716     14.284    498.946    650.427    498.946    510.189    498.946
 61.570    697.470    720.593    -23.123    499.048    709.090    499.048    510.483    499.048
 61.670    797.000    809.536    -12.536    499.150    797.766    499.150    510.823    499.150
 61.770    927.000    928.978     -1.978    499.253    917.009    499.253    511.094    499.253
 61.870   1115.000   1072.086     42.914    499.356   1060.119    499.356    511.166    499.356
 61.970   1218.000   1222.395     -4.395    499.459   1210.739    499.459    510.940    499.459
 62.070   1377.684   1354.064     23.620    499.563   1343.049    499.563    510.403    499.563
 62.170   1449.000   1436.644     12.356    499.667   1426.527    499.667    509.632    499.667
 62.270   1378.000   1446.405    -68.405    499.771   1437.316    499.771    508.746    499.771
 62.370   1319.000   1379.768    -60.768    499.875   1371.718    499.875    507.855    499.875
 62.470   1199.000   1255.910    -56.910    499.980   1248.822    499.980    507.034    499.980
 62.570   1031.000   1105.069    -74.069    500.085   1098.822    500.085    506.324    500.085
 62.670   1007.469    955.227     52.242    500.190    949.682    500.190    505.741    500.190
 62.770    781.105    825.518    -44.413    500.296    820.541    500.296    505.283    500.296
 62.870    733.000    724.976      8.024    500.401    720.451    500.401    504.936    500.401
 62.970    619.018    654.198    -35.180    500.507    650.030    500.507    504.682    500.507
 63.070    562.228    608.498    -46.269    500.613    604.613    500.613    504.500    500.613
 63.170    549.726    581.209    -31.483    500.719    577.555    500.719    504.373    500.719
 63.270    579.000    566.110     12.890    500.826    562.647    500.826    504.285    500.826
 63.370    572.358    558.623     13.736    500.932    555.323    500.932    504.227    500.932
 63.470    585.988    556.070     29.919    501.039    552.913    501.039    504.189    501.039
 63.570    577.000    557.455     19.545    501.146    554.423    501.146    504.169    501.146
 63.670    562.733    563.148     -0.415    501.253    560.227    501.253    504.161    501.253
 63.770    566.000    574.605     -8.605    501.360    571.783    501.360    504.164    501.360
 63.870    631.111    594.064     37.047    501.467    591.327    501.467    504.176    501.467
 63.970    646.181    624.052     22.129    501.574    621.390    501.574    504.196    501.574
 64.070    649.000    666.612    -17.612    501.681    664.014    501.681    504.224    501.681
 64.170    763.096    722.260     40.836    501.789    719.716    501.789    504.257    501.789
 64.270    775.000    788.881    -13.881    501.896    786.385    501.896    504.297    501.896
 64.370    877.000    860.869     16.131    502.004    858.418    502.004    504.342    502.004
 64.470    923.000    928.954     -5.954    502.111    926.549    502.111    504.391    502.111
 64.570    980.102    981.561     -1.459    502.219    979.208    502.219    504.445    502.219
 64.670   1012.893   1008.436      4.457    502.327   1006.144    502.327    504.503    502.327
 64.770    964.692   1004.944    -40.252    502.434   1002.718    502.434    504.565    502.434
 64.870   1014.000    973.575     40.425    502.542    971.416    502.542    504.631    502.542
 64.970    959.940    922.196     37.744    502.650    920.103    502.650    504.700    502.650
 65.070    865.000    861.085      3.915    502.757    859.051    502.757    504.772    502.757
 65.170    795.000    799.727     -4.727    502.865    797.745    502.865    504.847    502.865
 65.270    725.977    744.478    -18.501    502.972    742.541    502.972    504.923    502.972
 65.370    701.000    698.087      2.913    503.079    696.186    503.079    505.002    503.079
 65.470    661.000    660.681      0.319    503.187    658.807    503.187    505.085    503.187
 65.570    650.000    631.207     18.793    503.294    629.354    503.294    505.170    503.294
 65.670    589.000    608.375    -19.375    503.401    606.538    503.401    505.258    503.401
 65.770    581.000    590.976     -9.976    503.508    589.152    503.508    505.347    503.508
 65.870    570.499    577.967     -7.468    503.615    576.154    503.615    505.439    503.615
 65.970    577.000    568.509      8.491    503.722    566.705    503.722    505.532    503.722
 66.070    563.036    561.955      1.081    503.829    560.159    503.829    505.628    503.829
 66.170    532.000    557.798    -25.798    503.935    556.008    503.935    505.726    503.935
 66.270    535.000    555.628    -20.628    504.042    553.845    504.042    505.825    504.042
 66.370    486.000    555.122    -69.122    504.148    553.343    504.148    505.927    504.148
 66.470    597.922    556.057     41.865    504.254    554.282    504.254    506.030    504.254
 66.570    527.663    558.375    -30.712    504.360    556.600    504.360    506.135    504.360
 66.670    579.151    562.266     16.885    504.465    560.490    504.465    506.242    504.465
 66.770    531.966    568.345    -36.379    504.571    566.566    504.571    506.351    504.571
 66.870    565.000    577.934    -12.934    504.676    576.148    504.676    506.461    504.676
 66.970    551.000    593.496    -42.496    504.781    591.701    504.781    506.574    504.781
 67.070    642.000    619.173     22.827    504.886    617.365    504.886    506.688    504.886
 67.170    629.802    661.258    -31.456    504.990    659.432    504.990    506.805    504.990
 67.270    702.794    728.262    -25.468    505.094    726.415    505.094    506.923    505.094
 67.370    879.605    830.120     49.486    505.198    828.250    505.198    507.043    505.198
 67.470    976.000    976.152     -0.152    505.302    974.258    505.302    507.166    505.302
 67.570   1205.000   1171.756     33.244    505.405   1169.845    505.405    507.291    505.405
 67.670   1415.000   1414.421      0.579    505.508   1412.500    505.508    507.418    505.508
 67.770   1690.000   1690.176     -0.176    505.611   1688.260    505.611    507.548    505.611
 67.870   1983.000   1971.707     11.293    505.713   1969.812    505.713    507.681    505.713
 67.970   2200.000   2219.290    -19.290    505.815   2217.431    505.815    507.816    505.815
 68.070   2392.000   2386.655      5.345    505.917   2384.838    505.917    507.954    505.917
 68.170   2378.269   2434.900    -56.631    506.018   2433.114    506.018    508.096    506.018
 68.270   2436.000   2351.285     84.715    506.119   2349.500    506.119    508.240    506.119
 68.370   2146.000   2157.130    -11.130    506.220   2155.307    506.220    508.389    506.220
 68.470   1903.000   1895.481      7.519    506.320   1893.584    506.320    508.542    506.320
 68.570   1630.000   1612.058     17.942    506.420   1610.060    506.420    508.698    506.420
 68.670   1408.000   1343.529     64.471    506.519   1341.415    506.519    508.860    506.519
 68.770   1116.000   1113.437      2.563    506.618   1111.200    506.618    509.026    506.618
 68.870    944.000    932.259     11.741    506.717    929.899    506.717    509.199    506.717
 68.970    817.000    799.869     17.131    506.815    797.391    506.815    509.377    506.815
 69.070    730.258    709.342     20.916    506.912    706.747    506.912    509.562    506.912
 69.170    673.000    650.853     22.147    507.009    648.143    507.009    509.754    507.009
 69.270    655.000    614.678     40.322    507.106    611.852    507.106    509.955    507.106
 69.370    621.000    592.866     28.134    507.202    589.918    507.202    510.164    507.202
 69.470    631.000    579.734     51.266    507.298    576.658    507.298    510.384    507.298
 69.570    568.170    571.640     -3.470    507.393    568.425    507.393    510.615    507.393
 69.670    572.000    566.447      5.553    507.488    563.082    507.488    510.859    507.488
 69.770    572.000    562.990      9.010    507.582    559.460    507.582    511.117    507.582
 69.870    604.000    560.668     43.332    507.675    556.956    507.675    511.390    507.675
 69.970    577.000    559.182     17.818    507.768    555.270    507.768    511.682    507.768
 70.070    548.000    558.390    -10.390    507.861    554.258    507.861    511.994    507.861
 70.170    562.000    558.236      3.764    507.953    553.859    507.953    512.330    507.953
 70.270    534.000    558.722    -24.722    508.044    554.073    508.044    512.692    508.044
 70.370    535.000    559.921    -24.921    508.135    554.969    508.135    513.085    508.135
 70.470    520.408    562.007    -41.599    508.225    556.715    508.225    513.514    508.225
 70.570    587.000    565.340     21.660    508.314    559.667    508.314    513.983    508.314
 70.670    590.000    570.601     19.399    508.403    564.497    508.403    514.502    508.403
 70.770    569.000    578.993     -9.993    508.491    572.399    508.491    515.077    508.491
 70.870    597.263    592.508      4.755    508.579    585.351    508.579    515.723    508.579
 70.970    605.000    614.191     -9.191    508.666    606.382    508.666    516.455    508.666
 71.070    635.000    648.295    -13.295    508.752    639.716    508.752    517.301    508.752
 71.170    657.000    700.130    -43.130    508.838    690.621    508.838    518.302    508.838
 71.270    743.000    775.440    -32.440    508.923    764.772    508.923    519.525    508.923
 71.370    892.736    879.167     13.569    509.007    867.005    509.007    521.077    509.007
 71.470    953.000   1013.704    -60.704    509.091    999.539    509.091    523.132    509.091
 71.570   1186.000   1176.959      9.041    509.174   1160.023    509.174    525.953    509.174
 71.670   1371.000   1360.752     10.248    509.256   1339.894    509.256    529.926    509.256
 71.770   1592.050   1550.012     42.038    509.337   1523.561    509.337    535.575    509.337
 71.870   1698.000   1723.198    -25.198    509.418   1688.826    509.418    543.565    509.418
 71.970   1839.000   1854.866    -15.866    509.498   1809.485    509.498    554.662    509.498
 72.070   2003.000   1922.015     80.985    509.577   1861.766    509.577    569.636    509.577
 72.170   1843.644   1913.580    -69.936    509.655   1833.975    509.655    589.110    509.655
 72.270   1806.486   1836.303    -29.817    509.733   1732.565    509.733    613.367    509.733
 72.370   1731.000   1710.909     20.091    509.810   1578.528    509.810    642.127    509.810
 72.470   1584.000   1562.541     21.459    509.886   1398.052    509.886    674.342    509.886
 72.570   1369.000   1413.000    -44.000    509.961   1214.924    509.961    708.025    509.961
 72.670   1252.210   1277.006    -24.796    510.036   1046.897    510.036    740.144    510.036
 72.770   1187.000   1161.301     25.699    510.109    904.687    510.109    766.728    510.109
 72.870   1005.000   1065.738    -60.738    510.182    792.445    510.182    783.480    510.182
 72.970    959.000    986.047    -27.047    510.254    709.199    510.254    787.104    510.254
 73.070    967.116    917.256     49.859    510.325    650.768    510.325    776.815    510.325
 73.170    764.000    856.002    -92.002    510.396    611.627    510.396    754.770    510.396
 73.270    787.950    800.856    -12.907    510.465    586.336    510.465    724.984    510.465
 73.370    695.000    751.565    -56.565    510.534    570.356    510.534    691.741    510.534
 73.470    689.326    708.332    -19.006    510.601    560.344    510.601    658.589    510.601
 73.570    588.000    671.441    -83.441    510.668    554.075    510.668    628.035    510.668
 73.670    651.360    641.044     10.315    510.734    550.204    510.734    601.576    510.734
 73.770    637.249    617.039     20.210    510.799    547.991    510.799    579.852    510.799
 73.870    598.000    599.017     -1.017    510.863    547.056    510.863    562.831    510.863
 73.970    591.000    586.299      4.701    510.926    547.202    510.926    550.033    510.926
 74.070    561.000    578.018    -17.018    510.988    548.286    510.988    540.736    510.988
 74.170    591.000    573.214     17.786    511.049    550.129    511.049    534.155    511.049
 74.270    566.409    570.905     -4.496    511.110    552.476    511.110    529.566    511.110
 74.370    612.000    570.134     41.866    511.169    554.966    511.169    526.370    511.169
 74.470    600.000    569.994     30.006    511.227    557.146    511.227    524.115    511.227
 74.570    624.000    569.668     54.332    511.285    558.518    511.285    522.478    511.285
 74.670    527.945    568.527    -40.582    511.341    558.667    511.341    521.246    511.341
 74.770    570.158    566.272      3.886    511.397    557.430    511.397    520.282    511.397
 74.870    610.486    562.993     47.493    511.451    554.983    511.451    519.501    511.451
 74.970    582.000    559.077     22.923    511.504    551.766    511.504    518.851    511.504
 75.070    604.000    555.033     48.967    511.557    548.320    511.557    518.299    511.557
 75.170    565.000    551.383     13.617    511.608    545.190    511.608    517.824    511.608
 75.270    575.000    548.621     26.379    511.659    542.884    511.659    517.412    511.659
 75.370    585.674    547.223     38.451    511.708    541.889    511.708    517.051    511.708
 75.470    536.838    547.667    -10.830    511.756    542.692    511.756    516.735    511.756
 75.570    532.000    550.455    -18.455    511.803    545.800    511.803    516.457    511.803
 75.670    556.320    556.101      0.220    511.849    551.732    511.849    516.210    511.849
 75.770    553.000    565.078    -12.078    511.894    560.966    511.894    515.992    511.894
 75.870    586.000    577.714      8.286    511.938    573.833    511.938    515.798    511.938
 75.970    623.000    594.037     28.963    511.981    590.363    511.981    515.625    511.981
 76.070    641.735    613.613     28.122    512.023    610.127    512.023    515.471    512.023
 76.170    656.682    635.410     21.272    512.064    632.095    512.064    515.333    512.064
 76.270    706.000    657.736     48.264    512.103    654.577    512.103    515.209    512.103
 76.370    710.000    678.275     31.725    512.142    675.259    512.142    515.098    512.142
 76.470    741.039    694.302     46.737    512.179    691.421    512.179    514.998    512.179
 76.570    669.000    703.200    -34.200    512.215    700.446    512.215    514.907    512.215
 76.670    739.000    703.269     35.731    512.250    700.636    512.250    514.826    512.250
 76.770    634.000    694.434    -60.434    512.284    691.915    512.284    514.752    512.284
 76.870    638.000    678.282    -40.282    512.317    675.872    512.317    514.685    512.317
 76.970    694.000    657.384     36.616    512.349    655.074    512.349    514.624    512.349
 77.070    588.109    634.463    -46.354    512.379    632.246    512.379    514.569    512.379
 77.170    621.278    611.852      9.425    512.409    609.723    512.409    514.519    512.409
 77.270    595.000    591.259      3.741    512.437    589.210    512.437    514.473    512.437
 77.370    527.000    573.709    -46.709    512.464    571.733    512.464    514.430    512.464
 77.470    519.575    559.603    -40.028    512.489    557.694    512.489    514.392    512.489
 77.570    536.000    548.847    -12.847    512.514    547.001    512.514    514.356    512.514
 77.670    521.000    541.014    -20.014    512.537    539.225    512.537    514.323    512.537
 77.770    535.000    535.520     -0.520    512.559    533.784    512.559    514.292    512.559
 77.870    539.285    531.827      7.458    512.580    530.142    512.580    514.264    512.580
 77.970    503.580    529.389    -25.810    512.600    527.750    512.600    514.238    512.600
 78.070    521.219    527.791     -6.572    512.618    526.195    512.618    514.213    512.618
 78.170    516.262    526.736    -10.474    512.635    525.181    512.635    514.190    512.635
 78.270    549.205    526.026     23.179    512.651    524.509    512.651    514.168    512.651
 78.370    521.464    525.539     -4.075    512.666    524.058    512.666    514.147    512.666
 78.470    482.520    525.203    -42.683    512.680    523.755    512.680    514.127    512.680
 78.570    520.976    524.983     -4.007    512.692    523.565    512.692    514.109    512.692
 78.670    515.000    524.864     -9.864    512.703    523.475    512.703    514.091    512.703
 78.770    566.698    524.846     41.852    512.712    523.483    512.712    514.075    512.712
 78.870    511.000    524.944    -13.944    512.721    523.605    512.721    514.059    512.721
 78.970    560.674    525.178     35.496    512.728    523.860    512.728    514.045    512.728
 79.070    497.037    525.573    -28.537    512.734    524.273    512.734    514.033    512.734
 79.170    481.000    526.158    -45.158    512.738    524.872    512.738    514.022    512.738
 79.270    491.274    526.963    -35.689    512.741    525.687    512.741    514.015    512.741
 79.370    472.000    528.016    -56.016    512.743    526.745    512.743    514.012    512.743
 79.470    551.000    529.347     21.653    512.744    528.074    512.744    514.014    512.744
 79.570    561.000    530.989     30.011    512.743    529.706    512.743    514.022    512.743
 79.670    509.000    532.988    -23.988    512.741    531.687    512.741    514.038    512.741
 79.770    486.000    535.421    -49.421    512.738    534.091    512.738    514.063    512.738
 79.870    573.284    538.410     34.874    512.733    537.040    512.733    514.098    512.733
 79.970    529.000    542.145    -13.145    512.727    540.724    512.727    514.143    512.727
 80.070    529.000    546.908    -17.908    512.719    545.425    512.719    514.197    512.719
 80.170    553.000    553.084     -0.084    512.711    551.532    512.711    514.259    512.711
 80.270    554.000    561.145     -7.145    512.701    559.517    512.701    514.326    512.701
 80.370    594.000    571.569     22.431    512.689    569.866    512.689    514.393    512.689
 80.470    550.386    584.729    -34.343    512.676    582.957    512.676    514.453    512.676
 80.570    599.000    600.774     -1.774    512.662    598.945    512.662    514.498    512.662
 80.670    631.172    619.520     11.653    512.647    617.659    512.647    514.520    512.647
 80.770    617.000    640.392    -23.392    512.630    638.528    512.630    514.512    512.630
 80.870    703.000    662.416     40.584    512.611    660.581    512.611    514.470    512.611
 80.970    705.000    684.293     20.707    512.592    682.519    512.592    514.397    512.592
 81.070    655.164    704.581    -49.417    512.571    702.890    512.571    514.300    512.571
 81.170    741.273    721.900     19.373    512.548    720.307    512.548    514.185    512.548
 81.270    740.000    735.098      4.902    512.524    733.610    512.524    514.063    512.524
 81.370    746.555    743.344      3.212    512.499    741.960    512.499    513.939    512.499
 81.470    716.029    746.211    -30.182    512.473    744.926    512.473    513.819    512.473
 81.570    793.000    743.713     49.287    512.445    742.518    512.445    513.706    512.445
 81.670    742.000    736.233      5.767    512.415    735.115    512.415    513.601    512.415
 81.770    734.000    724.447      9.553    512.384    723.395    512.384    513.506    512.384
 81.870    745.056    709.325     35.730    512.352    708.327    512.352    513.421    512.352
 81.970    709.998    692.084     17.913    512.318    691.127    512.318    513.344    512.318
 82.070    699.000    673.970     25.030    512.283    673.045    512.283    513.274    512.283
 82.170    661.627    655.994      5.633    512.247    655.093    512.247    513.210    512.247
 82.270    651.410    638.793     12.617    512.209    637.909    512.209    513.150    512.209
 82.370    650.000    622.673     27.327    512.169    621.801    512.169    513.094    512.169
 82.470    584.000    607.764    -23.764    512.129    606.900    512.129    513.040    512.129
 82.570    570.738    594.172    -23.434    512.086    593.314    512.086    512.987    512.086
 82.670    570.000    582.048    -12.048    512.043    581.192    512.043    512.934    512.043
 82.770    539.000    571.572    -32.572    511.998    570.717    511.998    512.882    511.998
 82.870    549.000    562.919    -13.919    511.951    562.063    511.951    512.829    511.951
 82.970    557.000    556.229      0.771    511.903    555.372    511.903    512.776    511.903
 83.070    588.314    551.598     36.716    511.854    550.737    511.854    512.722    511.854
 83.170    556.000    549.055      6.945    511.803    548.191    511.803    512.668    511.803
 83.270    513.371    548.548    -35.176    511.750    547.680    511.750    512.612    511.750
 83.370    535.000    549.920    -14.920    511.697    549.048    511.697    512.555    511.697
 83.470    560.689    552.898      7.791    511.641    552.020    511.641    512.498    511.641
 83.570    550.000    557.079     -7.079    511.585    556.196    511.585    512.439    511.585
 83.670    543.632    561.947    -18.315    511.526    561.059    511.526    512.380    511.526
 83.770    560.187    566.886     -6.699    511.467    565.993    511.467    512.319    511.467
 83.870    572.000    571.222      0.778    511.406    570.325    511.406    512.257    511.406
 83.970    620.151    574.292     45.859    511.343    573.394    511.343    512.194    511.343
 84.070    610.919    575.559     35.360    511.279    574.661    511.279    512.130    511.279
 84.170    548.945    574.742    -25.797    511.214    573.845    511.214    512.065    511.214
 84.270    597.000    571.892     25.108    511.147    570.999    511.147    511.999    511.147
 84.370    551.000    567.364    -16.364    511.078    566.474    511.078    511.931    511.078
 84.470    547.000    561.686    -14.686    511.008    560.800    511.008    511.863    511.008
 84.570    502.000    555.434    -53.434    510.937    554.552    510.937    511.793    510.937
 84.670    540.195    549.133     -8.938    510.864    548.254    510.864    511.722    510.864
 84.770    557.000    543.202     13.798    510.790    542.326    510.790    511.650    510.790
 84.870    532.000    537.936     -5.936    510.714    537.061    510.714    511.577    510.714
 84.970    557.248    533.498     23.750    510.637    532.623    510.637    511.503    510.637
 85.070    498.000    529.939    -31.939    510.558    529.063    510.558    511.427    510.558
 85.170    552.422    527.221     25.201    510.478    526.342    510.478    511.350    510.478
 85.270    554.000    525.249     28.751    510.396    524.368    510.396    511.272    510.396
 85.370    564.975    523.906     41.069    510.313    523.021    510.313    511.193    510.313
 85.470    498.000    523.075    -25.075    510.228    522.186    510.228    511.113    510.228
 85.570    544.000    522.658     21.342    510.142    521.765    510.142    511.032    510.142
 85.670    555.321    522.593     32.728    510.055    521.693    510.055    510.949    510.055
 85.770    485.000    522.852    -37.852    509.966    521.946    509.966    510.866    509.966
 85.870    487.954    523.453    -35.499    509.875    522.540    509.875    510.781    509.875
 85.970    507.507    524.455    -16.948    509.783    523.535    509.783    510.695    509.783
 86.070    534.000    525.960      8.040    509.690    525.031    509.690    510.608    509.690
 86.170    508.000    528.111    -20.111    509.595    527.172    509.595    510.520    509.595
 86.270    534.588    531.079      3.508    509.498    530.129    509.498    510.431    509.498
 86.370    522.000    535.055    -13.055    509.400    534.092    509.400    510.341    509.400
 86.470    554.000    540.219     13.781    509.301    539.242    509.301    510.250    509.301
 86.570    606.000    546.716     59.284    509.200    545.722    509.200    510.157    509.200
 86.670    582.006    554.614     27.392    509.098    553.601    509.098    510.064    509.098
 86.770    558.000    563.862     -5.862    508.994    562.830    508.994    509.970    508.994
 86.870    558.000    574.258    -16.258    508.889    573.204    508.889    509.874    508.889
 86.970    563.811    585.421    -21.610    508.782    584.344    508.782    509.778    508.782
 87.070    560.000    596.780    -36.780    508.674    595.680    508.674    509.681    508.674
 87.170    632.000    607.592     24.408    508.565    606.471    508.565    509.583    508.565
 87.270    633.000    616.984     16.016    508.454    615.843    508.454    509.484    508.454
 87.370    572.460    624.051    -51.591    508.341    622.892    508.341    509.384    508.341
 87.470    604.521    628.021    -23.500    508.227    626.849    508.227    509.283    508.227
 87.570    675.000    628.453     46.547    508.112    627.271    508.112    509.182    508.112
 87.670    619.000    625.372     -6.372    507.995    624.184    507.995    509.080    507.995
 87.770    654.000    619.289     34.711    507.877    618.097    507.877    508.977    507.877
 87.870    610.000    610.984     -0.984    507.757    609.788    507.757    508.873    507.757
 87.970    578.083    601.390    -23.307    507.636    600.192    507.636    508.769    507.636
 88.070    556.000    591.455    -35.455    507.513    590.253    507.513    508.664    507.513
 88.170    626.006    582.050     43.956    507.389    580.842    507.389    508.558    507.389
 88.270    619.653    573.907     45.746    507.264    572.691    507.264    508.453    507.264
 88.370    564.000    567.586     -3.586    507.137    566.360    507.137    508.346    507.137
 88.470    576.070    563.448     12.622    507.008    562.210    507.008    508.239    507.008
 88.570    604.000    561.657     42.343    506.879    560.406    506.879    508.131    506.879
 88.670    528.878    562.181    -33.303    506.748    560.913    506.748    508.024    506.748
 88.770    583.000    564.802     18.198    506.615    563.517    506.615    507.917    506.615
 88.870    597.000    569.143     27.857    506.481    567.839    506.481    507.810    506.481
 88.970    613.609    574.681     38.928    506.346    573.355    506.346    507.703    506.346
 89.070    589.000    580.780      8.220    506.209    579.432    506.209    507.597    506.209
 89.170    567.000    586.725    -19.725    506.071    585.352    506.071    507.491    506.071
 89.270    610.185    591.768     18.417    505.931    590.367    505.931    507.385    505.931
 89.370    649.000    595.208     53.792    505.790    593.776    505.790    507.280    505.790
 89.470    624.269    596.499     27.770    505.648    595.032    505.648    507.177    505.648
 89.570    575.000    595.374    -20.374    505.504    593.868    505.504    507.074    505.504
 89.670    556.000    591.899    -35.899    505.359    590.348    505.359    506.973    505.359
 89.770    547.354    586.437    -39.083    505.213    584.837    505.213    506.873    505.213
 89.870    622.755    579.535     43.220    505.065    577.880    505.065    506.775    505.065
 89.970    545.651    571.800    -26.148    504.916    570.085    504.916    506.680    504.916
 90.070    557.000    563.805     -6.805    504.765    562.026    504.765    506.587    504.765
 90.170    536.000    556.041    -20.041    504.613    554.193    504.613    506.497    504.613
 90.270    527.000    548.883    -21.883    504.460    546.961    504.460    506.411    504.460
 90.370    547.000    542.582      4.418    504.305    540.581    504.305    506.330    504.305
 90.470    559.485    537.272     22.212    504.149    535.187    504.149    506.253    504.149
 90.570    562.171    532.986     29.185    503.992    530.809    503.992    506.183    503.992
 90.670    547.036    529.676     17.360    503.834    527.400    503.834    506.120    503.834
 90.770    539.663    527.244     12.419    503.674    524.858    503.674    506.066    503.674
 90.870    524.000    525.566     -1.566    503.513    523.059    503.513    506.024    503.513
 90.970    518.000    524.496     -6.496    503.350    521.850    503.350    505.998    503.350
 91.070    548.000    523.956     24.044    503.186    521.152    503.186    505.992    503.186
 91.170    502.000    523.907    -21.907    503.021    520.916    503.021    506.012    503.021
 91.270    497.000    524.288    -27.288    502.855    521.073    502.855    506.069    502.855
 91.370    566.015    525.104     40.910    502.687    521.617    502.687    506.173    502.687
 91.470    486.000    526.414    -40.414    502.518    522.589    502.518    506.340    502.518
 91.570    495.000    528.324    -33.324    502.348    524.076    502.348    506.592    502.348
 91.670    500.000    530.988    -30.988    502.177    526.205    502.177    506.954    502.177
 91.770    552.920    534.606     18.314    502.004    529.147    502.004    507.455    502.004
 91.870    529.000    539.415    -10.415    501.830    533.104    501.830    508.131    501.830
 91.970    554.000    545.680      8.320    501.655    538.300    501.655    509.022    501.655
 92.070    524.000    553.667    -29.667    501.479    544.960    501.479    510.168    501.479
 92.170    546.436    563.626    -17.190    501.301    553.295    501.301    511.610    501.301
 92.270    595.000    575.753     19.247    501.123    563.463    501.123    513.384    501.123
 92.370    539.000    590.159    -51.159    500.943    575.549    500.943    515.518    500.943
 92.470    606.420    606.838     -0.418    500.761    589.533    500.761    518.025    500.761
 92.570    633.000    625.656      7.344    500.579    605.286    500.579    520.900    500.579
 92.670    639.000    646.294     -7.294    500.396    622.519    500.396    524.114    500.396
 92.770    693.280    668.268     25.013    500.211    640.805    500.211    527.610    500.211
 92.870    646.075    690.918    -44.843    500.025    659.576    500.025    531.297    500.025
 92.970    756.680    713.452     43.228    499.838    678.165    499.838    535.050    499.838
 93.070    782.077    735.011     47.065    499.650    695.874    499.650    538.708    499.650
 93.170    780.171    754.791     25.381    499.461    712.102    499.461    542.068    499.461
 93.270    802.686    772.182     30.504    499.270    726.469    499.270    544.901    499.270
 93.370    786.930    786.871      0.059    499.079    738.898    499.079    546.970    499.079
 93.470    847.085    798.848     48.238    498.886    749.584    498.886    548.070    498.886
 93.570    902.000    808.351     93.649    498.693    758.892    498.693    548.074    498.693
 93.670    783.000    815.786    -32.786    498.498    767.248    498.498    546.961    498.498
 93.770    782.000    821.675    -39.675    498.302    775.075    498.302    544.830    498.302
 93.870    816.618    826.641    -10.023    498.105    782.809    498.105    541.867    498.105
 93.970    866.000    831.390     34.610    497.907    790.926    497.907    538.304    497.907
 94.070    834.314    836.663     -2.349    497.708    799.932    497.708    534.375    497.708
 94.170    864.996    843.103     21.893    497.508    810.257    497.508    530.293    497.508
 94.270    859.134    851.073      8.061    497.307    822.089    497.307    526.233    497.307
 94.370    866.000    860.504      5.496    497.105    835.223    497.105    522.332    497.105
 94.470    893.000    870.815     22.185    496.902    848.977    496.902    518.690    496.902
 94.570    894.917    880.934     13.983    496.698    862.213    496.698    515.375    496.698
 94.670    940.000    889.394     50.606    496.493    873.428    496.493    512.423    496.493
 94.770    927.691    894.525     33.166    496.287    880.937    496.287    509.846    496.287
 94.870    952.911    894.717     58.194    496.080    883.142    496.080    507.636    496.080
 94.970    915.000    888.762     26.238    495.872    878.855    495.872    505.769    495.872
 95.070    903.000    876.150     26.850    495.664    867.600    495.664    504.212    495.664
 95.170    889.896    857.252     32.643    495.454    849.787    495.454    502.925    495.454
 95.270    871.000    833.215     37.785    495.243    826.603    495.243    501.867    495.243
 95.370    818.317    805.700     12.617    495.032    799.750    495.032    500.997    495.032
 95.470    786.000    776.651      9.349    494.819    771.207    494.819    500.280    494.819
 95.570    737.000    748.070    -11.070    494.606    743.009    494.606    499.684    494.606
 95.670    753.000    721.883     31.117    494.392    717.108    494.392    499.182    494.392
 95.770    690.801    699.852     -9.051    494.177    695.288    494.177    498.752    494.177
 95.870    674.156    683.533     -9.377    493.962    679.123    493.962    498.378    493.962
 95.970    634.046    674.260    -40.214    493.745    669.958    493.745    498.046    493.745
 96.070    696.000    673.150     22.850    493.528    668.922    493.528    497.747    493.528
 96.170    694.067    681.117     12.950    493.310    676.935    493.310    497.475    493.310
 96.270    666.000    698.876    -32.876    493.091    694.716    493.091    497.223    493.091
 96.370    691.000    726.921    -35.921    492.871    722.765    492.871    496.990    492.871
 96.470    830.000    765.476     64.524    492.651    761.307    492.651    496.771    492.651
 96.570    843.000    814.408     28.592    492.429    810.211    492.429    496.566    492.429
 96.670    909.000    873.125     35.875    492.208    868.887    492.208    496.374    492.208
 96.770    942.146    940.466      1.680    491.985    936.174    491.985    496.194    491.985
 96.870   1054.486   1014.614     39.872    491.762   1010.258    491.762    496.026    491.762
 96.970   1145.000   1093.046     51.954    491.538   1088.617    491.538    495.869    491.538
 97.070   1118.493   1172.536    -54.043    491.313   1168.022    491.313    495.724    491.313
 97.170   1241.000   1249.213     -8.213    491.088   1244.607    491.088    495.592    491.088
 97.270   1274.319   1318.726    -44.407    490.862   1314.020    490.862    495.472    490.862
 97.370   1419.000   1376.543     42.457    490.636   1371.727    490.636    495.365    490.636
 97.470   1401.000   1418.437    -17.437    490.409   1413.502    490.409    495.272    490.409
 97.570   1452.366   1441.159     11.207    490.181   1436.093    490.181    495.195    490.181
 97.670   1496.300   1443.050     53.250    489.953   1437.839    489.953    495.133    489.953
 97.770   1410.293   1424.389    -14.096    489.724   1419.015    489.724    495.091    489.724
 97.870   1314.528   1387.257    -72.729    489.495   1381.696    489.495    495.068    489.495
 97.970   1419.000   1335.034     83.966    489.266   1329.261    489.266    495.069    489.266
 98.070   1250.000   1271.806    -21.806    489.035   1265.789    489.035    495.098    489.035
 98.170   1187.144   1201.860    -14.716    488.805   1195.561    488.805    495.159    488.805
 98.270   1167.000   1129.349     37.651    488.573   1122.724    488.573    495.260    488.573
 98.370   1150.000   1058.072     91.928    488.342   1051.066    488.342    495.410    488.342
 98.470   1046.000    991.345     54.655    488.110    983.891    488.110    495.624    488.110
 98.570    974.675    931.948     42.727    487.877    923.961    487.877    495.919    487.877
 98.670    819.000    882.119    -63.119    487.644    873.493    487.644    496.318    487.644
 98.770    790.969    843.589    -52.620    487.411    834.185    487.411    496.854    487.411
 98.870    823.099    817.664      5.435    487.178    807.304    487.178    497.566    487.178
 98.970    806.000    805.307      0.693    486.944    793.762    486.944    498.507    486.944
 99.070    817.026    807.170      9.856    486.709    794.148    486.709    499.740    486.709
 99.170    868.420    823.685     44.735    486.475    808.818    486.475    501.342    486.475
 99.270    891.344    855.081     36.263    486.240    837.909    486.240    503.404    486.240
 99.370    931.000    901.359     29.641    486.005    881.322    486.005    506.027    486.005
 99.470    907.000    962.245    -55.245    485.769    938.669    485.769    509.326    485.769
 99.570   1085.000   1037.098     47.902    485.534   1009.194    485.534    513.417    485.534
 99.670   1134.000   1124.825      9.175    485.298   1091.682    485.298    518.420    485.298
 99.770   1226.000   1223.777      2.223    485.062   1184.379    485.062    524.444    485.062
 99.870   1293.000   1331.677    -38.677    484.826   1284.918    484.826    531.578    484.826
 99.970   1465.007   1445.576     19.431    484.590   1390.288    484.590    539.882    484.590
100.070   1520.642   1561.870    -41.228    484.353   1496.868    484.353    549.376    484.353
100.170   1694.000   1676.420     17.580    484.117   1600.554    484.117    560.023    484.117
100.270   1874.000   1784.801     89.199    483.880   1697.021    483.880    571.723    483.880
100.370   1846.000   1882.668    -36.668    483.643   1782.099    483.643    584.301    483.643
100.470   1965.528   1966.154     -0.626    483.407   1852.174    483.407    597.502    483.407
100.570   1985.000   2032.140    -47.140    483.170   1904.471    483.170    610.981    483.170
100.670   2152.293   2078.323     73.970    482.933   1937.119    482.933    624.303    482.933
100.770   2122.426   2103.129     19.297    482.696   1949.069    482.696    636.943    482.696
100.870   2106.000   2105.663      0.337    482.460   1940.026    482.460    648.301    482.460
100.970   2061.917   2085.832    -23.915    482.223   1910.538    482.223    657.733    482.223
101.070   2035.000   2044.612     -9.612    481.986   1862.209    481.986    664.613    481.986
101.170   1983.000   1984.288     -1.288    481.750   1797.844    481.750    668.420    481.750
101.270   1894.000   1908.449    -14.449    481.513   1721.354    481.513    668.831    481.513
101.370   1742.225   1821.656    -79.432    481.277   1637.355    481.277    665.793    481.277
101.470   1663.000   1728.914    -65.914    481.041   1550.623    481.041    659.535    481.041
101.570   1655.538   1635.095     20.443    480.805   1465.574    480.805    650.514    480.805
101.670   1494.000   1544.486    -50.486    480.570   1385.897    480.570    639.331    480.570
101.770   1455.053   1460.492     -5.439    480.334   1314.350    480.334    626.631    480.334
101.870   1428.245   1385.491     42.753    480.099   1252.691    480.099    613.038    480.099
101.970   1266.000   1320.796    -54.796    479.864   1201.677    479.864    599.106    479.864
102.070   1277.000   1266.695     10.305    479.630   1161.131    479.630    585.304    479.630
102.170   1197.000   1222.554    -25.554    479.395   1130.040    479.395    572.010    479.395
102.270   1171.000   1186.949    -15.949    479.162   1106.691    479.162    559.512    479.162
102.370   1122.000   1157.847    -35.847    478.928   1088.850    478.928    548.013    478.928
102.470   1110.000   1132.841    -22.841    478.695   1073.982    478.695    537.639    478.695
102.570   1077.000   1109.424    -32.424    478.462   1059.522    478.462    528.448    478.462
102.670   1025.000   1085.310    -60.310    478.230   1043.183    478.230    520.442    478.230
102.770   1054.871   1058.735     -3.863    477.998   1023.246    477.998    513.573    477.998
102.870   1063.000   1028.652     34.348    477.767    998.744    477.767    507.761    477.767
102.970    962.000    994.782    -32.782    477.536    969.503    477.536    502.902    477.536
103.070    957.000    957.501     -0.501    477.306    936.011    477.306    498.881    477.306
103.170    891.000    917.638    -26.638    477.077    899.218    477.077    495.579    477.077
103.270    910.000    876.268     33.732    476.848    860.313    476.848    492.880    476.848
103.370    808.000    834.545    -26.545    476.619    820.559    476.619    490.677    476.619
103.470    834.000    793.580     40.420    476.391    781.162    476.391    488.876    476.391
103.570    811.000    754.362     56.638    476.164    743.193    476.164    487.394    476.164
103.670    716.000    717.705     -1.705    475.938    707.534    475.938    486.162    475.938
103.770    678.453    684.225     -5.772    475.712    674.858    475.712    485.126    475.712
103.870    672.216    654.316     17.900    475.488    645.601    475.488    484.241    475.488
103.970    644.466    628.160     16.306    475.264    619.984    475.264    483.472    475.264
104.070    562.264    605.755    -43.490    475.040    598.029    475.040    482.793    475.040
104.170    628.000    586.938     41.062    474.818    579.595    474.818    482.183    474.818
104.270    541.000    571.440    -30.440    474.596    564.425    474.596    481.629    474.596
104.370    625.000    558.919     66.081    474.376    552.191    474.376    481.118    474.376
104.470    591.270    548.988     42.282    474.156    542.512    474.156    480.643    474.156
104.570    544.000    541.262      2.738    473.937    535.009    473.937    480.198    473.937
104.670    552.000    535.378     16.622    473.719    529.324    473.719    479.778    473.719
104.770    563.000    531.013     31.987    473.503    525.139    473.503    479.380    473.503
104.870    518.000    527.896     -9.896    473.287    522.183    473.287    479.002    473.287
104.970    531.000    525.812      5.188    473.072    520.242    473.072    478.641    473.072
105.070    509.683    524.599    -14.916    472.859    519.160    472.859    478.296    472.859
105.170    519.000    524.154     -5.154    472.646    518.832    472.646    477.966    472.646
105.270    554.000    524.420     29.580    472.435    519.201    472.435    477.649    472.435
105.370    525.000    525.384     -0.384    472.225    520.258    472.225    477.344    472.225
105.470    569.768    527.070     42.698    472.016    522.031    472.016    477.047    472.016
105.570    504.000    529.543    -25.543    471.808    524.579    471.808    476.763    471.808
105.670    503.064    532.887    -29.823    471.602    527.986    471.602    476.491    471.602
105.770    504.000    537.198    -33.198    471.397    532.351    471.397    476.230    471.397
105.870    565.000    542.575     22.425    471.193    537.774    471.193    475.978    471.193
105.970    526.000    549.105    -23.105    470.990    544.341    470.990    475.735    470.990
106.070    550.000    556.844     -6.844    470.789    552.110    470.789    475.501    470.789
106.170    589.000    565.810     23.190    470.590    561.099    470.590    475.275    470.590
106.270    577.000    575.961      1.039    470.392    571.267    470.392    475.056    470.392
106.370    601.000    587.189     13.811    470.195    582.512    470.195    474.839    470.195
106.470    573.000    599.328    -26.328    470.000    594.661    470.000    474.632    470.000
106.570    577.000    612.139    -35.139    469.806    607.470    469.806    474.437    469.806
106.670    607.447    625.306    -17.859    469.614    620.629    469.614    474.250    469.614
106.770    646.000    638.458      7.542    469.424    633.768    469.424    474.070    469.424
106.870    648.000    651.180     -3.180    469.235    646.471    469.235    473.898    469.235
106.970    624.000    663.030    -39.030    469.048    658.299    469.048    473.733    469.048
107.070    713.284    673.575     39.708    468.863    668.816    468.863    473.576    468.863
107.170    649.000    682.426    -33.426    468.680    677.635    468.680    473.425    468.680
107.270    621.000    689.292    -68.292    468.498    684.464    468.498    473.283    468.498
107.370    723.468    694.030     29.438    468.318    689.161    468.318    473.147    468.318
107.470    705.000    696.676      8.324    468.140    691.761    468.140    473.019    468.140
107.570    710.000    697.449     12.551    467.964    692.482    467.964    472.899    467.964
107.670    668.000    696.713    -28.713    467.789    691.689    467.789    472.786    467.789
107.770    728.000    694.921     33.079    467.617    689.833    467.617    472.682    467.617
107.870    684.000    692.547     -8.547    467.447    687.391    467.447    472.585    467.447
107.970    696.952    690.037      6.916    467.278    684.805    467.278    472.497    467.278
108.070    658.000    687.759    -29.759    467.112    682.445    467.112    472.417    467.112
108.170    734.904    685.979     48.925    466.948    680.576    466.948    472.346    466.948
108.270    610.000    684.842    -74.842    466.786    679.343    466.786    472.283    466.786
108.370    677.000    684.366     -7.366    466.626    678.764    466.626    472.231    466.626
108.470    659.000    684.439    -25.439    466.468    678.726    466.468    472.188    466.468
108.570    667.000    684.833    -17.833    466.313    679.001    466.313    472.155    466.313
108.670    675.000    685.220    -10.220    466.160    679.260    466.160    472.132    466.160
108.770    691.000    685.204      5.796    466.009    679.109    466.009    472.120    466.009
108.870    729.518    684.368     45.150    465.861    678.127    465.861    472.120    465.861
108.970    722.643    682.325     40.318    465.714    675.928    465.714    472.132    465.714
109.070    713.491    678.776     34.715    465.571    672.214    465.571    472.156    465.571
109.170    643.000    673.558    -30.558    465.430    666.819    465.430    472.193    465.430
109.270    621.401    666.660    -45.259    465.291    659.732    465.291    472.244    465.291
109.370    622.000    658.216    -36.216    465.155    651.087    465.155    472.310    465.155
109.470    646.000    648.472     -2.472    465.021    641.128    465.021    472.391    465.021
109.570    640.000    637.735      2.265    464.890    630.162    464.890    472.488    464.890
109.670    676.000    626.334     49.666    464.762    618.516    464.762    472.603    464.762
109.770    594.000    614.684    -20.684    464.636    606.606    464.636    472.736    464.636
109.870    581.000    603.082    -22.082    464.513    594.726    464.513    472.889    464.513
109.970    591.854    591.821      0.033    464.393    583.168    464.393    473.064    464.393
110.070    623.352    581.152     42.200    464.275    572.182    464.275    473.261    464.275
110.170    542.876    571.279    -28.403    464.161    561.970    464.161    473.484    464.161
110.270    549.010    562.356    -13.346    464.049    552.681    464.049    473.735    464.049
110.370    596.000    554.482     41.518    463.940    544.416    463.940    474.017    463.940
110.470    524.000    547.713    -23.713    463.835    537.222    463.835    474.333    463.835
110.570    558.000    542.057     15.943    463.732    531.107    463.732    474.688    463.732
110.670    521.000    537.491    -16.491    463.632    526.039    463.632    475.088    463.632
110.770    547.000    533.962     13.038    463.536    521.959    463.536    475.541    463.536
110.870    583.000    531.399     51.601    463.442    518.786    463.442    476.056    463.442
110.970    505.000    529.721    -24.721    463.352    516.427    463.352    476.644    463.352
111.070    526.000    528.841     -2.841    463.265    514.782    463.265    477.322    463.265
111.170    508.000    528.679    -20.679    463.181    513.750    463.181    478.107    463.181
111.270    531.000    529.162      1.838    463.100    513.234    463.100    479.024    463.100
111.370    525.000    530.230     -5.230    463.023    513.145    463.023    480.103    463.023
111.470    528.000    531.838     -3.838    462.949    513.402    462.949    481.379    462.949
111.570    525.000    533.961     -8.961    462.879    513.936    462.879    482.898    462.879
111.670    542.000    536.593      5.407    462.812    514.685    462.812    484.713    462.812
111.770    561.000    539.749     21.251    462.748    515.602    462.748    486.888    462.748
111.870    573.977    543.465     30.512    462.689    516.650    462.689    489.496    462.689
111.970    520.000    547.801    -27.801    462.632    517.801    462.632    492.624    462.632
112.070    527.257    552.840    -25.583    462.580    519.041    462.580    496.370    462.580
112.170    541.242    558.684    -17.442    462.531    520.366    462.531    500.840    462.531
112.270    588.000    565.458     22.542    462.485    521.781    462.485    506.153    462.485
112.370    581.000    573.300      7.700    462.444    523.301    462.444    512.433    462.444
112.470    572.000    582.363    -10.363    462.406    524.949    462.406    519.810    462.406
112.570    607.941    592.806     15.134    462.372    526.757    462.372    528.411    462.372
112.670    636.000    604.795     31.205    462.342    528.765    462.342    538.361    462.342
112.770    596.000    618.490    -22.490    462.317    531.023    462.317    549.772    462.317
112.870    653.000    634.051     18.949    462.295    533.596    462.295    562.737    462.295
112.970    644.000    651.626     -7.626    462.277    536.567    462.277    577.323    462.277
113.070    652.000    671.358    -19.358    462.263    540.043    462.263    593.563    462.263
113.170    687.000    693.378     -6.378    462.253    544.166    462.253    611.450    462.253
113.270    681.948    717.818    -35.870    462.248    549.125    462.248    630.924    462.248
113.370    724.000    744.809    -20.809    462.246    555.165    462.246    651.871    462.246
113.470    739.582    774.502    -34.921    462.249    562.614    462.249    674.115    462.249
113.570    799.000    807.077     -8.077    462.257    571.896    462.257    697.412    462.257
113.670    863.000    842.769     20.231    462.268    583.560    462.268    721.448    462.268
113.770    890.000    881.887      8.113    462.285    598.304    462.285    745.832    462.285
113.870    920.818    924.849     -4.031    462.305    617.009    462.305    770.103    462.305
113.970    931.000    972.205    -41.205    462.330    640.763    462.330    793.722    462.330
114.070   1046.000   1024.676     21.324    462.360    670.891    462.360    816.083    462.360
114.170   1033.102   1083.182    -50.081    462.394    708.975    462.394    836.528    462.394
114.270   1184.000   1148.889     35.111    462.433    756.867    462.433    854.365    462.433
114.370   1276.880   1223.241     53.639    462.477    816.694    462.477    868.915    462.477
114.470   1376.100   1307.997     68.102    462.525    890.829    462.525    879.562    462.525
114.570   1362.000   1405.257    -43.257    462.578    981.862    462.578    885.815    462.578
114.670   1537.228   1517.449     19.779    462.637   1092.525    462.637    887.372    462.637
114.770   1657.000   1647.280      9.720    462.700   1225.599    462.700    884.156    462.700
114.870   1788.000   1797.613     -9.613    462.767   1383.787    462.767    876.331    462.767
114.970   2118.000   1971.296    146.704    462.840   1569.556    462.840    864.275    462.840
115.070   2240.000   2170.923     69.077    462.918   1784.958    462.918    848.534    462.918
115.170   2534.000   2398.576    135.424    463.002   2031.427    463.002    829.754    463.002
115.270   2696.000   2655.555     40.445    463.090   2309.577    463.090    808.626    463.090
115.370   2949.629   2942.132      7.496    463.183   2618.996    463.183    785.832    463.183
115.470   3214.432   3257.333    -42.901    463.282   2958.071    463.282    762.016    463.282
115.570   3524.145   3598.772    -74.627    463.386   3323.838    463.386    737.758    463.386
115.670   3888.000   3962.550    -74.550    463.496   3711.888    463.496    713.569    463.496
115.770   4227.000   4343.210   -116.210    463.611   4116.330    463.611    689.885    463.611
115.870   4777.401   4733.770     43.631    463.731   4529.825    463.731    667.066    463.731
115.970   4968.000   5125.834   -157.834    463.857   4943.689    463.857    645.401    463.857
116.070   5373.979   5509.769   -135.791    463.988   5348.075    463.988    625.108    463.988
116.170   5774.636   5874.975   -100.339    464.126   5732.228    464.126    606.340    464.126
116.270   6226.000   6210.240     15.760    464.268   6084.846    464.268    589.189    464.268
116.370   6523.000   6504.205     18.795    464.417   6394.529    464.417    573.695    464.417
116.470   6874.000   6745.960    128.040    464.571   6650.375    464.571    559.849    464.571
116.570   7051.000   6925.764    125.236    464.731   6842.685    464.731    547.604    464.731
116.670   7008.000   7035.833    -27.833    464.898   6963.749    464.898    536.884    464.898
116.770   7145.000   7071.079     73.921    465.070   7008.577    465.070    527.586    465.070
116.870   7100.839   7029.745     71.095    465.248   6975.524    465.248    519.594    465.248
116.970   6943.000   6913.480     29.520    465.432   6866.358    465.432    512.781    465.432
117.070   6723.000   6727.187     -4.187    465.622   6686.110    465.622    507.019    465.622
117.170   6453.000   6478.468    -25.468    465.819   6442.504    465.819    502.179    465.819
117.270   6048.390   6176.864   -128.474    466.021   6145.203    466.021    498.139    466.021
117.370   5868.928   5833.071     35.857    466.230   5805.017    466.230    494.786    466.230
117.470   5329.000   5458.241   -129.241    466.446   5433.200    466.446    492.014    466.446
117.570   4966.000   5063.397    -97.397    466.668   5040.872    466.668    489.732    466.668
117.670   4758.000   4658.990     99.010    466.896   4638.564    466.896    487.857    466.896
117.770   4500.000   4254.552    245.448    467.131   4235.882    467.131    486.320    467.131
117.870   4032.000   3858.451    173.549    467.372   3841.254    467.372    485.061    467.372
117.970   3423.846   3477.714    -53.867    467.620   3461.761    467.620    484.030    467.620
118.070   3163.000   3117.949     45.051    467.875   3103.054    467.875    483.186    467.875
118.170   2914.000   2783.325    130.675    468.136   2769.339    468.136    482.494    468.136
118.270   2441.000   2476.632    -35.632    468.405   2463.433    468.405    481.929    468.405
118.370   2188.000   2199.388    -11.388    468.680   2186.880    468.680    481.467    468.680
118.470   1928.000   1951.994    -23.994    468.962   1940.099    468.962    481.092    468.962
118.570   1722.115   1733.912    -11.798    469.251   1722.567    469.251    480.790    469.251
118.670   1577.168   1543.854     33.313    469.547   1533.008    469.547    480.550    469.547
118.770   1367.000   1379.969    -12.969    469.850   1369.578    469.850    480.365    469.850
118.870   1192.000   1240.025    -48.025    470.161   1230.055    470.161    480.226    470.161
118.970   1166.000   1121.572     44.428    470.479   1111.991    470.479    480.130    470.479
119.070   1077.625   1022.084     55.540    470.804   1012.868    470.804    480.071    470.804
119.170    878.000    939.079    -61.079    471.136    930.203    471.136    480.048    471.136
119.270    836.000    870.200    -34.200    471.476    861.643    471.476    480.057    471.476
119.370    822.757    813.282      9.475    471.823    805.024    471.823    480.096    471.823
119.470    743.000    766.386    -23.386    472.178    758.408    472.178    480.164    472.178
119.570    698.000    727.817    -29.817    472.540    720.101    472.540    480.260    472.540
119.670    646.162    696.120    -49.958    472.910    688.649    472.910    480.383    472.910
119.770    703.708    670.071     33.637    473.288    662.827    473.288    480.532    473.288
119.870    652.553    648.653      3.900    473.674    641.619    473.674    480.707    473.674
119.970    607.073    631.036    -23.963    474.067    624.194    474.067    480.908    474.067
120.070    578.000    616.547    -38.547    474.468    609.880    474.468    481.134    474.468
120.170    604.802    604.648      0.154    474.878    598.139    474.878    481.387    474.878
120.270    554.800    594.912    -40.112    475.295    588.542    475.295    481.666    475.295
120.370    577.000    587.001    -10.001    475.721    580.752    475.721    481.972    475.721
120.470    521.000    580.652    -59.652    476.154    574.503    476.154    482.306    476.154
120.570    535.000    575.656    -40.656    476.596    569.587    476.596    482.669    476.596
120.670    562.207    571.853     -9.646    477.047    565.842    477.047    483.061    477.047
120.770    524.886    569.115    -44.230    477.505    563.141    477.505    483.484    477.505
120.870    558.000    567.345     -9.345    477.972    561.384    477.972    483.940    477.972
120.970    565.854    566.464     -0.610    478.448    560.491    478.448    484.428    478.448
121.070    563.000    566.408     -3.408    478.932    560.398    478.932    484.950    478.932
121.170    554.000    567.123    -13.123    479.425    561.049    479.425    485.507    479.425
121.270    587.000    568.560     18.440    479.926    562.396    479.926    486.100    479.926
121.370    570.000    570.673     -0.673    480.436    564.392    480.436    486.729    480.436
121.470    574.000    573.414      0.586    480.956    566.989    480.956    487.394    480.956
121.570    545.000    576.732    -31.732    481.484    570.135    481.484    488.096    481.484
121.670    584.000    580.567      3.433    482.020    573.772    482.020    488.833    482.020
121.770    556.243    584.856    -28.613    482.566    577.837    482.566    489.605    482.566
121.870    604.340    589.521     14.819    483.122    582.256    483.122    490.409    483.122
121.970    600.679    594.479      6.199    483.686    586.946    483.686    491.244    483.686
122.070    590.000    599.637     -9.637    484.259    591.817    484.259    492.107    484.259
122.170    565.789    604.888    -39.100    484.842    596.768    484.842    492.993    484.842
122.270    626.000    610.125     15.875    485.435    601.693    485.435    493.900    485.435
122.370    622.000    615.227      6.773    486.036    606.477    486.036    494.822    486.036
122.470    627.000    620.072      6.928    486.647    611.006    486.647    495.753    486.647
122.570    642.000    624.539     17.461    487.268    615.161    487.268    496.687    487.268
122.670    593.000    628.507    -35.507    487.899    618.832    487.899    497.617    487.899
122.770    628.000    631.867     -3.867    488.539    621.917    488.539    498.536    488.539
122.870    649.000    634.525     14.475    489.189    624.328    489.189    499.433    489.189
122.970    666.000    636.411     29.589    489.849    626.003    489.849    500.306    489.849
123.070    683.030    637.477     45.553    490.519    626.901    490.519    501.145    490.519
123.170    668.380    637.703     30.677    491.199    627.011    491.199    501.942    491.199
123.270    658.028    637.101     20.927    491.889    626.348    491.889    502.692    491.889
123.370    690.000    635.705     54.295    492.589    624.952    492.589    503.391    492.589
123.470    654.551    633.572     20.979    493.299    622.883    493.299    504.036    493.299
123.570    654.271    630.777     23.494    494.020    620.214    494.020    504.630    494.020
123.670    624.000    627.404     -3.404    494.751    617.028    494.751    505.173    494.751
123.770    595.779    623.548    -27.769    495.493    613.413    495.493    505.670    495.493
123.870    615.000    619.303     -4.303    496.245    609.459    496.245    506.128    496.245
123.970    582.761    614.766    -32.005    497.007    605.256    497.007    506.554    497.007
124.070    613.000    610.029      2.971    497.781    600.887    497.781    506.956    497.781
124.170    632.000    605.178     26.822    498.565    596.432    498.565    507.341    498.565
124.270    594.653    600.293     -5.640    499.360    591.963    499.360    507.717    499.360
124.370    632.114    595.442     36.673    500.166    587.540    500.166    508.092    500.166
124.470    570.000    590.685    -20.685    500.983    583.218    500.983    508.472    500.983
124.570    616.000    586.071     29.929    501.811    579.038    501.811    508.862    501.811
124.670    588.000    581.638      6.362    502.650    575.034    502.650    509.269    502.650
124.770    582.000    577.415      4.585    503.500    571.231    503.500    509.698    503.500
124.870    526.188    573.425    -47.237    504.361    567.647    504.361    510.151    504.361
124.970    590.000    569.680     20.320    505.234    564.292    505.234    510.632    505.234
