neutron_powder_diffraction_0094
R_wp: 3.994
Temperature (K): 859.925
Counts: 83557.00
Wavelength (Ã…): 2.52098
COMMENTS
Test file for demonstrating the .xyy file format in Reel1.0
END OF HEADER
   tth       Y_obs     Y_calc      Y_res    Background    Phase_1_Nuc    Phase_1_Mag    Phase_2_Nuc    Phase_2_Mag
  9.970    616.000    550.707     65.293    549.260    550.392    549.260    549.573    549.260
 10.070    571.000    551.308     19.692    549.764    550.992    549.764    550.080    549.764
 10.170    558.941    551.912      7.029    550.259    551.595    550.259    550.575    550.259
 10.270    604.000    552.522     51.478    550.742    552.204    550.742    551.060    550.742
 10.370    585.000    553.141     31.859    551.216    552.822    551.216    551.535    551.216
 10.470    593.000    553.774     39.226    551.679    553.453    551.679    551.999    551.679
 10.570    609.000    554.427     54.573    552.131    554.104    552.131    552.453    552.131
 10.670    573.000    555.106     17.894    552.574    554.782    552.574    552.897    552.574
 10.770    582.000    555.821     26.179    553.006    555.496    553.006    553.330    553.006
 10.870    517.255    556.586    -39.331    553.428    556.259    553.428    553.754    553.428
 10.970    594.148    557.419     36.729    553.841    557.091    553.841    554.168    553.841
 11.070    596.000    558.345     37.655    554.243    558.015    554.243    554.572    554.243
 11.170    614.000    559.401     54.599    554.636    559.069    554.636    554.966    554.636
 11.270    577.000    560.644     16.356    555.019    560.310    555.019    555.350    555.019
 11.370    647.000    562.179     84.821    555.393    561.843    555.393    555.725    555.393
 11.470    568.000    564.214      3.786    555.756    563.876    555.756    556.090    555.756
 11.570    552.000    567.215    -15.215    556.111    566.873    556.111    556.446    556.111
 11.670    576.000    572.146      3.854    556.456    571.800    556.456    556.793    556.456
 11.770    531.297    580.675    -49.378    556.792    580.324    556.792    557.130    556.792
 11.870    636.000    594.958     41.042    557.118    594.598    557.118    557.458    557.118
 11.970    655.069    616.515     38.554    557.435    616.141    557.435    557.777    557.435
 12.070    605.763    643.965    -38.202    557.743    643.575    557.743    558.086    557.743
 12.170    674.000    669.877      4.123    558.043    669.471    558.043    558.387    558.043
 12.270    650.000    680.428    -30.428    558.333    680.015    558.333    558.679    558.333
 12.370    625.000    667.654    -42.654    558.614    667.246    558.614    558.962    558.614
 12.470    620.000    641.220    -21.220    558.887    640.826    558.887    559.236    558.887
 12.570    566.000    614.776    -48.776    559.151    614.395    559.151    559.502    559.151
 12.670    631.494    594.794     36.700    559.406    594.423    559.406    559.758    559.406
 12.770    631.000    582.031     48.969    559.653    581.665    559.653    560.007    559.653
 12.870    523.000    574.742    -51.742    559.891    574.378    559.891    560.247    559.891
 12.970    555.000    570.774    -15.774    560.121    570.412    560.121    560.478    560.121
 13.070    561.006    568.554     -7.548    560.343    568.191    560.343    560.702    560.343
 13.170    576.000    567.204      8.796    560.556    566.841    560.556    560.917    560.556
 13.270    560.000    566.312     -6.312    560.761    565.947    560.761    561.123    560.761
 13.370    518.000    565.690    -47.690    560.958    565.324    560.958    561.322    560.958
 13.470    549.211    565.246    -16.035    561.147    564.878    561.147    561.513    561.147
 13.570    589.000    564.927     24.073    561.328    564.558    561.328    561.696    561.328
 13.670    566.000    564.702      1.298    561.501    564.331    561.501    561.871    561.501
 13.770    557.000    564.544     -7.544    561.667    564.172    561.667    562.038    561.667
 13.870    569.177    564.456      4.721    561.824    564.083    561.824    562.197    561.824
 13.970    568.000    564.387      3.613    561.974    564.011    561.974    562.349    561.974
 14.070    571.000    564.341      6.659    562.116    563.964    562.116    562.493    562.116
 14.170    541.000    564.316    -23.316    562.251    563.937    562.251    562.629    562.251
 14.270    556.000    564.307     -8.307    562.378    563.926    562.378    562.759    562.378
 14.370    538.668    564.310    -25.641    562.498    563.927    562.498    562.880    562.498
 14.470    597.911    564.321     33.590    562.611    563.936    562.611    562.995    562.611
 14.570    552.372    564.338    -11.966    562.716    563.952    562.716    563.102    562.716
 14.670    577.844    564.360     13.484    562.814    563.971    562.814    563.202    562.814
 14.770    532.000    564.383    -32.383    562.905    563.993    562.905    563.295    562.905
 14.870    518.000    564.408    -46.408    562.989    564.015    562.989    563.381    562.989
 14.970    553.343    564.432    -11.089    563.066    564.038    563.066    563.460    563.066
 15.070    571.551    564.456      7.095    563.136    564.060    563.136    563.532    563.136
 15.170    544.775    564.478    -19.703    563.199    564.080    563.199    563.597    563.199
 15.270    523.323    564.498    -41.174    563.255    564.097    563.255    563.656    563.255
 15.370    541.000    564.515    -23.515    563.305    564.112    563.305    563.707    563.305
 15.470    515.063    564.529    -49.466    563.348    564.124    563.348    563.752    563.348
 15.570    559.000    564.539     -5.539    563.384    564.132    563.384    563.791    563.384
 15.670    521.000    564.557    -43.557    563.414    564.147    563.414    563.823    563.414
 15.770    503.000    564.667    -61.667    563.437    564.255    563.437    563.849    563.437
 15.870    529.414    564.685    -35.271    563.454    564.271    563.454    563.868    563.454
 15.970    529.000    564.680    -35.680    563.465    564.264    563.465    563.881    563.465
 16.070    579.000    564.670     14.330    563.470    564.252    563.470    563.888    563.470
 16.170    539.000    564.659    -25.659    563.468    564.238    563.468    563.888    563.468
 16.270    529.000    564.644    -35.644    563.460    564.221    563.460    563.883    563.460
 16.370    562.539    564.621     -2.081    563.446    564.195    563.446    563.871    563.446
 16.470    561.000    564.592     -3.592    563.426    564.164    563.426    563.854    563.426
 16.570    529.000    564.559    -35.559    563.400    564.128    563.400    563.830    563.400
 16.670    600.000    564.521     35.479    563.368    564.088    563.368    563.801    563.368
 16.770    597.665    564.478     33.187    563.330    564.042    563.330    563.766    563.330
 16.870    576.000    564.430     11.570    563.287    563.992    563.287    563.725    563.287
 16.970    545.000    564.378    -19.378    563.237    563.937    563.237    563.678    563.237
 17.070    554.668    564.322     -9.654    563.183    563.879    563.183    563.626    563.183
 17.170    574.616    564.263     10.354    563.122    563.816    563.122    563.569    563.122
 17.270    592.052    564.196     27.856    563.056    563.747    563.056    563.506    563.056
 17.370    541.000    564.124    -23.124    562.985    563.672    562.985    563.437    562.985
 17.470    517.000    564.048    -47.048    562.908    563.593    562.908    563.363    562.908
 17.570    572.000    563.966      8.034    562.826    563.508    562.826    563.284    562.826
 17.670    603.359    563.883     39.476    562.739    563.422    562.739    563.200    562.739
 17.770    544.000    563.817    -19.817    562.646    563.353    562.646    563.110    562.646
 17.870    543.419    563.771    -20.352    562.548    563.304    562.548    563.015    562.548
 17.970    565.704    563.676      2.027    562.445    563.206    562.445    562.916    562.445
 18.070    575.174    563.573     11.601    562.337    563.099    562.337    562.811    562.337
 18.170    573.000    563.466      9.534    562.224    562.989    562.224    562.701    562.224
 18.270    600.302    563.365     36.937    562.107    562.885    562.107    562.587    562.107
 18.370    610.310    563.265     47.045    561.984    562.782    561.984    562.467    561.984
 18.470    582.970    563.157     19.813    561.856    562.670    561.856    562.343    561.856
 18.570    594.868    563.035     31.833    561.724    562.545    561.724    562.214    561.724
 18.670    542.000    562.906    -20.906    561.587    562.412    561.587    562.081    561.587
 18.770    580.000    562.772     17.228    561.445    562.275    561.445    561.943    561.445
 18.870    566.000    562.634      3.366    561.299    562.134    561.299    561.800    561.299
 18.970    532.000    562.493    -30.493    561.148    561.988    561.148    561.653    561.148
 19.070    577.000    562.348     14.652    560.993    561.840    560.993    561.502    560.993
 19.170    559.915    562.210     -2.295    560.833    561.697    560.833    561.346    560.833
 19.270    540.000    562.057    -22.057    560.669    561.541    560.669    561.186    560.669
 19.370    539.000    561.900    -22.900    560.501    561.380    560.501    561.021    560.501
 19.470    609.663    561.739     47.923    560.328    561.215    560.328    560.853    560.328
 19.570    565.000    561.575      3.425    560.151    561.046    560.151    560.680    560.151
 19.670    518.188    561.407    -43.219    559.970    560.874    559.970    560.503    559.970
 19.770    522.096    561.237    -39.141    559.785    560.700    559.785    560.323    559.785
 19.870    577.000    561.063     15.937    559.596    560.521    559.596    560.138    559.596
 19.970    556.008    560.885     -4.877    559.403    560.339    559.403    559.949    559.403
 20.070    606.518    560.704     45.814    559.206    560.153    559.206    559.757    559.206
 20.170    593.512    560.521     32.992    559.005    559.965    559.005    559.561    559.005
 20.270    567.000    560.351      6.649    558.800    559.790    558.800    559.361    558.800
 20.370    561.000    560.196      0.804    558.591    559.630    558.591    559.157    558.591
 20.470    524.171    560.007    -35.836    558.379    559.437    558.379    558.950    558.379
 20.570    524.000    559.816    -35.816    558.163    559.240    558.163    558.739    558.163
 20.670    552.757    559.618     -6.861    557.943    559.037    557.943    558.524    557.943
 20.770    558.000    559.420     -1.420    557.720    558.833    557.720    558.307    557.720
 20.870    584.106    559.242     24.863    557.493    558.650    557.493    558.085    557.493
 20.970    547.000    559.117    -12.117    557.263    558.519    557.263    557.861    557.263
 21.070    564.000    558.935      5.065    557.029    558.331    557.029    557.633    557.029
 21.170    536.081    558.730    -22.650    556.792    558.120    556.792    557.402    556.792
 21.270    516.000    558.534    -42.534    556.551    557.918    556.551    557.168    556.551
 21.370    552.000    558.356     -6.356    556.308    557.733    556.308    556.930    556.308
 21.470    539.000    558.158    -19.158    556.061    557.529    556.061    556.690    556.061
 21.570    594.676    557.965     36.711    555.810    557.329    555.810    556.446    555.810
 21.670    575.000    557.759     17.241    555.557    557.116    555.557    556.200    555.557
 21.770    529.000    557.548    -28.548    555.301    556.898    555.301    555.951    555.301
 21.870    555.000    557.337     -2.337    555.041    556.680    555.041    555.699    555.041
 21.970    571.000    557.124     13.876    554.779    556.460    554.779    555.444    554.779
 22.070    525.046    556.918    -31.872    554.513    556.245    554.513    555.186    554.513
 22.170    538.000    556.718    -18.718    554.245    556.038    554.245    554.925    554.245
 22.270    568.000    556.510     11.490    553.974    555.822    553.974    554.663    553.974
 22.370    569.710    556.306     13.404    553.700    555.609    553.700    554.397    553.700
 22.470    557.230    556.115      1.115    553.423    555.410    553.423    554.129    553.423
 22.570    546.770    555.920     -9.150    553.143    555.205    553.143    553.858    553.143
 22.670    536.000    555.728    -19.728    552.861    555.004    552.861    553.586    552.861
 22.770    531.000    555.544    -24.544    552.576    554.810    552.576    553.310    552.576
 22.870    551.031    555.369     -4.338    552.289    554.625    552.289    553.033    552.289
 22.970    551.000    555.205     -4.205    551.999    554.452    551.999    552.753    551.999
 23.070    556.000    555.057      0.943    551.706    554.292    551.706    552.471    551.706
 23.170    540.000    554.927    -14.927    551.411    554.151    551.411    552.188    551.411
 23.270    555.592    554.820      0.772    551.114    554.033    551.114    551.902    551.114
 23.370    561.000    554.744      6.256    550.814    553.945    550.814    551.614    550.814
 23.470    528.000    554.706    -26.706    550.512    553.895    550.512    551.324    550.512
 23.570    598.000    554.718     43.282    550.208    553.895    550.208    551.033    550.208
 23.670    568.000    554.799     13.201    549.901    553.963    549.901    550.739    549.901
 23.770    526.000    554.975    -28.975    549.592    554.125    549.592    550.445    549.592
 23.870    567.000    555.273     11.727    549.281    554.408    549.281    550.148    549.281
 23.970    555.000    555.760     -0.760    548.968    554.882    548.968    549.850    548.968
 24.070    558.401    556.572      1.829    548.653    555.678    548.653    549.551    548.653
 24.170    537.742    557.994    -20.251    548.336    557.085    548.336    549.250    548.336
 24.270    557.000    560.609     -3.609    548.017    559.685    548.017    548.948    548.017
 24.370    572.000    565.426      6.574    547.696    564.488    547.696    548.644    547.696
 24.470    600.000    573.766     26.234    547.372    572.815    547.372    548.340    547.372
 24.570    541.967    586.657    -44.689    547.048    585.696    547.048    548.035    547.048
 24.670    618.613    603.587     15.026    546.721    602.619    546.721    547.728    546.721
 24.770    621.000    620.619      0.381    546.392    619.642    546.392    547.421    546.392
 24.870    608.023    629.545    -21.522    546.062    628.552    546.062    547.114    546.062
 24.970    635.000    624.126     10.874    545.730    623.105    545.730    546.805    545.730
 25.070    567.445    608.235    -40.791    545.396    607.179    545.396    546.496    545.396
 25.170    588.025    590.275     -2.250    545.061    589.179    545.061    546.187    545.061
 25.270    575.000    575.494     -0.494    544.724    574.359    544.724    545.878    544.724
 25.370    594.000    565.295     28.705    544.385    564.124    544.385    545.569    544.385
 25.470    518.994    559.002    -40.008    544.045    557.796    544.045    545.260    544.045
 25.570    559.092    555.314      3.778    543.704    554.073    543.704    544.951    543.704
 25.670    554.539    553.103      1.436    543.361    551.827    543.361    544.642    543.361
 25.770    586.278    551.667     34.611    543.017    550.353    543.017    544.334    543.017
 25.870    570.000    550.640     19.360    542.671    549.286    542.671    544.027    542.671
 25.970    540.000    549.854     -9.854    542.324    548.458    542.324    543.721    542.324
 26.070    556.771    549.229      7.542    541.976    547.789    541.976    543.417    541.976
 26.170    565.000    548.724     16.276    541.626    547.238    541.626    543.114    541.626
 26.270    540.352    548.317     -7.964    541.275    546.781    541.275    542.813    541.275
 26.370    568.000    547.993     20.007    540.923    546.403    540.923    542.514    540.923
 26.470    624.000    547.745     76.255    540.570    546.099    540.570    542.217    540.570
 26.570    515.749    547.569    -31.821    540.216    545.862    540.216    541.923    540.216
 26.670    604.000    547.468     56.532    539.860    545.696    539.860    541.633    539.860
 26.770    564.000    547.447     16.553    539.504    545.606    539.504    541.346    539.504
 26.870    496.000    547.517    -51.517    539.146    545.600    539.146    541.063    539.146
 26.970    602.000    547.693     54.307    538.788    545.697    538.788    540.785    538.788
 27.070    640.000    548.000     92.000    538.428    545.917    538.428    540.512    538.428
 27.170    544.000    548.473     -4.473    538.068    546.297    538.068    540.244    538.068
 27.270    579.000    549.161     29.839    537.707    546.885    537.707    539.983    537.707
 27.370    599.000    550.145     48.855    537.345    547.761    537.345    539.728    537.345
 27.470    623.000    551.562     71.438    536.982    549.062    536.982    539.481    536.982
 27.570    568.000    553.740     14.260    536.618    551.115    536.618    539.242    536.618
 27.670    575.000    557.683     17.317    536.254    554.921    536.254    539.012    536.254
 27.770    563.000    566.430     -3.430    535.889    563.521    535.889    538.792    535.889
 27.870    604.000    587.384     16.616    535.523    584.311    535.523    538.581    535.523
 27.970    653.827    632.934     20.893    535.157    629.677    535.157    538.382    535.157
 28.070    700.448    713.286    -12.838    534.790    709.827    534.790    538.195    534.790
 28.170    854.000    819.233     34.767    534.422    815.560    534.422    538.019    534.422
 28.270    882.482    908.250    -25.768    534.054    904.369    534.054    537.855    534.054
 28.370    939.997    925.221     14.777    533.685    921.142    533.685    537.704    533.685
 28.470    896.000    862.012     33.988    533.316    857.729    533.316    537.564    533.316
 28.570    799.000    774.017     24.983    532.946    769.509    532.946    537.435    532.946
 28.670    708.000    719.677    -11.677    532.576    714.923    532.576    537.315    532.576
 28.770    765.000    720.406     44.594    532.205    715.393    532.205    537.201    532.205
 28.870    778.000    761.205     16.795    531.834    755.930    531.834    537.092    531.834
 28.970    862.013    803.446     58.567    531.463    797.917    531.463    536.982    531.463
 29.070    850.732    806.433     44.298    531.092    800.663    531.092    536.865    531.092
 29.170    787.000    760.394     26.606    530.720    754.389    530.720    536.737    530.720
 29.270    740.929    692.550     48.379    530.348    686.322    530.348    536.589    530.348
 29.370    649.125    632.440     16.685    529.975    626.010    529.975    536.414    529.975
 29.470    636.000    592.053     43.947    529.603    585.456    529.603    536.205    529.603
 29.570    596.000    569.667     26.333    529.230    562.944    529.230    535.955    529.230
 29.670    589.325    558.589     30.735    528.857    551.788    528.857    535.659    528.857
 29.770    557.351    553.080      4.271    528.484    546.251    528.484    535.314    528.484
 29.870    652.000    549.962    102.038    528.111    543.156    528.111    534.918    528.111
 29.970    504.987    547.903    -42.917    527.738    541.169    527.738    534.472    527.738
 30.070    521.563    546.433    -24.869    527.365    539.817    527.365    533.980    527.365
 30.170    564.000    545.416     18.584    526.992    538.958    526.992    533.448    526.992
 30.270    581.000    544.902     36.098    526.618    538.635    526.618    532.883    526.618
 30.370    555.000    545.174      9.826    526.245    539.125    526.245    532.292    526.245
 30.470    535.234    546.915    -11.681    525.872    541.100    525.872    531.682    525.872
 30.570    542.000    551.304     -9.304    525.499    545.733    525.499    531.061    525.499
 30.670    609.000    559.732     49.268    525.126    554.408    525.126    530.435    525.126
 30.770    575.383    572.810      2.574    524.754    567.729    524.754    529.809    524.754
 30.870    603.000    588.753     14.247    524.381    583.911    524.381    529.187    524.381
 30.970    670.000    602.032     67.968    524.009    597.426    524.009    528.573    524.009
 31.070    587.000    605.024    -18.024    523.637    600.651    523.637    527.969    523.637
 31.170    605.000    595.038      9.962    523.265    590.893    523.265    527.376    523.265
 31.270    591.000    578.064     12.936    522.893    574.138    522.893    526.796    522.893
 31.370    570.556    561.572      8.985    522.522    557.850    522.522    526.229    522.522
 31.470    560.000    549.260     10.740    522.151    545.728    522.151    525.675    522.151
 31.570    571.000    541.522     29.478    521.781    538.164    521.781    525.134    521.781
 31.670    536.000    537.164     -1.164    521.410    533.967    521.410    524.605    521.410
 31.770    565.000    534.779     30.221    521.040    531.729    521.040    524.088    521.040
 31.870    537.000    533.390      3.610    520.671    530.477    520.671    523.583    520.671
 31.970    528.000    532.493     -4.493    520.302    529.706    520.302    523.088    520.302
 32.070    588.000    531.874     56.126    519.934    529.204    519.934    522.603    519.934
 32.170    551.000    531.451     19.549    519.565    528.888    519.565    522.128    519.565
 32.270    567.000    531.194     35.806    519.198    528.729    519.198    521.662    519.198
 32.370    541.000    531.094      9.906    518.831    528.720    518.831    521.203    518.831
 32.470    561.349    531.156     30.193    518.464    528.867    518.464    520.753    518.464
 32.570    499.000    531.397    -32.397    518.099    529.186    518.099    520.309    518.099
 32.670    552.000    531.843     20.157    517.733    529.703    517.733    519.873    517.733
 32.770    542.000    532.536      9.464    517.369    530.461    517.369    519.442    517.369
 32.870    546.000    533.535     12.465    517.004    531.521    517.004    519.017    517.004
 32.970    528.000    534.929     -6.929    516.641    532.972    516.641    518.597    516.641
 33.070    540.000    536.855      3.145    516.278    534.950    516.278    518.183    516.278
 33.170    584.000    539.550     44.450    515.916    537.692    515.916    517.773    515.916
 33.270    589.000    543.498     45.502    515.555    541.683    515.555    517.367    515.555
 33.370    530.158    549.781    -19.623    515.194    548.006    515.194    516.966    515.194
 33.470    587.896    560.780     27.116    514.835    559.040    514.835    516.568    514.835
 33.570    532.139    581.075    -48.936    514.476    579.366    514.476    516.174    514.476
 33.670    647.979    617.753     30.226    514.117    616.070    514.117    515.784    514.117
 33.770    671.452    678.567     -7.115    513.760    676.905    513.760    515.396    513.760
 33.870    728.000    766.814    -38.814    513.403    765.171    513.403    515.012    513.403
 33.970    901.000    873.476     27.524    513.048    871.853    513.048    514.631    513.048
 34.070    934.000    969.100    -35.100    512.693    967.506    512.693    514.253    512.693
 34.170    963.999   1006.920    -42.921    512.339   1005.362    512.339    513.877    512.339
 34.270    974.000    961.316     12.684    511.986    959.793    511.986    513.504    511.986
 34.370    827.000    861.685    -34.685    511.634    860.187    511.634    513.134    511.634
 34.470    808.487    754.795     53.692    511.283    753.316    511.283    512.765    511.283
 34.570    648.000    668.126    -20.126    510.932    666.662    510.932    512.400    510.932
 34.670    609.395    609.092      0.302    510.583    607.641    510.583    512.036    510.583
 34.770    560.910    573.604    -12.694    510.235    572.165    510.235    511.675    510.235
 34.870    522.000    553.750    -31.750    509.888    552.322    509.888    511.316    509.888
 34.970    545.000    542.617      2.383    509.541    541.200    509.541    510.959    509.541
 35.070    573.410    535.861     37.550    509.196    534.453    509.196    510.604    509.196
 35.170    507.000    531.269    -24.269    508.852    529.870    508.852    510.251    508.852
 35.270    519.000    527.846     -8.846    508.509    526.455    508.509    509.900    508.509
 35.370    529.609    525.148      4.461    508.167    523.764    508.167    509.551    508.167
 35.470    531.227    522.950      8.277    507.827    521.572    507.827    509.204    507.827
 35.570    532.000    521.120     10.880    507.487    519.748    507.487    508.859    507.487
 35.670    516.000    519.571     -3.571    507.149    518.203    507.149    508.516    507.149
 35.770    506.000    518.239    -12.239    506.811    516.875    506.811    508.175    506.811
 35.870    513.000    517.078     -4.078    506.475    515.718    506.475    507.835    506.475
 35.970    517.000    516.056      0.944    506.140    514.699    506.140    507.498    506.140
 36.070    536.349    515.147     21.201    505.806    513.792    505.806    507.162    505.806
 36.170    502.377    514.332    -11.956    505.474    512.979    505.474    506.828    505.474
 36.270    478.000    513.597    -35.597    505.143    512.244    505.143    506.496    505.143
 36.370    494.000    512.931    -18.931    504.812    511.579    504.812    506.165    504.812
 36.470    489.000    512.327    -23.327    504.484    510.974    504.484    505.837    504.484
 36.570    476.000    511.779    -35.779    504.156    510.426    504.156    505.510    504.156
 36.670    479.000    511.288    -32.288    503.830    509.933    503.830    505.185    503.830
 36.770    467.000    510.854    -43.854    503.505    509.498    503.505    504.862    503.505
 36.870    551.846    510.491     41.355    503.182    509.133    503.182    504.540    503.182
 36.970    521.000    510.226     10.774    502.859    508.865    502.859    504.221    502.859
 37.070    472.000    510.118    -38.118    502.538    508.754    502.538    503.903    502.538
 37.170    500.000    510.271    -10.271    502.219    508.904    502.219    503.587    502.219
 37.270    497.701    510.840    -13.138    501.901    509.469    501.901    503.273    501.901
 37.370    470.196    511.997    -41.801    501.584    510.622    501.584    502.960    501.584
 37.470    545.000    513.857     31.143    501.269    512.478    501.269    502.650    501.269
 37.570    537.324    516.337     20.987    500.955    514.953    500.955    502.341    500.955
 37.670    509.642    518.987     -9.345    500.642    517.599    500.642    502.034    500.642
 37.770    554.131    520.901     33.230    500.331    519.508    500.331    501.729    500.331
 37.870    537.000    521.120     15.880    500.021    519.722    500.021    501.426    500.021
 37.970    532.587    519.476     13.111    499.713    518.073    499.713    501.125    499.713
 38.070    514.000    516.716     -2.716    499.406    515.308    499.406    500.825    499.406
 38.170    518.585    513.674      4.911    499.101    512.258    499.101    500.528    499.101
 38.270    492.000    510.835    -18.835    498.797    509.410    498.797    500.232    498.797
 38.370    525.000    508.464     16.536    498.495    507.028    498.495    499.938    498.495
 38.470    528.660    506.648     22.012    498.194    505.202    498.194    499.646    498.194
 38.570    500.000    505.328     -5.328    497.895    503.870    497.895    499.356    497.895
 38.670    547.973    504.378     43.595    497.597    502.910    497.597    499.068    497.597
 38.770    476.315    503.678    -27.363    497.301    502.199    497.301    498.782    497.301
 38.870    546.000    503.133     42.867    497.007    501.643    497.007    498.498    497.007
 38.970    463.000    502.681    -39.681    496.714    501.180    496.714    498.216    496.714
 39.070    485.748    502.286    -16.538    496.422    500.774    496.422    497.936    496.422
 39.170    472.000    501.928    -29.928    496.132    500.404    496.132    497.658    496.132
 39.270    485.000    501.597    -16.597    495.844    500.060    495.844    497.381    495.844
 39.370    516.000    501.286     14.714    495.557    499.737    495.557    497.107    495.557
 39.470    472.000    500.992    -28.992    495.272    499.430    495.272    496.835    495.272
 39.570    496.467    500.714     -4.247    494.989    499.138    494.989    496.565    494.989
 39.670    510.124    500.449      9.675    494.707    498.859    494.707    496.297    494.707
 39.770    492.000    500.197     -8.197    494.427    498.593    494.427    496.032    494.427
 39.870    494.000    499.957     -5.957    494.148    498.338    494.148    495.768    494.148
 39.970    467.257    499.729    -32.472    493.871    498.095    493.871    495.506    493.871
 40.070    480.000    499.514    -19.514    493.596    497.864    493.596    495.247    493.596
 40.170    486.000    499.311    -13.311    493.322    497.645    493.322    494.990    493.322
 40.270    543.587    499.121     44.466    493.050    497.438    493.050    494.735    493.050
 40.370    540.285    498.945     41.341    492.780    497.244    492.780    494.482    492.780
 40.470    518.000    498.779     19.221    492.512    497.061    492.512    494.231    492.512
 40.570    549.000    498.635     50.365    492.245    496.899    492.245    493.983    492.245
 40.670    522.268    498.511     23.757    491.980    496.755    491.980    493.737    491.980
 40.770    496.000    498.408     -2.408    491.716    496.632    491.716    493.493    491.716
 40.870    470.000    498.330    -28.330    491.455    496.534    491.455    493.252    491.455
 40.970    469.000    498.280    -29.280    491.195    496.464    491.195    493.012    491.195
 41.070    470.000    498.265    -28.265    490.936    496.427    490.936    492.776    490.936
 41.170    500.408    498.291      2.117    490.680    496.431    490.680    492.542    490.680
 41.270    497.000    498.367     -1.367    490.425    496.484    490.425    492.310    490.425
 41.370    515.000    498.505     16.495    490.172    496.599    490.172    492.080    490.172
 41.470    489.896    498.723     -8.826    489.921    496.792    489.921    491.854    489.921
 41.570    470.345    499.045    -28.700    489.671    497.090    489.671    491.629    489.671
 41.670    506.204    499.514      6.689    489.424    497.533    489.424    491.408    489.424
 41.770    501.000    500.210      0.790    489.178    498.202    489.178    491.188    489.178
 41.870    516.000    501.290     14.710    488.933    499.255    488.933    490.972    488.933
 41.970    505.312    503.068      2.244    488.691    501.005    488.691    490.758    488.691
 42.070    475.024    506.107    -31.083    488.450    504.016    488.450    490.547    488.450
 42.170    499.000    511.289    -12.289    488.212    509.170    488.212    490.339    488.212
 42.270    490.000    519.739    -29.739    487.975    517.593    487.975    490.133    487.975
 42.370    488.000    532.491    -44.491    487.739    530.318    487.739    489.931    487.739
 42.470    549.000    549.842     -0.842    487.506    547.645    487.506    489.731    487.506
 42.570    585.269    570.486     14.783    487.274    568.265    487.274    489.534    487.274
 42.670    570.000    590.586    -20.586    487.045    588.341    487.045    489.341    487.045
 42.770    616.973    603.741     13.232    486.817    601.468    486.817    489.150    486.817
 42.870    576.000    604.084    -28.084    486.590    601.775    486.590    488.963    486.590
 42.970    596.000    591.357      4.643    486.366    589.003    486.366    488.779    486.366
 43.070    579.474    571.203      8.271    486.144    568.796    486.144    488.598    486.144
 43.170    502.000    550.155    -48.155    485.923    547.693    485.923    488.420    485.923
 43.270    517.479    532.245    -14.766    485.704    529.728    485.704    488.246    485.704
 43.370    563.962    518.915     45.046    485.487    516.344    485.487    488.075    485.487
 43.470    510.000    509.942      0.058    485.272    507.317    485.272    487.909    485.272
 43.570    480.000    504.317    -24.317    485.059    501.638    485.059    487.745    485.059
 43.670    483.000    500.906    -17.906    484.847    498.172    484.847    487.586    484.847
 43.770    504.000    498.805      5.195    484.638    496.016    484.638    487.431    484.638
 43.870    537.564    497.431     40.133    484.430    494.585    484.430    487.279    484.430
 43.970    504.000    496.460      7.540    484.224    493.555    484.224    487.132    484.224
 44.070    461.000    495.726    -34.726    484.020    492.759    484.020    486.989    484.020
 44.170    469.000    495.146    -26.146    483.818    492.115    483.818    486.851    483.818
 44.270    520.000    494.678     25.322    483.617    491.580    483.617    486.717    483.617
 44.370    488.692    494.296     -5.604    483.419    491.128    483.419    486.589    483.419
 44.470    451.242    493.982    -42.740    483.222    490.741    483.222    486.465    483.222
 44.570    482.000    493.726    -11.726    483.027    490.409    483.027    486.346    483.027
 44.670    524.000    493.518     30.482    482.835    490.121    482.835    486.233    482.835
 44.770    490.000    493.352     -3.352    482.644    489.872    482.644    486.125    482.644
 44.870    500.000    493.224      6.776    482.454    489.656    482.454    486.024    482.454
 44.970    486.000    493.129     -7.129    482.267    489.469    482.267    485.928    482.267
 45.070    505.000    493.066     11.934    482.082    489.310    482.082    485.840    482.082
 45.170    485.000    493.033     -8.033    481.898    489.175    481.898    485.757    481.898
 45.270    502.000    493.029      8.971    481.717    489.064    481.717    485.683    481.717
 45.370    535.000    493.054     41.946    481.537    488.976    481.537    485.615    481.537
 45.470    480.661    493.107    -12.446    481.359    488.910    481.359    485.556    481.359
 45.570    486.000    493.189     -7.189    481.183    488.867    481.183    485.506    481.183
 45.670    496.025    493.302      2.723    481.009    488.847    481.009    485.464    481.009
 45.770    453.000    493.446    -40.446    480.836    488.851    480.836    485.432    480.836
 45.870    481.324    493.625    -12.301    480.666    488.881    480.666    485.410    480.666
 45.970    495.000    493.840      1.160    480.497    488.938    480.497    485.400    480.497
 46.070    513.000    494.095     18.905    480.331    489.026    480.331    485.401    480.331
 46.170    471.000    494.395    -23.395    480.166    489.147    480.166    485.414    480.166
 46.270    524.000    494.745     29.255    480.003    489.307    480.003    485.441    480.003
 46.370    505.000    495.150      9.850    479.842    489.510    479.842    485.482    479.842
 46.470    519.000    495.621     23.379    479.683    489.765    479.683    485.539    479.683
 46.570    474.000    496.168    -22.168    479.525    490.081    479.525    485.613    479.525
 46.670    461.045    496.808    -35.763    479.370    490.473    479.370    485.705    479.370
 46.770    475.152    497.564    -22.412    479.216    490.964    479.216    485.816    479.216
 46.870    509.000    498.479     10.521    479.064    491.595    479.064    485.948    479.064
 46.970    490.000    499.632     -9.632    478.915    492.443    478.915    486.102    478.915
 47.070    464.000    501.169    -37.169    478.767    493.652    478.767    486.282    478.767
 47.170    524.299    503.345     20.954    478.620    495.475    478.620    486.487    478.620
 47.270    499.000    506.565     -7.565    478.476    498.314    478.476    486.721    478.476
 47.370    510.386    511.373     -0.987    478.334    502.713    478.334    486.986    478.334
 47.470    548.000    518.364     29.636    478.193    509.260    478.193    487.284    478.193
 47.570    523.000    527.956     -4.956    478.054    518.374    478.054    487.617    478.054
 47.670    554.000    540.070     13.930    477.917    529.973    477.917    487.988    477.917
 47.770    569.771    553.737     16.034    477.782    543.085    477.782    488.399    477.782
 47.870    589.000    566.729     22.271    477.649    555.483    477.649    488.852    477.649
 47.970    585.288    575.694      9.594    477.518    563.814    477.518    489.351    477.518
 48.070    568.000    577.676     -9.676    477.388    565.121    477.388    489.896    477.388
 48.170    560.000    572.445    -12.445    477.260    559.174    477.260    490.490    477.260
 48.270    581.000    562.748     18.252    477.134    548.718    477.134    491.133    477.134
 48.370    537.000    552.077    -15.077    477.010    537.240    477.010    491.824    477.010
 48.470    554.000    542.885     11.115    476.888    527.195    476.888    492.563    476.888
 48.570    527.306    536.339     -9.033    476.768    519.751    476.768    493.345    476.768
 48.670    572.716    532.667     40.050    476.649    515.145    476.649    494.166    476.649
 48.770    552.000    531.562     20.438    476.532    513.076    476.532    495.016    476.532
 48.870    491.960    532.527    -40.567    476.417    513.059    476.417    495.884    476.417
 48.970    548.000    535.124     12.876    476.304    514.674    476.304    496.755    476.304
 49.070    570.000    539.125     30.875    476.193    517.711    476.193    497.608    476.193
 49.170    588.000    544.652     43.348    476.083    522.316    476.083    498.420    476.083
 49.270    595.990    552.457     43.533    475.975    529.268    475.975    499.165    475.975
 49.370    606.270    564.603     41.667    475.869    540.657    475.869    499.813    475.869
 49.470    541.474    585.900    -44.426    475.765    561.322    475.765    500.337    475.765
 49.570    626.000    626.030     -0.030    475.663    600.966    475.663    500.709    475.663
 49.670    717.000    701.423     15.577    475.562    676.038    475.562    500.910    475.562
 49.770    822.743    834.411    -11.668    475.463    808.883    475.463    500.927    475.463
 49.870   1033.000   1046.477    -13.477    475.366   1020.992    475.366    500.757    475.366
 49.970   1312.000   1344.498    -32.498    475.271   1319.245    475.271    500.405    475.271
 50.070   1680.000   1704.118    -24.118    475.177   1679.288    475.177    499.889    475.177
 50.170   2065.971   2059.231      6.740    475.085   2035.011    475.085    499.230    475.085
 50.270   2363.088   2309.507     53.581    474.995   2286.056    474.995    498.457    474.995
 50.370   2382.000   2360.946     21.054    474.907   2338.369    474.907    497.597    474.907
 50.470   2205.000   2190.861     14.139    474.820   2169.187    474.820    496.681    474.820
 50.570   1898.000   1869.176     28.824    474.736   1848.390    474.736    495.732    474.736
 50.670   1456.000   1502.744    -46.744    474.652   1482.813    474.652    494.775    474.652
 50.770   1152.913   1176.304    -23.391    474.571   1157.200    474.571    493.826    474.571
 50.870    985.331    932.263     53.068    474.491    913.962    474.491    492.902    474.491
 50.970    743.173    775.160    -31.987    474.413    757.638    474.413    492.011    474.413
 51.070    659.000    686.732    -27.732    474.337    669.962    474.337    491.163    474.337
 51.170    669.000    641.775     27.225    474.262    625.723    474.262    490.361    474.262
 51.270    620.000    618.522      1.478    474.189    603.143    474.189    489.609    474.189
 51.370    578.380    602.960    -24.579    474.118    588.207    474.118    488.908    474.118
 51.470    599.000    588.910     10.090    474.049    574.732    474.049    488.258    474.049
 51.570    574.859    575.286     -0.428    473.981    561.636    473.981    487.659    473.981
 51.670    585.000    562.877     22.123    473.915    549.706    473.915    487.107    473.915
 51.770    505.539    552.530    -46.990    473.850    539.793    473.850    486.603    473.850
 51.870    531.000    544.643    -13.643    473.787    532.300    473.787    486.144    473.787
 51.970    561.000    539.196     21.804    473.726    527.206    473.726    485.727    473.726
 52.070    570.000    535.907     34.093    473.666    524.232    473.666    485.350    473.666
 52.170    506.468    534.417    -27.949    473.608    523.022    473.608    485.011    473.608
 52.270    548.000    534.441     13.559    473.552    523.291    473.552    484.709    473.552
 52.370    534.000    535.871     -1.871    473.497    524.935    473.497    484.440    473.497
 52.470    593.000    538.875     54.125    473.444    528.121    473.444    484.204    473.444
 52.570    612.000    544.025     67.975    473.393    533.426    473.393    483.997    473.393
 52.670    587.000    552.503     34.497    473.343    542.032    473.343    483.820    473.343
 52.770    527.878    566.362    -38.484    473.295    555.992    473.295    483.670    473.295
 52.870    555.622    588.694    -33.072    473.248    578.402    473.248    483.546    473.248
 52.970    646.000    623.482     22.518    473.203    613.243    473.203    483.447    473.203
 53.070    640.098    674.896    -34.798    473.159    664.690    473.159    483.372    473.159
 53.170    758.643    745.884     12.758    473.117    735.690    473.117    483.321    473.117
 53.270    890.279    836.196     54.083    473.077    825.994    473.077    483.292    473.077
 53.370    923.000    940.155    -17.155    473.038    929.927    473.038    483.284    473.038
 53.470    987.830   1044.427    -56.598    473.000   1034.154    473.000    483.299    473.000
 53.570   1173.000   1127.006     45.994    472.964   1116.671    472.964    483.335    472.964
 53.670   1148.000   1162.499    -14.499    472.930   1152.083    472.930    483.391    472.930
 53.770   1177.556   1137.563     39.993    472.897   1127.045    472.897    483.469    472.897
 53.870   1083.458   1062.279     21.180    472.866   1051.632    472.866    483.568    472.866
 53.970    993.000    961.124     31.876    472.836    950.324    472.836    483.689    472.836
 54.070    830.000    857.118    -27.118    472.808    846.140    472.808    483.831    472.808
 54.170    774.000    765.036      8.964    472.781    753.858    472.781    483.995    472.781
 54.270    694.000    691.728      2.272    472.755    680.329    472.755    484.182    472.755
 54.370    665.546    638.228     27.318    472.731    626.588    472.731    484.393    472.731
 54.470    631.000    602.005     28.995    472.709    590.103    472.709    484.627    472.709
 54.570    566.406    579.000    -12.593    472.688    566.812    472.688    484.888    472.688
 54.670    566.000    565.144      0.856    472.668    552.647    472.668    485.174    472.668
 54.770    525.576    557.185    -31.610    472.650    544.355    472.650    485.489    472.650
 54.870    561.000    552.900      8.100    472.633    539.708    472.633    485.833    472.633
 54.970    592.000    550.945     41.055    472.618    537.361    472.618    486.208    472.618
 55.070    579.000    550.588     28.412    472.604    536.583    472.604    486.616    472.604
 55.170    544.667    551.479     -6.811    472.592    537.017    472.592    487.060    472.592
 55.270    538.000    553.477    -15.477    472.580    538.523    472.580    487.541    472.580
 55.370    544.177    556.577    -12.400    472.571    541.092    472.571    488.062    472.571
 55.470    562.000    560.877      1.123    472.562    544.819    472.562    488.626    472.562
 55.570    526.617    566.604    -39.987    472.555    549.929    472.555    489.237    472.555
 55.670    630.000    574.214     55.786    472.549    556.873    472.549    489.898    472.549
 55.770    579.000    584.602     -5.602    472.545    566.542    472.545    490.612    472.545
 55.870    604.000    599.494      4.506    472.542    580.658    472.542    491.384    472.542
 55.970    616.000    622.058     -6.058    472.540    602.384    472.540    492.218    472.540
 56.070    659.000    657.688      1.312    472.540    637.109    472.540    493.120    472.540
 56.170    700.000    714.653    -14.653    472.541    693.096    472.541    494.094    472.541
 56.270    748.000    804.066    -56.066    472.543    781.452    472.543    495.147    472.543
 56.370    896.000    938.406    -42.406    472.546    914.653    472.546    496.283    472.546
 56.470   1112.224   1128.064    -15.840    472.551   1103.086    472.551    497.510    472.551
 56.570   1307.842   1376.104    -68.262    472.557   1349.813    472.557    498.835    472.557
 56.670   1571.000   1672.279   -101.279    472.564   1644.586    472.564    500.265    472.564
 56.770   1948.000   1987.740    -39.740    472.572   1958.555    472.572    501.806    472.572
 56.870   2260.000   2272.427    -12.427    472.582   2241.652    472.582    503.467    472.582
 56.970   2483.000   2461.070     21.930    472.593   2428.597    472.593    505.255    472.593
 57.070   2469.000   2497.471    -28.471    472.605   2463.161    472.605    507.177    472.605
 57.170   2352.000   2369.686    -17.686    472.618   2333.367    472.618    509.242    472.618
 57.270   2158.028   2119.749     38.280    472.633   2081.233    472.633    511.455    472.633
 57.370   1792.121   1814.167    -22.046    472.648   1773.270    472.648    513.821    472.648
 57.470   1530.000   1511.048     18.952    472.665   1467.597    472.665    516.345    472.665
 57.570   1286.878   1247.681     39.197    472.683   1201.513    472.683    519.029    472.683
 57.670   1037.579   1041.198     -3.618    472.702    992.159    472.702    521.870    472.702
 57.770    834.000    893.301    -59.301    472.722    841.250    472.722    524.863    472.722
 57.870    741.281    796.266    -54.984    472.744    741.074    472.744    527.997    472.744
 57.970    723.000    738.813    -15.813    472.766    680.366    472.766    531.254    472.766
 58.070    710.000    710.534     -0.534    472.790    648.742    472.790    534.608    472.790
 58.170    685.634    704.205    -18.571    472.814    639.011    472.814    538.023    472.814
 58.270    675.788    716.141    -40.352    472.840    647.532    472.840    541.454    472.840
 58.370    755.000    745.205      9.795    472.867    673.225    472.867    544.844    472.867
 58.470    839.792    791.170     48.622    472.895    715.930    472.895    548.123    472.895
 58.570    820.855    852.982    -32.127    472.924    774.676    472.924    551.214    472.924
 58.670    965.991    927.297     38.694    472.953    846.203    472.953    554.031    472.953
 58.770   1063.348   1007.637     55.711    472.984    924.123    472.984    556.487    472.984
 58.870   1094.000   1085.155      8.845    473.016    999.674    473.016    558.498    473.016
 58.970   1115.000   1151.624    -36.624    473.049   1064.701    473.049    559.987    473.049
 59.070   1228.000   1201.455     26.545    473.083   1113.672    473.083    560.898    473.083
 59.170   1268.000   1230.020     37.980    473.118   1141.992    473.118    561.192    473.118
 59.270   1204.708   1233.295    -28.587    473.154   1145.644    473.154    560.861    473.154
 59.370   1232.000   1212.534     19.466    473.191   1125.861    473.191    559.920    473.191
 59.470   1243.858   1177.448     66.409    473.229   1092.308    473.229    558.412    473.229
 59.570   1132.608   1141.992     -9.384    473.268   1058.877    473.268    556.399    473.268
 59.670   1136.000   1118.540     17.460    473.307   1037.870    473.307    553.960    473.307
 59.770   1108.785   1116.237     -7.452    473.348   1038.347    473.348    551.180    473.348
 59.870   1179.214   1141.622     37.592    473.389   1066.762    473.389    548.148    473.389
 59.970   1231.000   1197.614     33.386    473.432   1125.953    473.432    544.947    473.432
 60.070   1301.717   1280.269     21.448    473.475   1211.905    473.475    541.653    473.475
 60.170   1321.000   1376.167    -55.167    473.519   1311.139    473.519    538.333    473.519
 60.270   1541.000   1462.573     78.427    473.564   1400.871    473.564    535.041    473.564
 60.370   1540.000   1511.804     28.196    473.610   1453.383    473.610    531.821    473.610
 60.470   1451.773   1501.659    -49.886    473.656   1446.435    473.656    528.705    473.656
 60.570   1493.000   1427.787     65.213    473.704   1375.641    473.704    525.719    473.704
 60.670   1365.000   1306.083     58.917    473.752   1256.871    473.752    522.877    473.752
 60.770   1189.000   1162.180     26.820    473.801   1115.740    473.801    520.189    473.801
 60.870    969.879   1019.754    -49.875    473.851    975.917    473.851    517.659    473.851
 60.970    889.125    895.256     -6.132    473.901    853.854    473.901    515.289    473.901
 61.070    824.000    797.317     26.683    473.953    758.188    473.953    513.075    473.953
 61.170    722.000    728.222     -6.222    474.005    691.208    474.005    511.012    474.005
 61.270    667.000    686.374    -19.374    474.057    651.328    474.057    509.094    474.057
 61.370    696.000    668.967     27.033    474.111    635.749    474.111    507.313    474.111
 61.470    690.000    674.038     15.962    474.165    642.516    474.165    505.660    474.165
 61.570    723.000    701.356     21.644    474.220    671.407    474.220    504.128    474.220
 61.670    724.000    752.003    -28.003    474.276    723.512    474.276    502.708    474.276
 61.770    792.000    826.875    -34.875    474.332    799.738    474.332    501.390    474.332
 61.870    848.000    924.594    -76.594    474.389    898.716    474.389    500.167    474.389
 61.970   1079.960   1039.432     40.528    474.447   1014.731    474.447    499.031    474.447
 62.070   1163.585   1159.806      3.779    474.505   1136.210    474.505    497.975    474.505
 62.170   1317.000   1267.852     49.148    474.564   1245.302    474.564    496.992    474.564
 62.270   1410.925   1341.452     69.474    474.623   1319.894    474.623    496.076    474.623
 62.370   1382.365   1361.094     21.271    474.683   1340.479    474.683    495.222    474.683
 62.470   1300.000   1320.302    -20.302    474.744   1300.575    474.744    494.425    474.744
 62.570   1183.000   1230.136    -47.136    474.805   1211.240    474.805    493.681    474.805
 62.670   1088.846   1111.992    -23.146    474.867   1093.870    474.867    492.987    474.867
 62.770    983.000    987.211     -4.211    474.929    969.809    474.929    492.340    474.929
 62.870    929.976    871.666     58.310    474.992    854.935    474.992    491.735    474.992
 62.970    795.821    774.690     21.131    475.055    758.586    475.055    491.172    475.055
 63.070    691.000    699.768     -8.768    475.119    684.250    475.119    490.647    475.119
 63.170    626.000    646.066    -20.066    475.184    631.098    475.184    490.158    475.184
 63.270    573.821    610.158    -36.337    475.249    595.706    475.249    489.704    475.249
 63.370    588.000    587.801      0.199    475.314    573.833    475.314    489.282    475.314
 63.470    575.000    575.171     -0.171    475.380    561.659    475.380    488.890    475.380
 63.570    626.000    569.532     56.468    475.446    556.447    475.446    488.527    475.446
 63.670    617.577    569.434     48.144    475.513    556.749    475.513    488.190    475.513
 63.770    580.000    574.627      5.373    475.580    562.316    475.580    487.879    475.580
 63.870    547.489    585.835    -38.346    475.647    573.873    475.647    487.592    475.647
 63.970    618.000    604.430     13.570    475.715    592.794    475.715    487.328    475.715
 64.070    680.000    632.008     47.992    475.784    620.673    475.784    487.084    475.784
 64.170    662.291    669.830     -7.539    475.852    658.776    475.852    486.861    475.852
 64.270    721.000    718.180      2.820    475.921    707.386    475.921    486.656    475.921
 64.370    789.681    775.671     14.010    475.991    765.119    475.991    486.469    475.991
 64.470    894.924    838.615     56.309    476.060    828.291    476.060    486.299    476.060
 64.570    863.114    900.591    -37.477    476.130    890.484    476.130    486.145    476.130
 64.670    937.000    952.726    -15.726    476.201    942.827    476.201    486.006    476.201
 64.770   1010.000    985.701     24.299    476.271    976.004    476.271    485.881    476.271
 64.870    982.000    993.459    -11.459    476.342    983.958    476.342    485.769    476.342
 64.970    951.486    975.886    -24.400    476.414    966.573    476.414    485.670    476.414
 65.070    998.000    938.183     59.817    476.485    929.048    476.485    485.584    476.485
 65.170    910.729    888.303     22.426    476.557    879.335    476.557    485.510    476.557
 65.270    828.339    834.324     -5.985    476.629    825.510    476.629    485.446    476.629
 65.370    759.000    782.470    -23.470    476.701    773.794    476.701    485.394    476.701
 65.470    733.021    736.258     -3.237    476.773    727.706    476.773    485.352    476.773
 65.570    646.000    696.797    -50.797    476.846    688.356    476.846    485.320    476.846
 65.670    666.773    663.828      2.945    476.919    655.483    476.919    485.297    476.919
 65.770    617.000    636.744    -19.744    476.992    628.483    476.992    485.284    476.992
 65.870    618.000    614.986      3.014    477.065    606.798    477.065    485.280    477.065
 65.970    604.895    597.992      6.903    477.138    589.867    477.138    485.285    477.138
 66.070    566.000    585.146    -19.146    477.211    577.076    477.211    485.298    477.211
 66.170    581.000    575.845      5.155    477.285    567.823    477.285    485.320    477.285
 66.270    589.000    569.570     19.430    477.358    561.588    477.358    485.350    477.358
 66.370    553.000    565.912    -12.912    477.432    557.963    477.432    485.389    477.432
 66.470    543.000    564.575    -21.575    477.506    556.652    477.506    485.435    477.506
 66.570    556.557    565.390     -8.832    477.579    557.486    477.579    485.490    477.579
 66.670    577.000    568.374      8.626    477.653    560.481    477.653    485.553    477.653
 66.770    548.539    573.840    -25.301    477.727    565.951    477.727    485.623    477.727
 66.870    614.887    582.571     32.316    477.801    574.679    477.801    485.702    477.801
 66.970    610.051    596.055     13.997    477.875    588.150    477.875    485.789    477.875
 67.070    627.475    616.763     10.713    477.949    608.837    477.949    485.884    477.949
 67.170    685.215    648.417     36.798    478.023    640.462    478.023    485.988    478.023
 67.270    681.000    696.104    -15.104    478.097    688.112    478.097    486.100    478.097
 67.370    789.000    766.055     22.945    478.171    758.018    478.171    486.221    478.171
 67.470    796.000    864.903    -68.903    478.245    856.815    478.245    486.350    478.245
 67.570   1021.628    998.317     23.311    478.319    990.171    478.319    486.489    478.319
 67.670   1117.131   1169.085    -51.954    478.392   1160.879    478.392    486.637    478.392
 67.770   1322.746   1374.971    -52.225    478.466   1366.703    478.466    486.795    478.466
 67.870   1566.000   1606.720    -40.720    478.539   1598.391    478.539    486.964    478.539
 67.970   1900.846   1846.568     54.278    478.613   1838.177    478.613    487.143    478.613
 68.070   2144.887   2067.701     77.186    478.686   2059.248    478.686    487.333    478.686
 68.170   2217.000   2236.275    -19.275    478.759   2227.755    478.759    487.535    478.759
 68.270   2376.000   2319.128     56.872    478.832   2310.529    478.832    487.749    478.832
 68.370   2271.144   2297.315    -26.171    478.905   2288.610    478.905    487.976    478.905
 68.470   2156.706   2176.295    -19.589    478.978   2167.445    478.978    488.218    478.978
 68.570   2043.000   1982.633     60.367    479.050   1973.593    479.050    488.474    479.050
 68.670   1889.000   1750.942    138.058    479.123   1741.672    479.123    488.746    479.123
 68.770   1583.000   1512.562     70.438    479.195   1503.029    479.195    489.035    479.195
 68.870   1339.000   1290.597     48.403    479.267   1280.776    479.267    489.343    479.267
 68.970   1092.000   1099.189     -7.189    479.338   1089.059    479.338    489.670    479.338
 69.070   1014.000    944.505     69.495    479.410    934.049    479.410    490.019    479.410
 69.170    808.000    826.468    -18.468    479.481    815.672    479.481    490.391    479.481
 69.270    766.000    740.865     25.135    479.552    729.711    479.552    490.788    479.552
 69.370    638.818    681.440    -42.622    479.622    669.909    479.622    491.212    479.622
 69.470    663.000    641.600     21.400    479.692    629.668    479.692    491.667    479.692
 69.570    618.000    615.515      2.485    479.762    603.154    479.762    492.154    479.762
 69.670    564.849    598.621    -33.772    479.832    585.799    479.832    492.677    479.832
 69.770    555.000    587.672    -32.672    479.901    574.353    479.901    493.239    479.901
 69.870    559.000    580.536    -21.536    479.970    566.676    479.970    493.845    479.970
 69.970    577.000    575.902      1.098    480.039    561.455    480.039    494.498    480.039
 70.070    623.000    573.015     49.985    480.107    557.929    480.107    495.204    480.107
 70.170    567.000    571.465     -4.465    480.175    555.683    480.175    495.966    480.175
 70.270    574.000    571.058      2.942    480.242    554.517    480.242    496.791    480.242
 70.370    607.716    571.745     35.971    480.309    554.376    480.309    497.686    480.309
 70.470    601.072    573.602     27.470    480.376    555.328    480.376    498.655    480.376
 70.570    554.000    576.853    -22.853    480.442    557.592    480.442    499.707    480.442
 70.670    620.984    581.934     39.050    480.508    561.596    480.508    500.848    480.508
 70.770    570.015    589.598    -19.584    480.573    568.084    480.573    502.087    480.573
 70.870    589.000    601.047    -12.047    480.638    578.250    480.638    503.432    480.638
 70.970    634.000    618.077     15.923    480.702    593.881    480.702    504.891    480.702
 71.070    650.000    643.193      6.807    480.766    617.473    480.766    506.472    480.766
 71.170    645.000    679.608    -34.608    480.829    652.229    480.829    508.185    480.829
 71.270    705.000    731.055    -26.055    480.892    701.876    480.892    510.037    480.892
 71.370    772.000    801.327    -29.327    480.954    770.198    480.954    512.035    480.954
 71.470    852.000    893.526    -41.526    481.016    860.289    481.016    514.187    481.016
 71.570    958.826   1009.066    -50.240    481.077    973.563    481.077    516.496    481.077
 71.670   1123.000   1146.597    -23.597    481.138   1108.668    481.138    518.965    481.138
 71.770   1259.748   1301.004    -41.256    481.198   1260.493    481.198    521.594    481.198
 71.870   1436.000   1462.646    -26.646    481.257   1419.403    481.257    524.376    481.257
 71.970   1557.000   1616.989    -59.989    481.316   1570.882    481.316    527.299    481.316
 72.070   1732.664   1745.221    -12.557    481.374   1696.139    481.374    530.345    481.374
 72.170   1763.000   1827.143    -64.143    481.432   1775.003    481.432    533.484    481.432
 72.270   1863.917   1847.283     16.634    481.489   1792.041    481.489    536.675    481.489
 72.370   1864.929   1801.817     63.112    481.545   1743.474    481.545    539.865    481.545
 72.470   1677.000   1700.622    -23.622    481.601   1639.241    481.601    542.985    481.601
 72.570   1575.000   1562.327     12.673    481.656   1498.052    481.656    545.954    481.656
 72.670   1492.000   1407.020     84.980    481.710   1340.088    481.710    548.678    481.710
 72.770   1247.000   1251.549     -4.549    481.764   1182.297    481.764    551.057    481.764
 72.870   1125.000   1107.952     17.048    481.817   1036.818    481.817    552.992    481.817
 72.970    996.461    983.484     12.978    481.869    910.998    481.869    554.393    481.869
 73.070    907.321    881.234     26.087    481.920    807.999    481.920    555.190    481.920
 73.170    821.000    801.036     19.964    481.971    727.694    481.971    555.343    481.971
 73.270    768.000    740.531     27.469    482.021    667.731    482.021    554.846    482.021
 73.370    651.440    696.222    -44.783    482.070    624.588    482.070    553.726    482.070
 73.470    656.000    664.363     -8.363    482.119    594.455    482.119    552.046    482.119
 73.570    597.336    641.556    -44.220    482.166    573.851    482.166    549.888    482.166
 73.670    669.000    625.066     43.934    482.213    559.945    482.213    547.351    482.213
 73.770    617.000    612.894      4.106    482.259    550.636    482.259    544.533    482.259
 73.870    566.874    603.695    -36.821    482.305    544.483    482.305    541.533    482.305
 73.970    581.000    596.627    -15.627    482.349    540.558    482.349    538.437    482.349
 74.070    560.070    591.185    -31.116    482.393    538.284    482.393    535.316    482.393
 74.170    547.143    587.061    -39.918    482.436    537.292    482.436    532.230    482.436
 74.270    598.864    584.028     14.836    482.477    537.310    482.477    529.224    482.477
 74.370    604.986    581.866     23.120    482.518    538.087    482.518    526.332    482.518
 74.470    582.238    580.317      1.921    482.559    539.340    482.559    523.574    482.559
 74.570    566.000    579.054    -13.054    482.598    540.728    482.598    520.967    482.598
 74.670    596.000    577.685     18.315    482.636    541.853    482.636    518.516    482.636
 74.770    606.331    575.806     30.525    482.674    542.305    482.674    516.225    482.674
 74.870    572.265    573.105     -0.840    482.710    541.774    482.710    514.092    482.710
 74.970    622.000    569.502     52.498    482.746    540.183    482.746    512.114    482.746
 75.070    611.000    565.192     45.808    482.781    537.735    482.781    510.283    482.781
 75.170    596.000    560.578     35.422    482.814    534.838    482.814    508.594    482.814
 75.270    559.464    556.145      3.319    482.847    531.987    482.847    507.038    482.847
 75.370    635.000    552.381     82.619    482.879    529.681    482.879    505.607    482.879
 75.470    509.874    549.760    -39.885    482.910    528.398    482.910    504.292    482.910
 75.570    613.000    548.737     64.263    482.940    528.607    482.940    503.084    482.940
 75.670    561.000    549.760     11.240    482.968    530.761    482.968    501.976    482.968
 75.770    558.706    553.251      5.455    482.996    535.289    482.996    500.959    482.996
 75.870    581.025    559.570     21.455    483.023    542.562    483.023    500.026    483.023
 75.970    590.294    568.964     21.330    483.049    552.832    483.049    499.169    483.049
 76.070    580.000    581.480     -1.480    483.074    566.152    483.074    498.383    483.074
 76.170    530.000    596.882    -66.882    483.097    582.294    483.097    497.659    483.097
 76.270    598.478    614.567    -16.089    483.120    600.660    483.120    496.994    483.120
 76.370    636.202    633.498      2.704    483.141    620.219    483.141    496.381    483.141
 76.470    618.457    652.160    -33.703    483.162    639.461    483.162    495.815    483.162
 76.570    664.000    668.585     -4.585    483.181    656.424    483.181    495.293    483.181
 76.670    652.820    680.540    -27.720    483.200    668.879    483.200    494.809    483.200
 76.770    672.000    686.003    -14.003    483.217    674.808    483.217    494.362    483.217
 76.870    668.639    683.854    -15.214    483.233    673.095    483.233    493.946    483.233
 76.970    664.000    674.347    -10.347    483.248    663.995    483.248    493.560    483.248
 77.070    680.000    658.991     21.009    483.262    649.020    483.262    493.200    483.262
 77.170    603.000    639.926    -36.926    483.274    630.310    483.274    492.864    483.274
 77.270    659.154    619.290     39.864    483.286    610.006    483.286    492.550    483.286
 77.370    578.000    598.855    -20.855    483.296    589.880    483.296    492.256    483.296
 77.470    574.000    579.909     -5.909    483.306    571.223    483.306    491.980    483.306
 77.570    569.304    563.264      6.041    483.314    554.849    483.314    491.721    483.314
 77.670    564.000    549.306     14.694    483.320    541.144    483.320    491.478    483.320
 77.770    541.000    538.077      2.923    483.326    530.152    483.326    491.248    483.326
 77.870    515.000    529.368    -14.368    483.331    521.666    483.331    491.031    483.331
 77.970    504.000    522.823    -18.823    483.334    515.330    483.334    490.826    483.334
 78.070    512.000    518.025     -6.025    483.336    510.729    483.336    490.632    483.336
 78.170    481.000    514.568    -33.568    483.337    507.457    483.337    490.448    483.337
 78.270    501.000    512.096    -11.096    483.336    505.160    483.336    490.273    483.336
 78.370    531.000    510.325     20.675    483.334    503.553    483.334    490.106    483.334
 78.470    547.000    509.043     37.957    483.332    502.427    483.332    489.948    483.332
 78.570    457.000    508.104    -51.104    483.327    501.635    483.327    489.797    483.327
 78.670    538.000    507.410     30.590    483.322    501.081    483.322    489.652    483.322
 78.770    483.661    506.906    -23.246    483.315    500.708    483.315    489.514    483.315
 78.870    508.000    506.561      1.439    483.307    500.487    483.307    489.382    483.307
 78.970    542.197    506.365     35.832    483.298    500.408    483.298    489.255    483.298
 79.070    534.591    506.320     28.271    483.287    500.474    483.287    489.134    483.287
 79.170    482.000    506.440    -24.440    483.275    500.699    483.275    489.017    483.275
 79.270    465.000    506.747    -41.747    483.262    501.105    483.262    488.904    483.262
 79.370    462.301    507.267    -44.966    483.248    501.719    483.248    488.796    483.248
 79.470    481.740    508.035    -26.295    483.232    502.576    483.232    488.691    483.232
 79.570    501.000    509.093     -8.093    483.214    503.718    483.214    488.589    483.214
 79.670    493.000    510.497    -17.497    483.196    505.201    483.196    488.491    483.196
 79.770    514.122    512.319      1.803    483.176    507.098    483.176    488.395    483.176
 79.870    513.000    514.658     -1.658    483.155    509.509    483.155    488.302    483.155
 79.970    494.384    517.648    -23.264    483.132    512.566    483.132    488.212    483.132
 80.070    490.000    521.461    -31.461    483.108    516.443    483.108    488.123    483.108
 80.170    538.000    526.315     11.685    483.083    521.358    483.083    488.037    483.083
 80.270    488.000    532.473    -44.473    483.056    527.576    483.056    487.951    483.056
 80.370    527.000    540.231    -13.231    483.028    535.391    483.028    487.867    483.028
 80.470    514.000    549.918    -35.918    482.999    545.133    482.999    487.784    482.999
 80.570    510.000    561.875    -51.875    482.968    557.144    482.968    487.702    482.968
 80.670    576.000    576.238     -0.238    482.935    571.559    482.935    487.621    482.935
 80.770    553.000    592.949    -39.949    482.902    588.322    482.902    487.539    482.902
 80.870    637.820    611.662     26.157    482.867    607.087    482.867    487.458    482.867
 80.970    600.000    631.709    -31.709    482.830    627.185    482.830    487.377    482.830
 81.070    676.768    652.126     24.642    482.792    647.651    482.792    487.296    482.792
 81.170    701.000    671.755     29.245    482.753    667.329    482.753    487.214    482.753
 81.270    662.000    689.418    -27.418    482.712    685.040    482.712    487.133    482.712
 81.370    751.027    704.072     46.955    482.669    699.742    482.669    487.051    482.669
 81.470    757.071    714.908     42.163    482.626    710.623    482.626    486.968    482.626
 81.570    711.000    721.397    -10.397    482.580    717.156    482.580    486.886    482.580
 81.670    676.000    723.333    -47.333    482.534    719.134    482.534    486.803    482.534
 81.770    723.000    720.806      2.194    482.485    716.645    482.485    486.720    482.485
 81.870    750.000    714.115     35.885    482.436    709.991    482.436    486.636    482.436
 81.970    670.743    703.735    -32.992    482.385    699.644    482.385    486.553    482.385
 82.070    700.000    690.359      9.641    482.332    686.298    482.332    486.470    482.332
 82.170    704.000    674.903     29.097    482.278    670.870    482.278    486.386    482.278
 82.270    703.686    658.352     45.334    482.223    654.344    482.223    486.303    482.223
 82.370    695.000    641.546     53.454    482.165    637.559    482.165    486.219    482.165
 82.470    599.000    625.053    -26.053    482.107    621.086    482.107    486.136    482.107
 82.570    609.000    609.210     -0.210    482.047    605.262    482.047    486.053    482.047
 82.670    549.883    594.253    -44.370    481.985    590.321    481.985    485.969    481.985
 82.770    560.000    580.423    -20.423    481.922    576.504    481.922    485.886    481.922
 82.870    586.000    567.992     18.008    481.858    564.085    481.858    485.802    481.858
 82.970    546.790    557.220    -10.430    481.791    553.324    481.791    485.719    481.791
 83.070    555.051    548.318      6.733    481.724    544.430    481.724    485.636    481.724
 83.170    542.000    541.418      0.582    481.655    537.537    481.655    485.552    481.655
 83.270    515.000    536.577    -21.577    481.584    532.701    481.584    485.469    481.584
 83.370    546.229    533.764     12.465    481.512    529.892    481.512    485.385    481.512
 83.470    531.788    532.865     -1.077    481.438    528.995    481.438    485.301    481.438
 83.570    519.000    533.668    -14.668    481.362    529.800    481.362    485.217    481.362
 83.670    516.000    535.872    -19.872    481.286    532.004    481.286    485.133    481.286
 83.770    536.852    539.080     -2.228    481.207    535.211    481.207    485.048    481.207
 83.870    540.118    542.817     -2.699    481.127    538.946    481.127    484.963    481.127
 83.970    545.000    546.539     -1.539    481.046    542.668    481.046    484.878    481.046
 84.070    550.000    549.672      0.328    480.963    545.799    480.963    484.793    480.963
 84.170    551.050    551.666     -0.616    480.878    547.792    480.878    484.708    480.878
 84.270    507.000    552.098    -45.098    480.792    548.223    480.792    484.622    480.792
 84.370    541.000    550.779     -9.779    480.704    546.905    480.704    484.536    480.704
 84.470    588.088    547.799     40.289    480.615    543.925    480.615    484.449    480.615
 84.570    532.685    543.481    -10.796    480.524    539.607    480.524    484.362    480.524
 84.670    538.000    538.264     -0.264    480.431    534.390    480.431    484.275    480.431
 84.770    545.000    532.606     12.394    480.337    528.731    480.337    484.187    480.337
 84.870    501.000    526.915    -25.915    480.241    523.037    480.241    484.099    480.241
 84.970    553.000    521.516     31.484    480.144    517.632    480.144    484.011    480.144
 85.070    519.000    516.642      2.358    480.045    512.752    480.045    483.922    480.045
 85.170    477.000    512.439    -35.439    479.945    508.541    479.945    483.833    479.945
 85.270    480.000    508.971    -28.971    479.843    505.062    479.843    483.744    479.843
 85.370    498.000    506.236     -8.236    479.740    502.315    479.740    483.654    479.740
 85.470    494.446    504.187     -9.741    479.634    500.252    479.634    483.564    479.634
 85.570    495.000    502.753     -7.753    479.528    498.802    479.528    483.473    479.528
 85.670    524.000    501.856     22.144    479.419    497.888    479.419    483.382    479.419
 85.770    491.000    501.429    -10.429    479.310    497.442    479.310    483.291    479.310
 85.870    533.000    501.426     31.574    479.198    497.418    479.198    483.200    479.198
 85.970    543.000    501.830     41.170    479.085    497.800    479.085    483.108    479.085
 86.070    562.000    502.659     59.341    478.970    498.605    478.970    483.016    478.970
 86.170    541.000    503.964     37.036    478.854    499.883    478.854    482.924    478.854
 86.270    543.000    505.826     37.174    478.736    501.718    478.736    482.832    478.736
 86.370    521.000    508.354     12.646    478.617    504.216    478.617    482.739    478.617
 86.470    509.649    511.675     -2.026    478.496    507.504    478.496    482.647    478.496
 86.570    523.000    515.918      7.082    478.373    511.712    478.373    482.554    478.373
 86.670    507.842    521.198    -13.357    478.249    516.955    478.249    482.461    478.249
 86.770    549.590    527.599     21.991    478.123    523.316    478.123    482.369    478.123
 86.870    498.623    535.144    -36.521    477.996    530.818    477.996    482.276    477.996
 86.970    519.377    543.771    -24.394    477.867    539.399    477.867    482.184    477.867
 87.070    543.445    553.312     -9.868    477.737    548.892    477.737    482.091    477.737
 87.170    590.234    563.472     26.761    477.605    559.002    477.605    481.999    477.605
 87.270    591.000    573.818     17.182    477.471    569.296    477.471    481.907    477.471
 87.370    607.000    583.774     23.226    477.336    579.200    477.336    481.816    477.336
 87.470    600.000    592.648      7.352    477.199    588.022    477.199    481.725    477.199
 87.570    576.000    599.691    -23.691    477.060    595.013    477.060    481.634    477.060
 87.670    626.000    604.224     21.776    476.920    599.495    476.920    481.545    476.920
 87.770    633.000    605.802     27.198    476.779    601.023    476.779    481.456    476.779
 87.870    660.000    604.350     55.650    476.636    599.523    476.636    481.368    476.636
 87.970    637.000    600.187     36.813    476.491    595.311    476.491    481.280    476.491
 88.070    575.898    593.927    -18.030    476.345    589.002    476.345    481.194    476.345
 88.170    591.688    586.337      5.352    476.197    581.361    476.197    481.110    476.197
 88.270    590.000    578.206     11.794    476.047    573.176    476.047    481.026    476.047
 88.370    534.000    570.271    -36.271    475.897    565.184    475.897    480.944    475.897
 88.470    567.000    563.172      3.828    475.744    558.024    475.744    480.864    475.744
 88.570    564.903    557.411      7.492    475.590    552.198    475.590    480.786    475.590
 88.670    571.000    553.339     17.661    475.434    548.056    475.434    480.709    475.434
 88.770    561.000    551.140      9.860    475.277    545.783    475.277    480.635    475.277
 88.870    538.000    550.835    -12.835    475.118    545.399    475.118    480.564    475.118
 88.970    552.000    552.284     -0.284    474.958    546.765    474.958    480.495    474.958
 89.070    568.000    555.206     12.794    474.796    549.599    474.796    480.429    474.796
 89.170    585.000    559.196     25.804    474.633    553.496    474.633    480.367    474.633
 89.270    575.000    563.743     11.257    474.468    557.945    474.468    480.307    474.468
 89.370    577.000    568.260      8.740    474.302    562.358    474.302    480.252    474.302
 89.470    592.000    572.123     19.877    474.134    566.111    474.134    480.200    474.134
 89.570    571.989    574.738     -2.748    473.964    568.607    473.964    480.153    473.964
 89.670    611.000    575.630     35.370    473.793    569.375    473.793    480.111    473.793
 89.770    520.000    574.550    -54.550    473.621    568.161    473.621    480.073    473.621
 89.870    562.000    571.522     -9.522    473.447    564.990    473.447    480.041    473.447
 89.970    518.245    566.815    -48.570    473.271    560.133    473.271    480.014    473.271
 90.070    531.000    560.855    -29.855    473.094    554.012    473.094    479.994    473.094
 90.170    556.053    554.122      1.932    472.916    547.109    472.916    479.980    472.916
 90.270    511.502    547.075    -35.573    472.736    539.885    472.736    479.972    472.736
 90.370    571.512    540.114     31.398    472.555    532.736    472.555    479.972    472.555
 90.470    575.376    533.555     41.821    472.372    525.980    472.372    479.980    472.372
 90.570    479.000    527.629    -48.629    472.187    519.849    472.187    479.995    472.187
 90.670    509.000    522.484    -13.484    472.001    514.489    472.001    480.019    472.001
 90.770    558.254    518.193     40.061    471.814    509.973    471.814    480.052    471.814
 90.870    490.000    514.766    -24.766    471.625    506.311    471.625    480.094    471.625
 90.970    493.000    512.166    -19.166    471.435    503.467    471.435    480.145    471.435
 91.070    519.281    510.330      8.951    471.244    501.376    471.244    480.206    471.244
 91.170    524.000    509.182     14.818    471.051    499.961    471.051    480.278    471.051
 91.270    505.000    508.651     -3.651    470.856    499.152    470.856    480.359    470.856
 91.370    483.000    508.682    -25.682    470.660    498.893    470.660    480.452    470.660
 91.470    522.000    509.245     12.755    470.463    499.154    470.463    480.555    470.463
 91.570    542.099    510.343     31.756    470.264    499.937    470.264    480.669    470.264
 91.670    518.776    512.011      6.765    470.064    501.279    470.064    480.794    470.064
 91.770    487.000    514.324    -27.324    469.863    503.253    469.863    480.930    469.863
 91.870    478.000    517.384    -39.384    469.660    505.963    469.660    481.075    469.660
 91.970    561.587    521.325     40.261    469.456    509.543    469.456    481.230    469.456
 92.070    530.000    526.301      3.699    469.250    514.147    469.250    481.394    469.250
 92.170    526.794    532.472     -5.677    469.043    519.936    469.043    481.566    469.043
 92.270    563.000    539.996     23.004    468.835    527.070    468.835    481.744    468.835
 92.370    522.625    549.008    -26.383    468.625    535.686    468.625    481.926    468.625
 92.470    566.844    559.606      7.238    468.414    545.884    468.414    482.111    468.414
 92.570    563.786    571.833     -8.047    468.202    557.708    468.202    482.296    468.202
 92.670    605.000    585.657     19.343    467.989    571.131    467.989    482.479    467.989
 92.770    577.000    600.962    -23.962    467.774    586.039    467.774    482.655    467.774
 92.870    581.000    617.531    -36.531    467.558    602.219    467.558    482.822    467.558
 92.970    657.000    635.043     21.957    467.340    619.354    467.340    482.975    467.340
 93.070    695.000    653.071     41.929    467.121    637.023    467.121    483.111    467.121
 93.170    648.000    671.109    -23.109    466.901    654.724    466.901    483.225    466.901
 93.270    740.651    688.626     52.025    466.680    671.929    466.680    483.314    466.680
 93.370    663.320    705.158    -41.838    466.458    688.178    466.458    483.372    466.458
 93.470    711.000    720.407     -9.407    466.234    703.178    466.234    483.397    466.234
 93.570    782.000    734.291     47.709    466.009    716.849    466.009    483.386    466.009
 93.670    715.000    746.999    -31.999    465.783    729.384    465.783    483.335    465.783
 93.770    704.000    758.790    -54.790    465.556    741.041    465.556    483.243    465.556
 93.870    785.000    769.936     15.064    465.327    752.094    465.327    483.111    465.327
 93.970    751.000    780.645    -29.645    465.097    762.750    465.097    482.936    465.097
 94.070    833.000    791.043     41.957    464.867    773.134    464.867    482.722    464.867
 94.170    852.000    801.245     50.755    464.635    783.359    464.635    482.470    464.635
 94.270    910.000    811.382     98.618    464.401    793.553    464.401    482.183    464.401
 94.370    846.000    821.615     24.385    464.167    803.873    464.167    481.865    464.167
 94.470    799.250    832.042    -32.792    463.932    814.414    463.932    481.519    463.932
 94.570    857.000    842.569     14.431    463.695    825.076    463.695    481.150    463.695
 94.670    902.563    852.808     49.755    463.458    835.469    463.458    480.762    463.458
 94.770    928.000    862.038     65.962    463.219    844.865    463.219    480.361    463.219
 94.870    838.264    869.252    -30.988    462.979    852.256    462.979    479.950    462.979
 94.970    933.863    873.279     60.585    462.738    856.464    462.738    479.533    462.738
 95.070    851.091    872.985    -21.894    462.497    856.353    462.497    479.116    462.497
 95.170    865.000    867.536     -2.536    462.254    851.084    462.254    478.701    462.254
 95.270    901.000    856.636     44.364    462.010    840.357    462.010    478.291    462.010
 95.370    800.269    840.654    -40.386    461.765    824.539    461.765    477.889    461.765
 95.470    835.000    820.569     14.431    461.519    804.603    461.519    477.499    461.519
 95.570    818.000    797.784     20.216    461.272    781.953    461.272    477.121    461.272
 95.670    801.032    773.920     27.111    461.025    758.207    461.025    476.759    461.025
 95.770    791.993    750.650     41.344    460.776    735.033    460.776    476.413    460.776
 95.870    753.000    729.586     23.414    460.526    714.047    460.526    476.085    460.526
 95.970    751.000    712.227     38.773    460.276    696.744    460.276    475.776    460.276
 96.070    710.000    699.913     10.087    460.024    684.462    460.024    475.488    460.024
 96.170    691.000    693.797     -2.797    459.772    678.356    459.772    475.220    459.772
 96.270    723.000    694.846     28.154    459.519    679.391    459.519    474.975    459.519
 96.370    688.000    703.815    -15.815    459.265    688.322    459.265    474.753    459.265
 96.470    724.000    721.322      2.678    459.010    705.765    459.010    474.554    459.010
 96.570    725.000    747.643    -22.643    458.754    731.998    458.754    474.379    458.754
 96.670    807.000    782.834     24.166    458.497    767.076    458.497    474.229    458.497
 96.770    841.000    826.657     14.343    458.240    810.759    458.240    474.105    458.240
 96.870    891.045    878.530     12.515    457.982    862.465    457.982    474.007    457.982
 96.970    917.000    937.471    -20.471    457.723    921.214    457.723    473.937    457.723
 97.070   1023.117   1002.057     21.059    457.464    985.581    457.464    473.894    457.464
 97.170   1130.922   1070.380     60.543    457.203   1053.656    457.203    473.880    457.203
 97.270   1126.230   1140.028    -13.799    456.942   1123.031    456.942    473.895    456.942
 97.370   1198.181   1208.103     -9.923    456.681   1190.803    456.681    473.941    456.681
 97.470   1206.202   1271.280    -65.078    456.418   1253.650    456.418    474.019    456.418
 97.570   1279.000   1325.981    -46.981    456.155   1307.990    456.155    474.128    456.155
 97.670   1416.000   1368.690     47.310    455.892   1350.307    455.892    474.272    455.892
 97.770   1425.000   1396.429     28.571    455.627   1377.621    455.627    474.450    455.627
 97.870   1499.000   1407.281     91.719    455.363   1388.013    455.363    474.664    455.363
 97.970   1423.158   1400.783     22.375    455.097   1381.016    455.097    474.915    455.097
 98.070   1415.675   1377.992     37.682    454.831   1357.686    454.831    475.204    454.831
 98.170   1412.000   1341.221     70.779    454.565   1320.332    454.565    475.532    454.565
 98.270   1317.000   1293.576     23.424    454.298   1272.060    454.298    475.901    454.298
 98.370   1240.000   1238.506      1.494    454.030   1216.317    454.030    476.312    454.030
 98.470   1243.339   1179.460     63.880    453.762   1156.550    453.762    476.766    453.762
 98.570   1186.077   1119.678     66.399    453.494   1096.000    453.494    477.264    453.494
 98.670   1074.419   1062.080     12.340    453.225   1037.584    453.225    477.807    453.225
 98.770   1067.000   1009.215     57.785    452.955    983.853    452.955    478.397    452.955
 98.870    904.000    963.255    -59.255    452.686    936.979    452.686    479.033    452.686
 98.970    928.490    926.008      2.482    452.416    898.769    452.416    479.717    452.416
 99.070    936.000    898.933     37.067    452.145    870.682    452.145    480.450    452.145
 99.170    870.177    883.156    -12.979    451.874    853.844    451.874    481.230    451.874
 99.270    879.000    879.484     -0.484    451.603    849.065    451.603    482.059    451.603
 99.370    896.000    888.419      7.581    451.332    856.846    451.332    482.934    451.332
 99.470    877.430    910.185    -32.756    451.060    877.415    451.060    483.856    451.060
 99.570    969.260    944.743     24.517    450.788    910.733    450.788    484.821    450.788
 99.670    989.000    991.725     -2.725    450.516    956.436    450.516    485.828    450.516
 99.770   1050.598   1050.463      0.135    450.244   1013.859    450.244    486.873    450.244
 99.870   1153.859   1119.944     33.915    449.971   1081.995    449.971    487.952    449.971
 99.970   1242.409   1198.770     43.638    449.698   1159.453    449.698    489.058    449.698
100.070   1296.164   1285.120     11.044    449.426   1244.417    449.426    490.184    449.426
100.170   1343.000   1376.717    -33.717    449.153   1334.619    449.153    491.323    449.153
100.270   1441.000   1470.839    -29.839    448.880   1427.347    448.880    492.464    448.880
100.370   1580.000   1564.382     15.618    448.606   1519.510    448.606    493.595    448.606
100.470   1632.000   1654.024    -22.024    448.333   1607.795    448.333    494.705    448.333
100.570   1819.502   1736.470     83.032    448.060   1688.924    448.060    495.777    448.060
100.670   1787.000   1808.747    -21.747    447.787   1759.936    447.787    496.797    447.787
100.770   1833.969   1868.428    -34.459    447.514   1818.420    447.514    497.748    447.514
100.870   1948.647   1913.697     34.951    447.241   1862.577    447.241    498.612    447.241
100.970   1991.000   1943.264     47.736    446.968   1891.134    446.968    499.372    446.968
101.070   1930.000   1956.242    -26.242    446.695   1903.218    446.695    500.010    446.695
101.170   1967.000   1952.126     14.874    446.422   1898.343    446.422    500.510    446.422
101.270   1951.768   1930.972     20.796    446.149   1876.576    446.149    500.858    446.149
101.370   1962.676   1893.668     69.008    445.877   1838.819    445.877    501.043    445.877
101.470   1875.000   1842.150     32.850    445.605   1787.015    445.605    501.055    445.605
101.570   1788.000   1779.360      8.640    445.333   1724.111    445.333    500.890    445.333
101.670   1674.000   1708.937    -34.937    445.061   1653.749    445.061    500.546    445.061
101.770   1561.322   1634.750    -73.428    444.789   1579.795    444.789    500.025    444.789
101.870   1593.418   1560.436     32.982    444.518   1505.883    444.518    499.334    444.518
101.970   1483.412   1489.073     -5.661    444.247   1435.082    444.247    498.483    444.247
102.070   1411.000   1423.003    -12.003    443.977   1369.722    443.977    497.484    443.977
102.170   1402.000   1363.772     38.228    443.707   1311.335    443.707    496.352    443.707
102.270   1261.854   1312.145    -50.291    443.437   1260.670    443.437    495.104    443.437
102.370   1263.000   1268.157     -5.157    443.168   1217.745    443.168    493.756    443.168
102.470   1218.000   1231.186    -13.186    442.899   1181.922    442.899    492.327    442.899
102.570   1159.070   1200.048    -40.977    442.631   1151.998    442.631    490.834    442.631
102.670   1139.000   1173.125    -34.125    442.364   1126.340    442.364    489.294    442.364
102.770   1145.000   1148.544     -3.544    442.097   1103.058    442.097    487.722    442.097
102.870   1080.000   1124.399    -44.399    441.830   1080.231    441.830    486.132    441.830
102.970   1104.000   1099.010      4.990    441.564   1056.168    441.564    484.538    441.564
103.070   1015.000   1071.154    -56.154    441.299   1029.634    441.299    482.949    441.299
103.170   1052.000   1040.203     11.797    441.034    999.989    441.034    481.375    441.034
103.270    998.000   1006.118     -8.118    440.771    967.187    440.771    479.825    440.771
103.370    920.293    969.345    -49.052    440.507    931.666    440.507    478.305    440.507
103.470    974.000    930.642     43.358    440.245    894.178    440.245    476.821    440.245
103.570    870.000    890.900    -20.900    439.984    855.613    439.984    475.377    439.984
103.670    871.000    851.037     19.963    439.723    816.883    439.723    473.975    439.723
103.770    797.000    811.906    -14.906    439.463    778.840    439.463    472.620    439.463
103.870    723.000    774.254    -51.254    439.204    742.229    439.204    471.311    439.204
103.970    747.000    738.746      8.254    438.946    707.715    438.946    470.051    438.946
104.070    739.000    705.854     33.146    438.689    675.769    438.689    468.840    438.689
104.170    654.180    675.915    -21.735    438.433    646.729    438.433    467.678    438.433
104.270    677.156    649.128     28.028    438.178    620.792    438.178    466.564    438.178
104.370    637.875    625.555     12.320    437.924    598.023    437.924    465.499    437.924
104.470    606.702    605.144      1.559    437.671    578.370    437.671    464.481    437.671
104.570    576.000    587.747    -11.747    437.419    561.687    437.419    463.510    437.419
104.670    577.000    573.149      3.851    437.169    547.759    437.169    462.585    437.169
104.770    578.000    561.093     16.907    436.919    536.331    436.919    461.704    436.919
104.870    583.000    551.302     31.698    436.671    527.125    436.671    460.866    436.671
104.970    562.000    543.499     18.501    436.424    519.868    436.424    460.070    436.424
105.070    524.000    537.427    -13.427    436.179    514.303    436.179    459.314    436.179
105.170    582.000    532.856     49.144    435.934    510.201    435.934    458.598    435.934
105.270    520.000    529.595     -9.595    435.691    507.373    435.691    457.920    435.691
105.370    519.906    527.490     -7.583    435.450    505.666    435.450    457.278    435.450
105.470    536.000    526.430      9.570    435.210    504.970    435.210    456.672    435.210
105.570    492.469    526.340    -33.871    434.971    505.212    434.971    456.100    434.971
105.670    536.000    527.181      8.819    434.734    506.353    434.734    455.561    434.734
105.770    505.560    528.941    -23.381    434.498    508.382    434.498    455.054    434.498
105.870    550.000    531.631     18.369    434.264    511.313    434.264    454.577    434.264
105.970    556.000    535.280     20.720    434.032    515.174    434.032    454.130    434.032
106.070    573.370    539.924     33.446    433.801    520.003    433.801    453.712    433.801
106.170    578.000    545.598     32.402    433.572    525.835    433.572    453.322    433.572
106.270    596.000    552.323     43.677    433.344    532.694    433.344    452.958    433.344
106.370    553.277    560.101     -6.824    433.119    540.581    433.119    452.621    433.119
106.470    621.000    568.899     52.101    432.895    549.464    432.895    452.309    432.895
106.570    532.622    578.645    -46.023    432.673    559.272    432.673    452.022    432.673
106.670    553.000    589.221    -36.221    432.453    569.888    432.453    451.760    432.453
106.770    637.000    600.462     36.538    432.235    581.147    432.235    451.521    432.235
106.870    592.711    612.153    -19.441    432.018    592.835    432.018    451.305    432.018
106.970    672.144    624.032     48.112    431.804    604.691    431.804    451.113    431.804
107.070    650.157    635.796     14.361    431.592    616.411    431.592    450.943    431.592
107.170    679.824    647.108     32.716    431.382    627.660    431.382    450.795    431.382
107.270    692.501    657.613     34.887    431.174    638.083    431.174    450.670    431.174
107.370    708.142    666.967     41.175    430.968    647.334    430.968    450.567    430.968
107.470    689.000    674.867     14.133    430.764    655.113    430.764    450.487    430.764
107.570    659.000    681.097    -22.097    430.562    661.202    430.562    450.428    430.562
107.670    701.041    685.567     15.474    430.363    665.512    430.363    450.392    430.363
107.770    650.000    688.333    -38.333    430.166    668.098    430.166    450.379    430.166
107.870    695.245    689.594      5.651    429.971    669.159    429.971    450.388    429.971
107.970    639.000    689.662    -50.662    429.779    669.005    429.779    450.421    429.779
108.070    678.000    688.909    -10.909    429.589    668.011    429.589    450.477    429.589
108.170    640.964    687.722    -46.758    429.402    666.561    429.402    450.557    429.402
108.270    718.206    686.456     31.750    429.217    665.009    429.217    450.662    429.217
108.370    681.383    685.402     -4.019    429.035    663.647    429.035    450.792    429.035
108.470    647.000    684.768    -37.768    428.855    662.681    428.855    450.948    428.855
108.570    648.000    684.666    -36.666    428.679    662.224    428.679    451.130    428.679
108.670    730.293    685.108     45.185    428.504    662.286    428.504    451.339    428.504
108.770    676.000    686.005    -10.005    428.333    662.778    428.333    451.577    428.333
108.870    663.544    687.172    -23.628    428.164    663.512    428.164    451.844    428.164
108.970    687.000    688.338     -1.338    427.998    664.218    427.998    452.141    427.998
109.070    700.000    689.165     10.835    427.835    664.557    427.835    452.469    427.835
109.170    663.000    689.283    -26.283    427.675    664.157    427.675    452.829    427.675
109.270    676.000    688.339    -12.339    427.517    662.665    427.517    453.223    427.517
109.370    671.000    686.036    -15.036    427.363    659.781    427.363    453.652    427.363
109.470    715.000    682.182     32.818    427.212    655.313    427.212    454.116    427.212
109.570    681.000    676.718      4.282    427.064    649.200    427.064    454.618    427.064
109.670    664.000    669.726     -5.726    426.919    641.522    426.919    455.159    426.919
109.770    653.000    661.401     -8.401    426.777    632.474    426.777    455.741    426.777
109.870    669.000    652.019     16.981    426.638    622.329    426.638    456.364    426.638
109.970    693.489    641.896     51.592    426.503    611.403    426.503    457.030    426.503
110.070    668.952    631.358     37.594    426.371    600.019    426.371    457.742    426.371
110.170    638.817    620.715     18.102    426.242    588.486    426.242    458.501    426.242
110.270    618.060    610.246      7.814    426.117    577.082    426.117    459.309    426.117
110.370    569.864    600.197    -30.333    425.995    566.051    425.995    460.167    425.995
110.470    558.341    590.765    -32.424    425.877    555.588    425.877    461.077    425.877
110.570    565.083    582.132    -17.050    425.763    545.873    425.763    462.042    425.763
110.670    583.000    574.413      8.587    425.652    537.020    425.652    463.063    425.652
110.770    588.994    567.689     21.305    425.544    529.107    425.544    464.141    425.544
110.870    548.000    562.006    -14.006    425.440    522.180    425.440    465.279    425.440
110.970    546.000    557.376    -11.376    425.341    516.247    425.341    466.480    425.341
111.070    591.000    553.781     37.219    425.244    511.290    425.244    467.743    425.244
111.170    592.000    551.180     40.820    425.152    507.266    425.152    469.072    425.152
111.270    559.000    549.514      9.486    425.064    504.114    425.064    470.468    425.064
111.370    552.000    548.711      3.289    424.979    501.761    424.979    471.933    424.979
111.470    557.219    548.694      8.525    424.899    500.126    424.899    473.468    424.899
111.570    532.575    549.379    -16.804    424.823    499.127    424.823    475.075    424.823
111.670    573.000    550.686     22.314    424.750    498.681    424.750    476.755    424.750
111.770    546.000    552.539     -6.539    424.682    498.710    424.682    478.510    424.682
111.870    541.000    554.865    -13.865    424.618    499.143    424.618    480.339    424.618
111.970    540.077    557.604    -17.527    424.559    499.916    424.559    482.244    424.559
112.070    545.000    560.700    -15.700    424.504    500.976    424.504    484.224    424.504
112.170    526.796    564.110    -37.314    424.453    502.278    424.453    486.281    424.453
112.270    589.000    567.802     21.198    424.406    503.792    424.406    488.412    424.406
112.370    592.633    571.754     20.879    424.364    505.496    424.364    490.618    424.364
112.470    552.000    575.959    -23.959    424.327    507.385    424.327    492.896    424.327
112.570    583.110    580.418      2.692    424.294    509.463    424.294    495.245    424.294
112.670    563.113    585.146    -22.033    424.266    511.747    424.266    497.660    424.266
112.770    538.000    590.167    -52.167    424.242    514.266    424.242    500.139    424.242
112.870    557.000    595.522    -38.522    424.223    517.066    424.223    502.675    424.223
112.970    603.000    601.261      1.739    424.210    520.203    424.210    505.264    424.210
113.070    631.459    607.452     24.007    424.200    523.751    424.200    507.897    424.200
113.170    608.000    614.184     -6.184    424.196    527.809    424.196    510.566    424.196
113.270    563.000    621.573    -58.573    424.197    532.503    424.197    513.262    424.197
113.370    670.517    629.771     40.746    424.203    537.995    424.203    515.973    424.203
113.470    575.000    638.973    -63.973    424.214    544.495    424.214    518.685    424.214
113.570    632.000    649.435    -17.435    424.230    552.273    424.230    521.385    424.230
113.670    651.000    661.485    -10.485    424.251    561.671    424.251    524.056    424.251
113.770    646.000    675.539    -29.539    424.277    573.125    424.277    526.680    424.277
113.870    678.000    692.122    -14.122    424.309    587.179    424.309    529.239    424.309
113.970    731.939    711.889     20.050    424.346    604.507    424.346    531.711    424.346
114.070    708.000    735.641    -27.641    424.389    625.932    424.389    534.075    424.389
114.170    759.000    764.350     -5.350    424.437    652.449    424.437    536.310    424.437
114.270    794.500    799.172     -4.672    424.491    685.235    424.491    538.392    424.491
114.370    895.866    841.460     54.406    424.550    725.666    424.550    540.300    424.550
114.470    953.715    892.771     60.945    424.615    775.319    424.615    542.012    424.615
114.570    897.000    954.855    -57.855    424.686    835.965    424.686    543.507    424.686
114.670   1095.889   1029.642     66.247    424.762    909.553    424.762    544.768    424.762
114.770   1111.000   1119.206     -8.206    424.844    998.171    424.844    545.778    424.844
114.870   1217.000   1225.711     -8.711    424.933   1103.998    424.933    546.524    424.933
114.970   1348.000   1351.342     -3.342    425.027   1229.226    425.027    546.998    425.027
115.070   1519.000   1498.211     20.789    425.127   1375.975    425.127    547.193    425.127
115.170   1754.000   1668.250     85.750    425.233   1546.177    425.233    547.108    425.233
115.270   1847.770   1863.081    -15.311    425.346   1741.454    425.346    546.746    425.346
115.370   2210.000   2083.881    126.119    425.464   1962.976    425.464    546.114    425.464
115.470   2324.899   2331.240     -6.341    425.589   2211.324    425.589    545.221    425.589
115.570   2688.000   2605.014     82.986    425.721   2486.340    425.721    544.081    425.721
115.670   2952.625   2904.170     48.454    425.858   2786.978    425.858    542.711    425.858
115.770   3115.308   3226.803   -111.495    426.002   3111.313    426.002    541.130    426.002
115.870   3527.254   3569.896    -42.642    426.153   3456.311    426.153    539.359    426.153
115.970   4022.000   3929.319     92.681    426.310   3817.820    426.310    537.420    426.310
116.070   4263.947   4299.851    -35.904    426.474   4190.599    426.474    535.334    426.474
116.170   4741.000   4675.199     65.801    426.645   4568.334    426.645    533.125    426.645
116.270   4924.000   5048.067   -124.067    426.823   4943.707    426.823    530.815    426.823
116.370   5380.000   5410.283    -30.283    427.007   5308.527    427.007    528.424    427.007
116.470   5835.000   5752.971     82.029    427.198   5653.898    427.198    525.975    427.198
116.570   6192.148   6066.810    125.338    427.396   5970.479    427.396    523.484    427.396
116.670   6505.000   6342.370    162.630    427.602   6248.826    427.602    520.970    427.602
116.770   6586.340   6570.583     15.758    427.814   6479.850    427.814    518.449    427.814
116.870   6868.160   6743.311    124.849    428.034   6655.400    428.034    515.936    428.034
116.970   6910.000   6854.002     55.998    428.261   6768.907    428.261    513.441    428.261
117.070   6941.000   6898.310     42.690    428.495   6816.011    428.495    510.978    428.495
117.170   6794.462   6874.568    -80.106    428.736   6795.031    428.736    508.556    428.736
117.270   6760.000   6783.968    -23.968    428.985   6707.147    428.985    506.183    428.985
117.370   6506.000   6630.425   -124.425    429.242   6556.263    429.242    503.865    429.242
117.470   6553.837   6420.135    133.703    429.506   6348.564    429.506    501.610    429.506
117.570   6239.378   6160.958     78.420    429.778   6091.906    429.778    499.422    429.778
117.670   5594.000   5861.773   -267.773    430.058   5795.161    430.058    497.304    430.058
117.770   5406.608   5531.880   -125.272    430.345   5467.627    430.345    495.260    430.345
117.870   5088.234   5180.523    -92.290    430.640   5118.546    430.640    493.292    430.640
117.970   4769.670   4816.530    -46.860    430.943   4756.744    430.943    491.402    430.943
118.070   4391.000   4448.048    -57.048    431.254   4390.371    431.254    489.590    431.254
118.170   4208.273   4082.361    125.912    431.574   4026.710    431.574    487.858    431.574
118.270   3824.000   3725.761     98.239    431.901   3672.057    431.901    486.205    431.901
118.370   3292.437   3383.480    -91.044    432.237   3331.644    432.237    484.631    432.237
118.470   2973.000   3059.663    -86.663    432.581   3009.620    432.581    483.136    432.581
118.570   2747.000   2757.384    -10.384    432.933   2709.062    432.933    481.719    432.933
118.670   2483.318   2478.711      4.608    433.294   2432.040    433.294    480.378    433.294
118.770   2179.000   2224.789    -45.789    433.663   2179.703    433.663    479.113    433.663
118.870   1933.000   1995.954    -62.954    434.041   1952.389    434.041    477.922    434.041
118.970   1761.000   1791.857    -30.857    434.428   1749.750    434.428    476.804    434.428
119.070   1614.468   1611.586      2.882    434.823   1570.880    434.823    475.757    434.823
119.170   1433.000   1453.798    -20.798    435.227   1414.436    435.227    474.779    435.227
119.270   1263.000   1316.842    -53.842    435.640   1278.769    435.640    473.869    435.640
119.370   1206.000   1198.865      7.135    436.062   1162.029    436.062    473.024    436.062
119.470   1131.000   1097.919     33.081    436.493   1062.269    436.493    472.244    436.493
119.570    959.858   1012.046    -52.188    436.933    977.533    436.933    471.526    436.933
119.670    939.000    939.346     -0.346    437.383    905.922    437.383    470.869    437.383
119.770    903.000    878.033     24.967    437.841    845.653    437.841    470.270    437.841
119.870    887.000    826.468     60.532    438.309    795.087    438.309    469.728    438.309
119.970    772.000    783.181    -11.181    438.787    752.756    438.787    469.241    438.787
120.070    808.000    746.879     61.121    439.273    717.368    439.273    468.807    439.273
120.170    682.795    716.444    -33.649    439.770    687.807    439.770    468.425    439.770
120.270    653.000    690.926    -37.926    440.276    663.124    440.276    468.093    440.276
120.370    629.804    669.526    -39.722    440.792    642.521    440.792    467.809    440.792
120.470    602.806    651.581    -48.774    441.317    625.337    441.317    467.572    441.317
120.570    623.000    636.545    -13.545    441.853    611.028    441.853    467.380    441.853
120.670    620.000    623.975     -3.975    442.398    599.151    442.398    467.232    442.398
120.770    617.000    613.510      3.490    442.954    589.348    442.954    467.126    442.954
120.870    638.000    604.860     33.140    443.520    581.329    443.520    467.061    443.520
120.970    624.000    597.789     26.211    444.095    574.860    444.095    467.035    444.095
121.070    563.000    592.108    -29.108    444.682    569.753    444.682    467.048    444.682
121.170    608.000    587.662     20.338    445.278    565.855    445.278    467.097    445.278
121.270    574.000    584.324    -10.324    445.885    563.040    445.885    467.182    445.885
121.370    560.000    581.987    -21.987    446.503    561.202    446.503    467.301    446.503
121.470    570.000    580.561    -10.561    447.131    560.253    447.131    467.454    447.131
121.570    596.000    579.966     16.034    447.770    560.112    447.770    467.639    447.770
121.670    567.080    580.129    -13.048    448.419    560.710    448.419    467.855    448.419
121.770    571.000    580.981     -9.981    449.080    561.978    449.080    468.102    449.080
121.870    600.404    582.455     17.949    449.751    563.850    449.751    468.377    449.751
121.970    547.000    584.483    -37.483    450.433    566.259    450.433    468.681    450.433
122.070    612.000    586.995     25.005    451.127    569.137    451.127    469.011    451.127
122.170    603.000    589.918     13.082    451.832    572.410    451.832    469.368    451.832
122.270    552.000    593.173    -41.173    452.548    576.001    452.548    469.751    452.548
122.370    579.000    596.678    -17.678    453.275    579.828    453.275    470.158    453.275
122.470    607.631    600.343      7.288    454.014    583.804    454.014    470.589    454.014
122.570    564.620    604.075    -39.454    454.764    587.835    454.764    471.043    454.764
122.670    585.000    607.776    -22.776    455.526    591.826    455.526    471.519    455.526
122.770    641.641    611.346     30.295    456.300    595.674    456.300    472.016    456.300
122.870    602.000    614.682    -12.682    457.086    599.280    457.086    472.535    457.086
122.970    642.736    617.684     25.052    457.883    602.544    457.883    473.073    457.883
123.070    632.000    620.257     11.743    458.692    605.371    458.692    473.630    458.692
123.170    611.105    622.306    -11.202    459.514    607.668    459.514    474.206    459.514
123.270    675.000    623.757     51.243    460.348    609.359    460.348    474.801    460.348
123.370    616.000    624.607     -8.607    461.193    610.444    461.193    475.413    461.193
123.470    633.000    624.804      8.196    462.052    610.871    462.052    476.042    462.052
123.570    587.382    624.341    -36.959    462.922    610.633    462.922    476.687    462.922
123.670    634.000    623.237     10.763    463.805    609.749    463.805    477.349    463.805
123.770    572.501    621.527    -49.027    464.701    608.257    464.701    478.027    464.701
123.870    636.000    619.264     16.736    465.609    606.208    465.609    478.720    465.609
123.970    571.000    616.508    -45.508    466.530    603.662    466.530    479.429    466.530
124.070    592.867    613.327    -20.460    467.464    600.689    467.464    480.153    467.464
124.170    600.000    609.790     -9.790    468.411    597.358    468.411    480.892    468.411
124.270    604.000    605.969     -1.969    469.371    593.739    469.371    481.646    469.371
124.370    558.622    601.932    -43.309    470.344    589.903    470.344    482.415    470.344
124.470    599.131    597.745      1.387    471.331    585.916    471.331    483.199    471.331
124.570    601.000    593.470      7.530    472.331    581.838    472.331    483.998    472.331
124.670    617.000    589.163     27.837    473.344    577.727    473.344    484.812    473.344
124.770    596.000    584.875     11.125    474.370    573.634    474.370    485.642    474.370
124.870    602.845    580.651     22.194    475.411    569.601    475.411    486.487    475.411
124.970    562.000    576.527    -14.527    476.465    565.667    476.465    487.348    476.465
