neutron_powder_diffraction_0156
R_wp: 3.894
Temperature (K): 1074.000
Counts: 83906.00
Wavelength (Ã…): 2.52098
COMMENTS
Test file for demonstrating the .xyy file format in Reel1.0
END OF HEADER
   tth       Y_obs     Y_calc      Y_res    Background    Phase_1_Nuc    Phase_1_Mag    Phase_2_Nuc    Phase_2_Mag
  9.970    610.000    579.865     30.135    579.172    579.816    579.172    579.221    579.172
 10.070    613.000    579.856     33.144    579.107    579.806    579.107    579.156    579.107
 10.170    590.929    579.850     11.079    579.038    579.800    579.038    579.087    579.038
 10.270    540.869    579.850    -38.980    578.964    579.800    578.964    579.014    578.964
 10.370    538.462    579.858    -41.395    578.887    579.808    578.887    578.937    578.887
 10.470    582.856    579.876      2.980    578.806    579.826    578.806    578.855    578.806
 10.570    615.000    579.909     35.091    578.720    579.858    578.720    578.770    578.720
 10.670    582.000    579.960      2.040    578.631    579.909    578.631    578.681    578.631
 10.770    620.000    580.036     39.964    578.538    579.985    578.538    578.588    578.538
 10.870    602.000    580.147     21.853    578.441    580.095    578.441    578.491    578.441
 10.970    607.000    580.303     26.697    578.340    580.251    578.340    578.391    578.340
 11.070    603.000    580.523     22.477    578.235    580.470    578.235    578.286    578.235
 11.170    595.000    580.830     14.170    578.127    580.777    578.127    578.178    578.127
 11.270    572.000    581.265     -9.265    578.015    581.211    578.015    578.067    578.015
 11.370    616.371    581.893     34.478    577.899    581.839    577.899    577.951    577.899
 11.470    540.776    582.860    -42.084    577.780    582.805    577.780    577.832    577.780
 11.570    568.852    584.570    -15.718    577.657    584.514    577.657    577.709    577.657
 11.670    542.956    588.189    -45.233    577.531    588.130    577.531    577.583    577.531
 11.770    627.512    596.460     31.053    577.401    596.396    577.401    577.454    577.401
 11.870    582.344    613.862    -31.518    577.268    613.788    577.268    577.321    577.268
 11.970    631.000    643.935    -12.935    577.131    643.844    577.131    577.184    577.131
 12.070    676.000    682.834     -6.834    576.991    682.719    576.991    577.045    576.991
 12.170    714.000    713.466      0.534    576.847    713.334    576.847    576.902    576.847
 12.270    743.000    714.325     28.675    576.701    714.192    576.701    576.756    576.701
 12.370    694.000    684.502      9.498    576.551    684.385    576.551    576.606    576.551
 12.470    638.411    645.129     -6.718    576.397    645.034    576.397    576.453    576.397
 12.570    598.000    614.068    -16.068    576.241    613.990    576.241    576.297    576.241
 12.670    582.000    595.765    -13.765    576.082    595.698    576.082    576.138    576.082
 12.770    552.000    586.861    -34.861    575.919    586.799    575.919    575.976    575.919
 12.870    596.000    582.807     13.193    575.753    582.747    575.753    575.810    575.753
 12.970    625.000    580.754     44.246    575.584    580.694    575.584    575.642    575.584
 13.070    559.623    579.476    -19.853    575.413    579.416    575.413    575.470    575.413
 13.170    556.000    578.548    -22.548    575.238    578.488    575.238    575.296    575.238
 13.270    585.000    577.818      7.182    575.061    577.759    575.061    575.119    575.061
 13.370    537.000    577.219    -40.219    574.880    577.159    574.880    574.938    574.880
 13.470    572.000    576.710     -4.710    574.697    576.651    574.697    574.755    574.697
 13.570    568.000    576.267     -8.267    574.511    576.207    574.511    574.570    574.511
 13.670    569.000    575.871     -6.871    574.322    575.811    574.322    574.381    574.322
 13.770    567.000    575.510     -8.510    574.130    575.450    574.130    574.190    574.130
 13.870    598.000    575.177     22.823    573.936    575.116    573.936    573.996    573.936
 13.970    562.000    574.863    -12.863    573.739    574.803    573.739    573.799    573.739
 14.070    547.000    574.566    -27.566    573.539    574.505    573.539    573.600    573.539
 14.170    560.000    574.281    -14.281    573.337    574.219    573.337    573.398    573.337
 14.270    609.040    574.005     35.036    573.132    573.943    573.132    573.194    573.132
 14.370    592.000    573.736     18.264    572.925    573.675    572.925    572.987    572.925
 14.470    560.000    573.477    -13.477    572.715    573.415    572.715    572.777    572.715
 14.570    559.000    573.220    -14.220    572.503    573.157    572.503    572.565    572.503
 14.670    594.331    572.965     21.367    572.289    572.902    572.289    572.351    572.289
 14.770    575.000    572.712      2.288    572.072    572.649    572.072    572.134    572.072
 14.870    591.595    572.462     19.133    571.852    572.398    571.852    571.915    571.852
 14.970    528.000    572.212    -44.212    571.631    572.148    571.631    571.694    571.631
 15.070    545.000    571.964    -26.964    571.407    571.900    571.407    571.471    571.407
 15.170    560.000    571.719    -11.719    571.181    571.651    571.181    571.249    571.181
 15.270    546.000    571.474    -25.474    570.952    571.404    570.952    571.022    570.952
 15.370    542.396    571.228    -28.831    570.722    571.157    570.722    570.792    570.722
 15.470    528.643    570.979    -42.336    570.489    570.908    570.489    570.560    570.489
 15.570    561.000    570.730     -9.730    570.254    570.659    570.254    570.325    570.254
 15.670    612.302    570.481     41.821    570.017    570.409    570.017    570.089    570.017
 15.770    583.659    570.231     13.428    569.778    570.159    569.778    569.850    569.778
 15.870    550.000    569.980    -19.980    569.537    569.907    569.537    569.610    569.537
 15.970    560.000    569.728     -9.728    569.294    569.655    569.294    569.367    569.294
 16.070    573.000    569.475      3.525    569.049    569.401    569.049    569.122    569.049
 16.170    564.000    569.221     -5.221    568.802    569.147    568.802    568.876    568.802
 16.270    612.526    568.965     43.561    568.554    568.891    568.554    568.628    568.554
 16.370    576.000    568.709      7.291    568.303    568.635    568.303    568.378    568.303
 16.470    524.602    568.452    -43.849    568.051    568.377    568.051    568.126    568.051
 16.570    518.000    568.193    -50.193    567.796    568.118    567.796    567.872    567.796
 16.670    539.578    567.933    -28.355    567.540    567.857    567.540    567.616    567.540
 16.770    562.000    567.672     -5.672    567.283    567.596    567.283    567.359    567.283
 16.870    559.000    567.410     -8.410    567.023    567.333    567.023    567.100    567.023
 16.970    576.000    567.147      8.853    566.762    567.069    566.762    566.839    566.762
 17.070    542.630    566.882    -24.252    566.500    566.805    566.500    566.577    566.500
 17.170    576.000    566.619      9.381    566.235    566.540    566.235    566.313    566.235
 17.270    550.000    566.352    -16.352    565.969    566.273    565.969    566.048    565.969
 17.370    523.341    566.084    -42.743    565.702    566.005    565.702    565.781    565.702
 17.470    528.302    565.814    -37.512    565.433    565.735    565.433    565.512    565.433
 17.570    596.000    565.544     30.456    565.162    565.464    565.162    565.242    565.162
 17.670    539.000    565.272    -26.272    564.890    565.191    564.890    564.971    564.890
 17.770    547.000    564.999    -17.999    564.617    564.918    564.617    564.698    564.617
 17.870    569.000    564.725      4.275    564.342    564.643    564.342    564.424    564.342
 17.970    536.000    564.450    -28.450    564.066    564.368    564.066    564.148    564.066
 18.070    528.581    564.174    -35.593    563.788    564.091    563.788    563.871    563.788
 18.170    595.000    563.897     31.103    563.509    563.814    563.509    563.593    563.509
 18.270    589.000    563.620     25.380    563.229    563.535    563.229    563.313    563.229
 18.370    547.000    563.341    -16.341    562.948    563.256    562.948    563.033    562.948
 18.470    555.000    563.061     -8.061    562.665    562.976    562.665    562.751    562.665
 18.570    575.000    562.780     12.220    562.381    562.694    562.381    562.467    562.381
 18.670    592.379    562.498     29.880    562.096    562.412    562.096    562.183    562.096
 18.770    570.313    562.216      8.098    561.810    562.128    561.810    561.897    561.810
 18.870    587.000    561.932     25.068    561.522    561.844    561.522    561.611    561.522
 18.970    521.000    561.648    -40.648    561.234    561.559    561.234    561.323    561.234
 19.070    569.000    561.363      7.637    560.944    561.274    560.944    561.034    560.944
 19.170    551.000    561.078    -10.078    560.654    560.988    560.654    560.744    560.654
 19.270    538.507    560.792    -22.285    560.362    560.701    560.362    560.453    560.362
 19.370    524.351    560.505    -36.153    560.070    560.413    560.070    560.161    560.070
 19.470    494.000    560.217    -66.217    559.776    560.124    559.776    559.869    559.776
 19.570    530.000    559.928    -29.928    559.482    559.835    559.482    559.575    559.482
 19.670    588.034    559.640     28.393    559.186    559.547    559.186    559.280    559.186
 19.770    572.994    559.365     13.630    558.890    559.270    558.890    558.985    558.890
 19.870    597.521    559.085     38.436    558.593    558.989    558.593    558.688    558.593
 19.970    540.695    558.797    -18.102    558.295    558.699    558.295    558.393    558.295
 20.070    538.770    558.507    -19.737    557.996    558.407    557.996    558.096    557.996
 20.170    520.928    558.216    -37.288    557.696    558.115    557.696    557.797    557.696
 20.270    581.000    557.925     23.075    557.396    557.823    557.396    557.498    557.396
 20.370    593.700    557.633     36.067    557.095    557.531    557.095    557.197    557.095
 20.470    567.513    557.342     10.172    556.793    557.238    556.793    556.896    556.793
 20.570    529.632    557.050    -27.418    556.490    556.945    556.490    556.595    556.490
 20.670    547.000    556.758     -9.758    556.187    556.653    556.187    556.293    556.187
 20.770    592.866    556.466     36.399    555.883    556.360    555.883    555.990    555.883
 20.870    540.000    556.175    -16.175    555.579    556.067    555.579    555.686    555.579
 20.970    563.000    555.883      7.117    555.274    555.775    555.274    555.382    555.274
 21.070    530.000    555.601    -25.601    554.968    555.491    554.968    555.078    554.968
 21.170    577.000    555.397     21.603    554.662    555.286    554.662    554.773    554.662
 21.270    590.476    555.129     35.347    554.355    555.017    554.355    554.467    554.355
 21.370    556.507    554.841      1.666    554.048    554.728    554.048    554.161    554.048
 21.470    566.000    554.552     11.448    553.740    554.438    553.740    553.855    553.740
 21.570    535.000    554.265    -19.265    553.432    554.149    553.432    553.548    553.432
 21.670    558.000    553.978      4.022    553.124    553.861    553.124    553.241    553.124
 21.770    546.431    553.695     -7.264    552.815    553.576    552.815    552.933    552.815
 21.870    544.981    553.433     -8.452    552.505    553.313    552.505    552.625    552.505
 21.970    529.468    553.179    -23.712    552.195    553.058    552.195    552.317    552.195
 22.070    589.000    552.902     36.098    551.885    552.780    551.885    552.008    551.885
 22.170    571.000    552.625     18.375    551.575    552.501    551.575    551.699    551.575
 22.270    569.000    552.357     16.643    551.264    552.231    551.264    551.390    551.264
 22.370    559.532    552.135      7.397    550.953    552.008    550.953    551.081    550.953
 22.470    560.000    551.887      8.113    550.642    551.758    550.642    550.771    550.642
 22.570    508.137    551.626    -43.489    550.331    551.495    550.331    550.462    550.331
 22.670    570.000    551.369     18.631    550.019    551.236    550.019    550.152    550.019
 22.770    566.000    551.118     14.882    549.707    550.983    549.707    549.842    549.707
 22.870    523.000    550.876    -27.876    549.395    550.739    549.395    549.532    549.395
 22.970    591.000    550.645     40.355    549.083    550.506    549.083    549.222    549.083
 23.070    536.000    550.423    -14.423    548.770    550.282    548.770    548.911    548.770
 23.170    534.660    550.214    -15.554    548.458    550.072    548.458    548.601    548.458
 23.270    545.973    550.024     -4.051    548.145    549.879    548.145    548.291    548.145
 23.370    545.000    549.856     -4.856    547.833    549.709    547.833    547.981    547.833
 23.470    519.539    549.717    -30.178    547.520    549.567    547.520    547.671    547.520
 23.570    516.497    549.616    -33.119    547.208    549.464    547.208    547.360    547.208
 23.670    571.615    549.566     22.049    546.895    549.412    546.895    547.050    546.895
 23.770    598.000    549.587     48.413    546.582    549.430    546.582    546.741    546.582
 23.870    550.267    549.708      0.559    546.270    549.548    546.270    546.431    546.270
 23.970    507.723    549.984    -42.261    545.957    549.822    545.957    546.121    545.957
 24.070    573.000    550.546     22.454    545.644    550.381    545.644    545.812    545.644
 24.170    528.000    551.765    -23.765    545.332    551.597    545.332    545.503    545.332
 24.270    562.000    554.631      7.369    545.020    554.462    545.020    545.194    545.020
 24.370    563.000    561.215      1.785    544.707    561.047    544.707    544.886    544.707
 24.470    572.000    574.378     -2.378    544.395    574.216    544.395    544.578    544.395
 24.570    627.000    595.521     31.479    544.083    595.370    544.083    544.270    544.083
 24.670    614.000    620.496     -6.496    543.772    620.359    543.772    543.962    543.772
 24.770    609.021    637.046    -28.025    543.460    636.916    543.460    543.656    543.460
 24.870    643.000    633.006      9.994    543.149    632.868    543.149    543.349    543.149
 24.970    583.334    611.689    -28.354    542.838    611.531    542.838    543.043    542.838
 25.070    628.000    586.699     41.301    542.527    586.519    542.527    542.738    542.527
 25.170    611.000    567.599     43.401    542.216    567.399    542.216    542.433    542.216
 25.270    557.000    556.312      0.688    541.906    556.098    541.906    542.129    541.906
 25.370    536.000    550.650    -14.650    541.596    550.425    541.596    541.826    541.596
 25.470    510.000    547.930    -37.930    541.287    547.697    541.287    541.523    541.287
 25.570    560.000    546.471     13.529    540.977    546.229    540.977    541.221    540.977
 25.670    532.894    545.524    -12.630    540.668    545.274    540.668    540.920    540.668
 25.770    508.000    544.817    -36.817    540.360    544.558    540.360    540.620    540.360
 25.870    528.048    544.255    -16.208    540.052    543.986    540.052    540.321    540.052
 25.970    556.000    543.795     12.205    539.744    543.516    539.744    540.024    539.744
 26.070    527.955    543.415    -15.460    539.436    543.125    539.436    539.727    539.436
 26.170    540.000    543.125     -3.125    539.129    542.823    539.129    539.432    539.129
 26.270    485.000    542.887    -57.887    538.823    542.572    538.823    539.138    538.823
 26.370    582.000    542.679     39.321    538.517    542.350    538.517    538.846    538.517
 26.470    512.518    542.524    -30.006    538.211    542.180    538.211    538.555    538.211
 26.570    540.514    542.431     -1.917    537.906    542.070    537.906    538.267    537.906
 26.670    543.000    542.399      0.601    537.602    542.020    537.602    537.980    537.602
 26.770    535.000    542.421     -7.421    537.298    542.022    537.298    537.696    537.298
 26.870    549.000    542.523      6.477    536.995    542.103    536.995    537.414    536.995
 26.970    559.379    542.736     16.643    536.692    542.291    536.692    537.136    536.692
 27.070    509.000    543.088    -34.088    536.389    542.616    536.389    536.860    536.389
 27.170    549.473    543.583      5.889    536.088    543.082    536.088    536.589    536.088
 27.270    589.000    544.301     44.699    535.787    543.765    535.787    536.321    535.787
 27.370    520.000    545.332    -25.332    535.486    544.758    535.486    536.059    535.486
 27.470    573.812    546.842     26.970    535.186    546.225    535.186    535.802    535.186
 27.570    562.000    549.261     12.739    534.887    548.594    534.887    535.551    534.887
 27.670    548.219    554.068     -5.849    534.589    553.344    534.589    535.309    534.589
 27.770    574.793    566.079      8.714    534.291    565.286    534.291    535.075    534.291
 27.870    657.000    596.990     60.010    533.994    596.111    533.994    534.853    533.994
 27.970    646.000    664.222    -18.222    533.697    663.234    533.697    534.644    533.697
 28.070    749.000    774.631    -25.631    533.401    773.506    533.401    534.451    533.401
 28.170    902.000    896.991      5.009    533.106    895.716    533.106    534.278    533.106
 28.270    967.000    957.301      9.699    532.812    955.879    532.812    534.131    532.812
 28.370    955.736    906.751     48.986    532.519    905.186    532.519    534.017    532.519
 28.470    823.000    797.518     25.482    532.226    795.767    532.226    533.947    532.226
 28.570    749.000    712.615     36.385    531.934    710.596    531.934    533.939    531.934
 28.670    680.000    695.031    -15.031    531.643    692.634    531.643    534.023    531.643
 28.770    751.000    740.288     10.712    531.353    737.369    531.353    534.249    531.353
 28.870    773.000    808.692    -35.692    531.063    805.042    531.063    534.696    531.063
 28.970    844.931    840.851      4.080    530.774    836.143    530.774    535.480    530.774
 29.070    743.000    801.515    -58.515    530.487    795.260    530.487    536.750    530.487
 29.170    731.626    721.166     10.460    530.200    712.711    530.200    538.664    530.200
 29.270    631.000    646.957    -15.957    529.914    635.538    529.914    541.339    529.914
 29.370    625.000    600.301     24.699    529.628    585.182    529.628    544.749    529.628
 29.470    600.000    578.768     21.232    529.344    559.572    529.344    548.540    529.344
 29.570    549.000    571.058    -22.058    529.061    548.330    529.061    551.787    529.061
 29.670    554.379    567.634    -13.256    528.778    543.306    528.778    553.105    528.778
 29.770    574.000    563.782     10.218    528.497    540.605    528.497    551.672    528.497
 29.870    598.578    558.750     39.828    528.216    538.854    528.216    548.110    528.216
 29.970    552.000    553.474     -1.474    527.937    537.626    527.937    543.783    527.937
 30.070    578.406    548.839     29.568    527.658    536.783    527.658    539.712    527.658
 30.170    569.000    545.258     23.742    527.380    536.299    527.380    536.337    527.380
 30.270    599.000    542.914     56.086    527.104    536.286    527.104    533.729    527.104
 30.370    517.000    542.158    -25.158    526.828    537.191    526.828    531.791    526.828
 30.470    557.115    544.007     13.108    526.553    540.185    526.553    530.368    526.553
 30.570    560.000    550.459      9.541    526.279    547.420    526.279    529.306    526.279
 30.670    582.000    563.709     18.291    526.007    561.208    526.007    528.484    526.007
 30.770    634.000    583.554     50.446    525.735    581.434    525.735    527.817    525.735
 30.870    580.897    604.099    -23.203    525.465    602.262    525.465    527.249    525.465
 30.970    593.000    613.474    -20.474    525.195    611.864    525.195    526.749    525.195
 31.070    659.000    603.821     55.179    524.927    602.406    524.927    526.295    524.927
 31.170    584.702    582.426      2.277    524.659    581.178    524.659    525.877    524.659
 31.270    561.518    561.159      0.359    524.393    560.050    524.393    525.486    524.393
 31.370    534.000    546.166    -12.166    524.128    545.170    524.128    525.116    524.128
 31.470    552.000    537.776     14.224    523.864    536.872    523.864    524.763    523.864
 31.570    553.000    533.720     19.280    523.601    532.893    523.601    524.425    523.601
 31.670    560.000    531.798     28.202    523.339    531.037    523.339    524.099    523.339
 31.770    553.000    530.765     22.235    523.079    530.059    523.079    523.782    523.079
 31.870    544.000    530.106     13.894    522.819    529.449    522.819    523.474    522.819
 31.970    552.000    529.648     22.352    522.561    529.034    522.561    523.173    522.561
 32.070    519.000    529.332    -10.332    522.303    528.755    522.303    522.879    522.303
 32.170    568.698    529.134     39.564    522.047    528.590    522.047    522.590    522.047
 32.270    528.000    529.046     -1.046    521.793    528.532    521.793    522.306    521.793
 32.370    507.403    529.069    -21.666    521.539    528.580    521.539    522.026    521.539
 32.470    544.694    529.211     15.483    521.286    528.745    521.286    521.750    521.286
 32.570    550.036    529.488     20.548    521.035    529.044    521.035    521.478    521.035
 32.670    552.720    529.927     22.793    520.785    529.501    520.785    521.210    520.785
 32.770    523.000    530.566     -7.566    520.536    530.157    520.536    520.944    520.536
 32.870    561.870    531.462     30.408    520.289    531.068    520.289    520.681    520.289
 32.970    537.000    532.698      4.302    520.042    532.318    520.042    520.421    520.042
 33.070    496.879    534.404    -37.525    519.797    534.036    519.797    520.164    519.797
 33.170    541.000    536.815      4.185    519.553    536.458    519.553    519.908    519.553
 33.270    538.000    540.477     -2.477    519.311    540.130    519.311    519.656    519.311
 33.370    502.050    546.869    -44.819    519.069    546.530    519.069    519.405    519.069
 33.470    589.800    559.857     29.944    518.829    559.523    518.829    519.156    518.829
 33.570    601.000    587.755     13.245    518.590    587.424    518.590    518.910    518.590
 33.670    645.000    643.615      1.385    518.353    643.280    518.353    518.665    518.353
 33.770    725.000    739.136    -14.136    518.117    738.791    518.117    518.422    518.117
 33.870    888.000    870.377     17.623    517.882    870.020    517.882    518.181    517.882
 33.970    952.000   1001.745    -49.745    517.648   1001.382    517.648    517.942    517.648
 34.070   1087.000   1066.063     20.937    517.416   1065.714    517.416    517.705    517.416
 34.170   1063.664   1017.770     45.894    517.185   1017.452    517.185    517.469    517.185
 34.270    869.000    892.558    -23.558    516.955    892.270    516.955    517.235    516.955
 34.370    710.000    758.022    -48.022    516.727    757.750    516.727    517.003    516.727
 34.470    627.000    655.380    -28.380    516.500    655.115    516.500    516.773    516.500
 34.570    624.055    592.931     31.124    516.274    592.666    516.274    516.544    516.274
 34.670    573.000    560.621     12.379    516.050    560.357    516.050    516.317    516.050
 34.770    581.000    545.154     35.846    515.827    544.890    515.827    516.091    515.827
 34.870    541.000    537.394      3.606    515.606    537.132    515.606    515.867    515.606
 34.970    508.779    532.854    -24.075    515.385    532.594    515.385    515.645    515.385
 35.070    542.279    529.745     12.534    515.167    529.487    515.167    515.424    515.167
 35.170    574.000    527.408     46.592    514.949    527.152    514.949    515.205    514.949
 35.270    576.000    525.567     50.433    514.733    525.312    514.733    514.987    514.733
 35.370    535.397    524.075     11.322    514.518    523.822    514.518    514.771    514.518
 35.470    515.000    522.843     -7.843    514.305    522.591    514.305    514.556    514.305
 35.570    483.000    521.806    -38.806    514.093    521.555    514.093    514.344    514.093
 35.670    527.974    520.920      7.054    513.883    520.670    513.883    514.132    513.883
 35.770    483.890    520.153    -36.262    513.674    519.904    513.674    513.922    513.674
 35.870    516.000    519.480     -3.480    513.466    519.232    513.466    513.714    513.466
 35.970    502.000    518.886    -16.886    513.260    518.638    513.260    513.507    513.260
 36.070    504.000    518.355    -14.355    513.055    518.108    513.055    513.302    513.055
 36.170    498.000    517.879    -19.879    512.851    517.632    512.851    513.098    512.851
 36.270    529.759    517.449     12.310    512.650    517.203    512.650    512.896    512.650
 36.370    502.000    517.061    -15.061    512.449    516.815    512.449    512.696    512.449
 36.470    481.047    516.712    -35.665    512.250    516.465    512.250    512.497    512.250
 36.570    544.000    516.399     27.601    512.052    516.152    512.052    512.299    512.052
 36.670    570.000    516.125     53.875    511.856    515.878    511.856    512.103    511.856
 36.770    499.000    515.894    -16.894    511.661    515.647    511.661    511.909    511.661
 36.870    513.000    515.727     -2.727    511.468    515.479    511.468    511.716    511.468
 36.970    492.000    515.675    -23.675    511.276    515.427    511.276    511.524    511.276
 37.070    523.074    515.862      7.212    511.086    515.614    511.086    511.335    511.086
 37.170    529.111    516.529     12.582    510.897    516.280    510.897    511.146    510.897
 37.270    553.000    518.017     34.983    510.709    517.767    510.709    510.960    510.709
 37.370    556.000    520.609     35.391    510.523    520.358    510.523    510.775    510.523
 37.470    485.000    524.208    -39.208    510.339    523.958    510.339    510.591    510.339
 37.570    570.973    527.989     42.984    510.156    527.738    510.156    510.409    510.156
 37.670    507.151    530.363    -23.212    509.974    530.113    509.974    510.229    509.974
 37.770    545.000    530.007     14.993    509.794    529.758    509.794    510.050    509.794
 37.870    519.000    527.259     -8.259    509.616    527.011    509.616    509.872    509.616
 37.970    530.000    523.569      6.431    509.439    523.321    509.439    509.697    509.439
 38.070    467.000    520.075    -53.075    509.263    519.826    509.263    509.522    509.263
 38.170    547.602    517.235     30.367    509.089    516.983    509.089    509.350    509.089
 38.270    522.714    515.145      7.569    508.916    514.890    508.916    509.179    508.916
 38.370    505.000    513.717     -8.717    508.745    513.457    508.745    509.009    508.745
 38.470    532.684    512.777     19.907    508.575    512.514    508.575    508.841    508.575
 38.570    502.000    512.160    -10.160    508.407    511.893    508.407    508.675    508.407
 38.670    524.000    511.737     12.263    508.241    511.468    508.241    508.510    508.241
 38.770    545.168    511.423     33.745    508.075    511.152    508.075    508.347    508.075
 38.870    515.000    511.168      3.832    507.912    510.895    507.912    508.185    507.912
 38.970    521.000    510.946     10.054    507.750    510.670    507.750    508.025    507.750
 39.070    454.000    510.744    -56.744    507.589    510.467    507.589    507.867    507.589
 39.170    508.000    510.558     -2.558    507.430    510.278    507.430    507.710    507.430
 39.270    492.000    510.385    -18.385    507.272    510.102    507.272    507.555    507.272
 39.370    525.000    510.222     14.778    507.116    509.937    507.116    507.401    507.116
 39.470    544.000    510.068     33.932    506.962    509.781    506.962    507.249    506.962
 39.570    510.861    509.923      0.938    506.809    509.633    506.809    507.099    506.809
 39.670    528.425    509.786     18.639    506.657    509.494    506.657    506.950    506.657
 39.770    551.569    509.657     41.912    506.507    509.362    506.507    506.803    506.507
 39.870    473.000    509.536    -36.536    506.359    509.238    506.359    506.657    506.359
 39.970    523.000    509.423     13.577    506.212    509.122    506.212    506.513    506.212
 40.070    518.739    509.318      9.421    506.066    509.014    506.066    506.371    506.066
 40.170    496.877    509.221    -12.345    505.922    508.914    505.922    506.230    505.922
 40.270    544.488    509.134     35.354    505.780    508.823    505.780    506.091    505.780
 40.370    539.000    509.057     29.943    505.639    508.743    505.639    505.954    505.639
 40.470    490.000    508.990    -18.990    505.500    508.673    505.500    505.818    505.500
 40.570    506.898    508.936     -2.039    505.362    508.615    505.362    505.683    505.362
 40.670    570.000    508.896     61.104    505.226    508.572    505.226    505.551    505.226
 40.770    498.061    508.873    -10.811    505.091    508.544    505.091    505.420    505.091
 40.870    467.000    508.868    -41.868    504.957    508.535    504.957    505.291    504.957
 40.970    523.000    508.885     14.115    504.826    508.548    504.826    505.163    504.826
 41.070    481.000    508.930    -27.930    504.695    508.589    504.695    505.037    504.695
 41.170    489.132    509.008    -19.875    504.567    508.662    504.567    504.913    504.567
 41.270    465.000    509.127    -44.127    504.440    508.777    504.440    504.790    504.440
 41.370    478.035    509.299    -31.263    504.314    508.945    504.314    504.669    504.314
 41.470    529.000    509.539     19.461    504.190    509.180    504.190    504.550    504.190
 41.570    525.604    509.873     15.731    504.067    509.510    504.067    504.432    504.067
 41.670    528.000    510.347     17.653    503.946    509.978    503.946    504.316    503.946
 41.770    527.000    511.061     15.939    503.826    510.688    503.826    504.202    503.826
 41.870    516.000    512.261      3.739    503.708    511.882    503.708    504.089    503.708
 41.970    555.000    514.506     40.494    503.592    514.123    503.592    503.978    503.592
 42.070    479.000    518.909    -39.909    503.477    518.522    503.477    503.869    503.477
 42.170    531.000    527.234      3.766    503.363    526.845    503.363    503.762    503.363
 42.270    523.673    541.487    -17.814    503.251    541.098    503.251    503.656    503.251
 42.370    557.000    562.689     -5.689    503.141    562.304    503.141    503.552    503.141
 42.470    623.015    589.070     33.945    503.032    588.691    503.032    503.450    503.032
 42.570    607.627    614.495     -6.868    502.924    614.122    502.924    503.350    502.924
 42.670    656.000    629.026     26.974    502.818    628.656    502.818    503.251    502.818
 42.770    615.000    625.091    -10.091    502.714    624.715    502.714    503.154    502.714
 42.870    558.000    604.994    -46.994    502.611    604.602    502.611    503.059    502.611
 42.970    539.717    578.188    -38.471    502.509    577.774    502.509    502.966    502.509
 43.070    518.000    553.328    -35.328    502.409    552.892    502.409    502.874    502.409
 43.170    491.633    534.723    -43.090    502.311    534.267    502.311    502.785    502.311
 43.270    539.000    522.850     16.150    502.214    522.377    502.214    502.697    502.214
 43.370    509.000    516.135     -7.135    502.118    515.649    502.118    502.611    502.118
 43.470    553.939    512.592     41.346    502.025    512.093    502.025    502.527    502.025
 43.570    480.000    510.711    -30.711    501.932    510.200    501.932    502.445    501.932
 43.670    547.289    509.618     37.670    501.841    509.096    501.841    502.365    501.841
 43.770    468.000    508.899    -40.899    501.752    508.365    501.752    502.287    501.752
 43.870    531.000    508.375     22.625    501.664    507.828    501.664    502.211    501.664
 43.970    537.000    507.972     29.028    501.577    507.413    501.577    502.137    501.577
 44.070    505.000    507.654     -2.654    501.492    507.081    501.492    502.065    501.492
 44.170    523.000    507.401     15.599    501.408    506.814    501.408    501.996    501.408
 44.270    501.000    507.198     -6.198    501.326    506.597    501.326    501.928    501.326
 44.370    528.000    507.036     20.964    501.246    506.420    501.246    501.863    501.246
 44.470    500.000    506.909     -6.909    501.167    506.276    501.167    501.799    501.167
 44.570    504.000    506.810     -2.810    501.089    506.160    501.089    501.739    501.089
 44.670    516.000    506.736      9.264    501.013    506.069    501.013    501.680    501.013
 44.770    511.906    506.685      5.221    500.938    505.999    500.938    501.624    500.938
 44.870    500.000    506.654     -6.654    500.865    505.948    500.865    501.570    500.865
 44.970    469.000    506.641    -37.641    500.793    505.915    500.793    501.520    500.793
 45.070    532.000    506.647     25.353    500.722    505.898    500.722    501.471    500.722
 45.170    485.000    506.669    -21.669    500.653    505.897    500.653    501.426    500.653
 45.270    500.000    506.709     -6.709    500.586    505.911    500.586    501.383    500.586
 45.370    483.032    506.766    -23.734    500.520    505.942    500.520    501.344    500.520
 45.470    490.000    506.840    -16.840    500.455    505.987    500.455    501.308    500.455
 45.570    533.000    506.932     26.068    500.392    506.050    500.392    501.275    500.392
 45.670    536.477    507.044     29.433    500.330    506.129    500.330    501.245    500.330
 45.770    473.000    507.177    -34.177    500.270    506.226    500.270    501.220    500.270
 45.870    508.034    507.331      0.703    500.211    506.344    500.211    501.198    500.211
 45.970    491.089    507.511    -16.422    500.154    506.483    500.154    501.181    500.154
 46.070    499.000    507.718     -8.718    500.098    506.647    500.098    501.168    500.098
 46.170    474.000    507.956    -33.956    500.043    506.838    500.043    501.160    500.043
 46.270    541.522    508.230     33.292    499.990    507.062    499.990    501.157    499.990
 46.370    541.881    508.546     33.335    499.938    507.323    499.938    501.161    499.938
 46.470    525.000    508.912     16.088    499.887    507.628    499.887    501.170    499.887
 46.570    491.000    509.338    -18.338    499.838    507.988    499.838    501.187    499.838
 46.670    510.920    509.839      1.081    499.791    508.418    499.791    501.211    499.791
 46.770    539.000    510.444     28.556    499.744    508.943    499.744    501.243    499.744
 46.870    510.000    511.209     -1.209    499.700    509.621    499.700    501.286    499.700
 46.970    523.000    512.259     10.741    499.656    510.574    499.656    501.338    499.656
 47.070    479.840    513.865    -34.025    499.614    512.072    499.614    501.403    499.614
 47.170    519.000    516.547      2.453    499.573    514.632    499.573    501.482    499.573
 47.270    504.000    521.138    -17.138    499.534    519.086    499.534    501.577    499.534
 47.370    513.000    528.687    -15.687    499.496    526.479    499.496    501.690    499.496
 47.470    561.000    540.026     20.974    499.459    537.639    499.459    501.824    499.459
 47.570    536.236    555.049    -18.813    499.424    552.456    499.424    501.983    499.424
 47.670    594.000    571.943     22.057    499.390    569.115    499.390    502.172    499.390
 47.770    594.000    586.754      7.246    499.357    583.659    499.357    502.396    499.357
 47.870    630.000    594.218     35.782    499.326    590.822    499.326    502.664    499.326
 47.970    635.000    591.227     43.773    499.296    587.484    499.296    502.985    499.296
 48.070    554.932    579.899    -24.967    499.268    575.748    499.268    503.375    499.268
 48.170    542.000    565.366    -23.366    499.240    560.719    499.240    503.855    499.240
 48.270    558.000    552.100      5.900    499.214    546.832    499.214    504.461    499.214
 48.370    570.000    542.513     27.487    499.190    536.438    499.190    505.250    499.190
 48.470    525.000    537.206    -12.206    499.166    530.048    499.166    506.315    499.166
 48.570    564.000    535.715     28.285    499.144    527.054    499.144    507.800    499.144
 48.670    499.000    537.285    -38.285    499.124    526.492    499.124    509.912    499.124
 48.770    571.000    541.383     29.617    499.104    527.553    499.104    512.930    499.104
 48.870    508.000    547.868    -39.868    499.086    529.767    499.086    517.183    499.086
 48.970    527.000    556.927    -29.927    499.069    532.996    499.069    522.995    499.069
 49.070    570.000    568.968      1.032    499.053    537.423    499.053    530.592    499.053
 49.170    594.000    584.659      9.341    499.039    543.729    499.039    539.962    499.039
 49.270    557.000    605.399    -48.399    499.026    553.754    499.026    550.661    499.026
 49.370    633.000    634.620     -1.620    499.014    572.063    499.014    561.555    499.014
 49.470    690.000    680.305      9.695    499.004    608.648    499.004    570.634    499.004
 49.570    793.000    758.390     34.610    498.994    681.942    498.994    575.393    498.994
 49.670    902.656    894.324      8.331    498.986    819.041    498.986    574.186    498.986
 49.770   1140.088   1116.833     23.255    498.979   1048.204    498.979    567.478    498.979
 49.870   1569.000   1439.568    129.432    498.974   1380.927    498.974    557.440    498.974
 49.970   1832.612   1836.391     -3.779    498.969   1788.703    498.969    546.462    498.969
 50.070   2183.000   2225.685    -42.685    498.966   2188.280    498.966    536.203    498.966
 50.170   2488.000   2482.824      5.176    498.964   2454.208    498.964    527.501    498.964
 50.270   2543.000   2499.640     43.360    498.964   2478.033    498.964    520.610    498.964
 50.370   2148.000   2265.478   -117.478    498.964   2249.143    498.964    515.434    498.964
 50.470   1849.000   1877.918    -28.918    498.966   1865.361    498.966    511.696    498.966
 50.570   1535.783   1466.287     69.495    498.968   1456.356    498.968    509.063    498.968
 50.670   1072.000   1123.282    -51.282    498.972   1115.161    498.972    507.222    498.972
 50.770    815.000    885.726    -70.726    498.978    878.872    498.978    505.921    498.978
 50.870    698.000    745.935    -47.935    498.984    740.003    498.984    504.978    498.984
 50.970    703.494    674.479     29.015    498.991    669.246    498.991    504.271    498.991
 51.070    597.677    640.015    -42.338    499.000    635.331    499.000    503.723    499.000
 51.170    634.000    619.948     14.052    499.010    615.706    499.010    503.286    499.010
 51.270    609.000    603.021      5.979    499.021    599.140    499.021    502.930    499.021
 51.370    614.243    586.475     27.767    499.033    582.894    499.033    502.637    499.033
 51.470    596.000    571.240     24.760    499.046    567.910    499.046    502.393    499.046
 51.570    561.000    558.659      2.341    499.060    555.541    499.060    502.190    499.060
 51.670    557.000    549.351      7.649    499.076    546.414    499.076    502.021    499.076
 51.770    520.013    543.153    -23.140    499.092    540.371    499.092    501.879    499.092
 51.870    524.000    539.445    -15.445    499.110    536.797    499.110    501.762    499.110
 51.970    523.000    537.530    -14.530    499.129    534.997    499.129    501.665    499.129
 52.070    584.000    536.869     47.131    499.149    534.434    499.149    501.586    499.149
 52.170    525.927    537.168    -11.241    499.169    534.816    499.169    501.523    499.169
 52.270    570.907    538.378     32.529    499.191    536.098    499.191    501.473    499.191
 52.370    542.000    540.727      1.273    499.215    538.507    499.215    501.436    499.215
 52.470    555.000    544.874     10.126    499.239    542.704    499.239    501.410    499.239
 52.570    531.000    552.271    -21.271    499.264    550.142    499.264    501.394    499.264
 52.670    577.000    565.700     11.300    499.290    563.603    499.290    501.387    499.290
 52.770    682.000    589.772     92.228    499.317    587.699    499.317    501.388    499.317
 52.870    663.813    630.860     32.953    499.345    628.805    499.345    501.397    499.345
 52.970    685.000    695.744    -10.744    499.375    693.699    499.375    501.413    499.375
 53.070    817.000    788.569     28.431    499.405    786.529    499.405    501.437    499.405
 53.170    908.000    906.631      1.369    499.436    904.592    499.436    501.467    499.436
 53.270   1102.000   1036.383     65.617    499.469   1034.344    499.469    501.503    499.469
 53.370   1095.000   1151.630    -56.630    499.502   1149.589    499.502    501.545    499.502
 53.470   1157.929   1218.235    -60.306    499.536   1216.193    499.536    501.594    499.536
 53.570   1162.000   1211.206    -49.206    499.571   1209.157    499.571    501.648    499.571
 53.670   1068.000   1133.687    -65.687    499.608   1131.621    499.608    501.708    499.608
 53.770   1017.000   1014.043      2.957    499.645   1011.949    499.645    501.774    499.645
 53.870    904.000    885.592     18.408    499.683    883.460    499.683    501.846    499.683
 53.970    757.000    772.207    -15.207    499.722    770.029    499.722    501.924    499.722
 54.070    686.000    685.204      0.796    499.762    682.975    499.762    502.008    499.762
 54.170    590.604    625.714    -35.110    499.803    623.429    499.803    502.099    499.803
 54.270    592.690    588.836      3.854    499.845    586.492    499.845    502.195    499.845
 54.370    522.980    567.717    -44.738    499.888    565.310    499.888    502.299    499.888
 54.470    566.000    556.271      9.729    499.931    553.795    499.931    502.410    499.931
 54.570    552.000    550.246      1.754    499.976    547.696    499.976    502.528    499.976
 54.670    572.515    547.143     25.372    500.022    544.512    500.022    502.654    500.022
 54.770    573.000    545.674     27.326    500.068    542.955    500.068    502.788    500.068
 54.870    535.306    545.247     -9.940    500.115    542.431    500.115    502.931    500.115
 54.970    568.692    545.608     23.084    500.163    542.688    500.163    503.084    500.163
 55.070    627.000    546.667     80.333    500.212    543.633    500.212    503.247    500.212
 55.170    545.773    548.413     -2.640    500.262    545.254    500.262    503.422    500.262
 55.270    607.000    550.886     56.114    500.313    547.591    500.313    503.608    500.313
 55.370    568.000    554.179     13.821    500.364    550.736    500.364    503.808    500.364
 55.470    599.177    558.466     40.711    500.417    554.860    500.417    504.022    500.417
 55.570    567.000    564.077      2.923    500.470    560.294    500.470    504.253    500.470
 55.670    585.000    571.697     13.303    500.524    567.719    500.524    504.501    500.524
 55.770    575.000    582.802     -7.802    500.579    578.610    500.579    504.769    500.579
 55.870    575.000    600.502    -25.502    500.634    596.074    500.634    505.059    500.634
 55.970    659.389    630.845     28.544    500.690    626.155    500.690    505.374    500.690
 56.070    651.000    684.324    -33.324    500.748    679.341    500.748    505.716    500.748
 56.170    753.000    776.610    -23.610    500.806    771.300    500.806    506.091    500.806
 56.270    935.000    926.859      8.141    500.864    921.182    500.864    506.500    500.864
 56.370   1145.805   1152.017     -6.212    500.924   1145.931    500.924    506.951    500.924
 56.470   1403.380   1457.119    -53.739    500.984   1450.583    500.984    507.448    500.984
 56.570   1763.035   1824.254    -61.219    501.045   1817.227    501.045    508.000    501.045
 56.670   2217.988   2204.531     13.457    501.106   2196.974    501.106    508.614    501.106
 56.770   2552.791   2518.266     34.526    501.169   2510.137    501.169    509.302    501.169
 56.870   2580.000   2674.253    -94.253    501.232   2665.494    501.232    510.076    501.232
 56.970   2644.000   2617.719     26.281    501.295   2608.231    501.295    510.954    501.295
 57.070   2456.664   2371.029     85.635    501.360   2360.660    501.360    511.955    501.360
 57.170   2084.000   2014.896     69.104    501.425   2003.451    501.425    513.110    501.425
 57.270   1631.898   1637.684     -5.786    501.491   1624.932    501.491    514.459    501.491
 57.370   1337.000   1303.470     33.530    501.557   1289.136    501.557    516.065    501.557
 57.470    996.556   1044.322    -47.766    501.624   1028.049    501.624    518.023    501.624
 57.570    907.403    865.118     42.284    501.692    846.405    501.692    520.488    501.692
 57.670    758.722    753.837      4.884    501.761    731.951    501.761    523.696    501.761
 57.770    694.000    692.504      1.496    501.830    666.354    501.830    528.006    501.830
 57.870    642.000    665.114    -23.114    501.899    633.095    501.899    533.929    501.899
 57.970    700.687    661.299     39.388    501.970    621.127    501.970    542.142    501.970
 58.070    653.157    676.613    -23.456    502.041    625.180    502.041    553.463    502.041
 58.170    718.902    710.950      7.952    502.112    644.271    502.112    568.769    502.112
 58.270    718.000    766.248    -48.248    502.184    679.559    502.184    588.840    502.184
 58.370    844.000    844.102     -0.102    502.257    732.177    502.257    614.136    502.257
 58.470    911.000    943.590    -32.590    502.330    801.347    502.330    644.517    502.330
 58.570   1055.000   1059.552     -4.552    502.404    882.996    502.404    678.899    502.404
 58.670   1129.161   1181.883    -52.722    502.478    969.498    502.478    714.804    502.478
 58.770   1308.494   1296.766     11.728    502.553   1051.360    502.553    747.910    502.553
 58.870   1379.000   1389.897    -10.897    502.629   1120.341    502.629    772.150    502.629
 58.970   1437.389   1448.800    -11.411    502.705   1170.016    502.705    781.473    502.705
 59.070   1533.000   1464.325     68.675    502.781   1193.964    502.781    773.145    502.781
 59.170   1481.422   1434.651     46.771    502.858   1187.849    502.858    749.679    502.858
 59.270   1419.000   1369.254     49.746    502.936   1155.173    502.936    717.040    502.936
 59.370   1303.974   1286.346     17.628    503.014   1108.037    503.014    681.335    503.014
 59.470   1239.625   1205.460     34.165    503.092   1061.561    503.092    646.979    503.092
 59.570   1132.951   1143.363    -10.413    503.171   1029.956    503.171    616.532    503.171
 59.670   1144.000   1114.524     29.476    503.251   1026.544    503.251    591.139    503.251
 59.770   1087.293   1130.199    -42.906    503.330   1062.406    503.330    570.980    503.330
 59.870   1225.058   1193.670     31.388    503.411   1141.262    503.411    555.618    503.411
 59.970   1347.787   1295.513     52.274    503.491   1254.464    503.491    544.285    503.491
 60.070   1372.646   1412.135    -39.489    503.573   1379.306    503.573    536.106    503.573
 60.170   1544.000   1508.358     35.642    503.654   1481.445    503.654    530.257    503.654
 60.270   1641.000   1546.749     94.251    503.736   1524.141    503.736    526.056    503.736
 60.370   1550.000   1505.478     44.522    503.819   1486.077    503.819    522.985    503.819
 60.470   1432.000   1391.750     40.250    503.901   1374.802    503.901    520.682    503.901
 60.570   1260.000   1234.778     25.222    503.985   1219.749    503.985    518.907    503.985
 60.670   1122.497   1068.115     54.382    504.068   1054.614    504.068    517.510    504.068
 60.770    966.970    917.773     49.197    504.152    905.499    504.152    516.398    504.152
 60.870    819.000    798.341     20.659    504.236    787.047    504.236    515.518    504.236
 60.970    683.820    713.884    -30.064    504.321    703.361    504.321    514.837    504.321
 61.070    664.000    661.481      2.519    504.406    651.543    504.406    514.335    504.406
 61.170    659.000    635.642     23.358    504.491    626.120    504.491    513.999    504.491
 61.270    662.000    632.005     29.995    504.577    622.745    504.577    513.815    504.577
 61.370    668.000    649.372     18.628    504.663    640.234    504.663    513.766    504.663
 61.470    691.000    689.877      1.123    504.749    680.749    504.749    513.824    504.749
 61.570    744.000    757.442    -13.442    504.835    748.251    504.835    513.949    504.835
 61.670    825.763    854.887    -29.124    504.922    845.620    504.922    514.081    504.922
 61.770    937.000    980.380    -43.380    505.009    971.105    505.009    514.143    505.009
 61.870   1062.000   1124.295    -62.295    505.096   1115.162    505.096    514.057    505.096
 61.970   1202.677   1267.599    -64.922    505.184   1258.808    505.184    513.783    505.184
 62.070   1323.000   1383.009    -60.009    505.272   1374.752    505.272    513.336    505.272
 62.170   1420.000   1441.441    -21.441    505.360   1433.854    505.360    512.777    505.360
 62.270   1368.000   1425.210    -57.210    505.448   1418.354    505.448    512.177    505.448
 62.370   1302.839   1339.135    -36.296    505.536   1332.999    505.536    511.592    505.536
 62.470   1197.000   1207.062    -10.062    505.625   1201.586    505.625    511.060    505.625
 62.570   1076.000   1058.383     17.617    505.714   1053.484    505.714    510.601    505.714
 62.670    973.749    917.422     56.327    505.803    913.009    505.803    510.219    505.803
 62.770    798.717    799.309     -0.591    505.892    795.296    505.892    509.914    505.892
 62.870    674.000    709.945    -35.945    505.982    706.258    505.982    509.678    505.982
 62.970    671.000    648.149     22.851    506.071    644.726    506.071    509.499    506.071
 63.070    614.000    608.731      5.269    506.161    605.526    506.161    509.368    506.161
 63.170    595.719    585.379     10.340    506.251    582.354    506.251    509.275    506.251
 63.270    591.000    572.583     18.417    506.341    569.711    506.341    509.209    506.341
 63.370    591.496    566.504     24.993    506.431    563.763    506.431    509.166    506.431
 63.470    562.955    565.075     -2.120    506.521    562.449    506.521    509.139    506.521
 63.570    549.160    567.788    -18.627    506.612    565.264    506.612    509.125    506.612
 63.670    549.405    575.416    -26.010    506.702    572.982    506.702    509.121    506.702
 63.770    615.000    589.740     25.260    506.793    587.385    506.793    509.126    506.793
 63.870    636.907    613.183     23.724    506.883    610.895    506.883    509.139    506.883
 63.970    702.000    648.192     53.808    506.974    645.961    506.974    509.158    506.974
 64.070    729.000    696.333     32.667    507.065    694.150    507.065    509.184    507.065
 64.170    755.956    757.191     -1.235    507.155    755.047    507.155    509.214    507.155
 64.270    854.000    827.334     26.666    507.246    825.225    507.246    509.249    507.246
 64.370    957.000    899.646     57.354    507.337    897.570    507.337    509.288    507.337
 64.470    956.000    963.549     -7.549    507.428    961.510    507.428    509.332    507.428
 64.570    981.000   1007.222    -26.222    507.519   1005.229    507.519    509.378    507.519
 64.670   1086.000   1022.190     63.810    507.610   1020.252    507.610    509.429    507.610
 64.770   1043.000   1007.100     35.900    507.700   1005.223    507.700    509.482    507.700
 64.870   1003.000    967.281     35.719    507.791    965.467    507.791    509.539    507.791
 64.970    937.000    911.865     25.135    507.882    910.111    507.882    509.598    507.882
 65.070    840.492    850.768    -10.276    507.973    849.068    507.973    509.659    507.973
 65.170    777.000    792.004    -15.004    508.064    790.350    508.064    509.724    508.064
 65.270    708.825    740.164    -31.339    508.154    738.547    508.154    509.790    508.154
 65.370    672.000    696.670    -24.670    508.245    695.081    508.245    509.858    508.245
 65.470    623.275    661.162    -37.887    508.336    659.594    508.336    509.929    508.336
 65.570    617.000    632.771    -15.771    508.426    631.218    508.426    510.002    508.426
 65.670    632.879    610.593     22.286    508.516    609.051    508.516    510.076    508.516
 65.770    567.000    593.729    -26.729    508.607    592.196    508.607    510.152    508.607
 65.870    610.543    581.321     29.222    508.697    579.795    508.697    510.230    508.697
 65.970    558.760    572.603    -13.843    508.787    571.083    508.787    510.310    508.787
 66.070    583.067    566.908     16.159    508.877    565.395    508.877    510.391    508.877
 66.170    537.000    563.666    -26.666    508.967    562.158    508.967    510.474    508.967
 66.270    521.160    562.403    -41.243    509.056    560.899    509.056    510.559    509.056
 66.370    551.000    562.765    -11.765    509.146    561.265    509.146    510.645    509.146
 66.470    523.446    564.562    -41.116    509.235    563.065    509.235    510.732    509.235
 66.570    582.000    567.830     14.170    509.324    566.333    509.324    510.821    509.324
 66.670    548.000    572.945    -24.945    509.413    571.446    509.413    510.912    509.413
 66.770    597.000    580.830     16.170    509.502    579.328    509.502    511.004    509.502
 66.870    560.000    593.298    -33.298    509.591    591.789    509.591    511.098    509.591
 66.970    634.718    613.515     21.203    509.679    611.998    509.679    511.194    509.679
 67.070    633.000    646.512    -13.512    509.767    644.983    509.767    511.291    509.767
 67.170    674.000    699.478    -25.478    509.855    697.933    509.855    511.390    509.855
 67.270    782.000    781.464      0.536    509.943    779.901    509.943    511.490    509.943
 67.370    893.000    902.089     -9.089    510.031    900.506    510.031    511.592    510.031
 67.470   1096.741   1069.006     27.734    510.118   1067.403    510.118    511.696    510.118
 67.570   1271.181   1284.378    -13.196    510.205   1282.759    510.205    511.803    510.205
 67.670   1553.000   1541.143     11.857    510.291   1539.517    510.291    511.911    510.291
 67.770   1804.599   1820.180    -15.580    510.378   1818.559    510.378    512.021    510.378
 67.870   2002.000   2089.381    -87.381    510.464   2087.779    510.464    512.133    510.464
 67.970   2294.000   2306.145    -12.145    510.550   2304.577    510.550    512.248    510.550
 68.070   2386.739   2426.316    -39.577    510.635   2424.786    510.635    512.366    510.635
 68.170   2411.000   2420.931     -9.931    510.721   2419.430    510.721    512.486    510.721
 68.270   2239.000   2291.469    -52.469    510.805   2289.970    510.805    512.609    510.805
 68.370   2096.000   2068.922     27.078    510.890   2067.389    510.890    512.736    510.890
 68.470   1797.361   1797.804     -0.443    510.974   1796.206    510.974    512.866    510.974
 68.570   1592.000   1520.015     71.985    511.058   1518.328    511.058    513.000    511.058
 68.670   1265.000   1266.588     -1.588    511.142   1264.798    511.142    513.137    511.142
 68.770   1035.000   1055.561    -20.561    511.225   1053.663    511.225    513.279    511.225
 68.870    903.049    893.089      9.960    511.307    891.083    511.307    513.427    511.307
 68.970    791.000    776.406     14.594    511.390    774.294    511.390    513.579    511.390
 69.070    744.000    697.575     46.425    511.472    695.360    511.472    513.737    511.472
 69.170    688.000    646.952     41.048    511.553    644.636    511.553    513.902    511.553
 69.270    636.000    615.606     20.394    511.634    613.188    511.634    514.074    511.634
 69.370    601.000    596.525      4.475    511.715    594.000    511.715    514.254    511.715
 69.470    552.731    584.830    -32.100    511.796    582.192    511.796    514.443    511.796
 69.570    585.000    577.452      7.548    511.875    574.693    511.875    514.642    511.875
 69.670    600.865    572.612     28.254    511.955    569.720    511.955    514.852    511.955
 69.770    541.880    569.343    -27.463    512.034    566.306    512.034    515.074    512.034
 69.870    532.479    567.146    -34.667    512.112    563.951    512.112    515.309    512.112
 69.970    539.000    565.775    -26.775    512.190    562.405    512.190    515.561    512.190
 70.070    534.535    565.114    -30.579    512.268    561.551    512.268    515.832    512.268
 70.170    575.800    565.129     10.671    512.345    561.350    512.345    516.124    512.345
 70.270    552.000    565.849    -13.849    512.422    561.830    512.422    516.439    512.422
 70.370    607.109    567.390     39.719    512.498    563.104    512.498    516.781    512.498
 70.470    591.000    570.013     20.987    512.573    565.426    512.573    517.155    512.573
 70.570    566.000    574.219     -8.219    512.648    569.295    512.648    517.567    512.648
 70.670    550.359    580.925    -30.566    512.723    575.617    512.723    518.022    512.723
 70.770    569.000    591.688    -22.688    512.797    585.941    512.797    518.531    512.797
 70.870    570.416    608.969    -38.553    512.870    602.713    512.870    519.107    512.870
 70.970    655.000    636.349     18.651    512.943    629.494    512.943    519.768    512.943
 71.070    676.000    678.554     -2.554    513.015    670.981    513.015    520.544    513.015
 71.170    717.000    741.095    -24.095    513.087    732.637    513.087    521.481    513.087
 71.270    831.000    829.369      1.631    513.158    819.788    513.158    522.650    513.158
 71.370    927.000    947.206    -20.206    513.229    936.156    513.229    524.159    513.229
 71.470   1112.000   1095.026     16.974    513.299   1082.006    513.299    526.167    513.299
 71.570   1272.000   1268.039      3.961    513.368   1252.323    513.368    528.901    513.368
 71.670   1504.000   1454.952     49.048    513.437   1435.522    513.437    532.658    513.437
 71.770   1582.987   1637.636    -54.648    513.505   1613.104    513.505    537.813    513.505
 71.870   1892.000   1792.329     99.671    513.573   1760.891    513.573    544.790    513.573
 71.970   1906.000   1893.699     12.301    513.640   1853.120    513.640    554.019    513.640
 72.070   1881.000   1922.777    -41.777    513.706   1870.452    513.706    565.866    513.706
 72.170   1870.000   1875.699     -5.699    513.771   1808.813    513.771    580.534    513.771
 72.270   1807.000   1765.881     41.119    513.836   1681.678    513.836    597.955    513.836
 72.370   1653.000   1617.141     35.859    513.901   1513.311    513.901    617.678    513.901
 72.470   1445.792   1454.247     -8.455    513.964   1329.420    513.964    638.762    513.964
 72.570   1317.000   1296.922     20.078    514.027   1151.256    514.027    659.678    514.027
 72.670   1101.000   1157.590    -56.590    514.089    993.395    514.089    678.276    514.089
 72.770   1070.948   1041.372     29.576    514.151    863.544    514.151    691.974    514.151
 72.870    917.000    947.653    -30.653    514.212    763.491    514.212    698.369    514.212
 72.970    851.000    872.683    -21.683    514.272    690.764    514.272    696.185    514.272
 73.070    848.156    812.099     36.057    514.331    640.524    514.331    685.901    514.331
 73.170    735.737    762.346    -26.609    514.390    607.239    514.390    669.491    514.390
 73.270    646.000    720.938    -74.938    514.448    585.839    514.448    649.542    514.448
 73.370    677.000    686.245     -9.245    514.505    572.299    514.505    628.447    514.505
 73.470    626.000    657.246    -31.246    514.561    563.767    514.561    608.038    514.561
 73.570    603.000    633.323    -30.323    514.617    558.406    514.617    589.534    514.617
 73.670    588.000    614.080    -26.080    514.672    555.142    514.672    573.613    514.672
 73.770    553.213    599.177    -45.964    514.726    553.392    514.726    560.516    514.726
 73.870    573.000    588.230    -15.230    514.780    552.859    514.780    550.160    514.780
 73.970    594.000    580.763     13.237    514.832    553.363    514.832    542.246    514.832
 74.070    544.696    576.202    -31.506    514.884    554.738    514.884    536.366    514.884
 74.170    607.731    573.890     33.841    514.935    556.763    514.935    532.087    514.935
 74.270    595.211    573.111     22.100    514.985    559.122    514.985    529.005    514.985
 74.370    599.599    573.115     26.484    515.035    561.400    515.035    526.785    515.035
 74.470    646.000    573.157     72.843    515.083    563.113    515.083    525.167    515.083
 74.570    586.769    572.583     14.186    515.131    563.798    515.131    523.960    515.131
 74.670    598.000    570.973     27.027    515.178    563.162    515.178    523.033    515.178
 74.770    576.000    568.249      7.751    515.224    561.218    515.224    522.297    515.224
 74.870    653.000    564.672     88.328    515.269    558.283    515.269    521.696    515.269
 74.970    594.000    560.701     33.299    515.314    554.853    515.314    521.194    515.314
 75.070    593.000    556.856     36.144    515.357    551.473    515.357    520.766    515.357
 75.170    597.000    553.644     43.356    515.400    548.665    515.400    520.397    515.400
 75.270    580.000    551.544     28.456    515.441    546.922    515.441    520.077    515.441
 75.370    515.167    551.032    -35.864    515.482    546.725    515.482    519.796    515.482
 75.470    569.963    552.596     17.367    515.522    548.571    515.522    519.549    515.522
 75.570    552.000    556.754     -4.754    515.561    552.981    515.561    519.331    515.561
 75.670    566.033    564.019      2.013    515.600    560.471    515.600    519.137    515.600
 75.770    567.000    574.821     -7.821    515.637    571.475    515.637    518.966    515.637
 75.870    633.000    589.374     43.626    515.673    586.208    515.673    518.813    515.673
 75.970    604.486    607.508     -3.022    515.709    604.506    515.709    518.677    515.709
 76.070    631.399    628.518      2.881    515.743    625.663    515.743    518.555    515.743
 76.170    670.000    651.051     18.949    515.777    648.330    515.777    518.446    515.777
 76.270    631.000    673.085    -42.085    515.810    670.487    515.810    518.348    515.810
 76.370    701.910    692.023      9.887    515.841    689.540    515.841    518.259    515.841
 76.470    711.979    705.022      6.957    515.872    702.648    515.872    518.180    515.872
 76.570    715.441    709.701      5.739    515.902    707.431    515.902    518.108    515.902
 76.670    720.000    705.065     14.935    515.931    702.894    515.931    518.043    515.931
 76.770    704.000    691.989     12.011    515.959    689.913    515.959    517.984    515.959
 76.870    688.000    672.782     15.218    515.986    670.796    515.986    517.931    515.986
 76.970    604.000    650.264    -46.264    516.011    648.362    516.011    517.882    516.011
 77.070    632.000    627.040      4.960    516.036    625.216    516.036    517.838    516.036
 77.170    596.000    605.144     -9.144    516.060    603.391    516.060    517.797    516.060
 77.270    574.000    585.927    -11.927    516.083    584.239    516.083    517.760    516.083
 77.370    524.000    570.073    -46.073    516.105    568.444    516.105    517.726    516.105
 77.470    511.000    557.696    -46.696    516.126    556.123    516.126    517.695    516.126
 77.570    535.000    548.505    -13.505    516.146    546.982    516.146    517.666    516.146
 77.670    585.016    541.971     43.044    516.165    540.495    516.165    517.639    516.165
 77.770    578.425    537.494     40.930    516.183    536.062    516.183    517.614    516.183
 77.870    468.000    534.508    -66.508    516.200    533.115    516.200    517.591    516.200
 77.970    563.636    532.544     31.092    516.216    531.189    516.216    517.569    516.216
 78.070    534.000    531.252      2.748    516.230    529.932    516.230    517.549    516.230
 78.170    510.000    530.389    -20.389    516.244    529.103    516.244    517.529    516.244
 78.270    504.749    529.800    -25.051    516.257    528.545    516.257    517.511    516.257
 78.370    516.000    529.393    -13.393    516.268    528.167    516.268    517.494    516.268
 78.470    518.000    529.115    -11.115    516.279    527.916    516.279    517.478    516.279
 78.570    570.799    528.926     41.874    516.288    527.751    516.288    517.463    516.288
 78.670    529.920    528.831      1.088    516.297    527.680    516.297    517.448    516.297
 78.770    506.000    528.877    -22.877    516.304    527.746    516.304    517.434    516.304
 78.870    517.000    529.056    -12.056    516.311    527.944    516.311    517.422    516.311
 78.970    498.000    529.391    -31.391    516.316    528.295    516.316    517.410    516.316
 79.070    522.000    529.910     -7.910    516.320    528.828    516.320    517.400    516.320
 79.170    532.000    530.646      1.354    516.323    529.575    516.323    517.392    516.323
 79.270    504.692    531.629    -26.937    516.325    530.565    516.325    517.387    516.325
 79.370    526.000    532.886     -6.886    516.326    531.824    516.326    517.384    516.326
 79.470    569.176    534.443     34.733    516.325    533.379    516.325    517.385    516.325
 79.570    505.738    536.333    -30.595    516.324    535.262    516.324    517.390    516.324
 79.670    530.000    538.605     -8.605    516.321    537.521    516.321    517.401    516.321
 79.770    543.000    541.343      1.657    516.318    540.238    516.318    517.416    516.318
 79.870    549.754    544.683      5.071    516.313    543.553    516.313    517.437    516.313
 79.970    486.000    548.846    -62.846    516.307    547.684    516.307    517.463    516.307
 80.070    568.000    554.155     13.845    516.300    552.957    516.300    517.493    516.300
 80.170    569.000    561.039      7.961    516.292    559.801    516.292    517.526    516.292
 80.270    557.890    569.983    -12.093    516.282    568.704    516.282    517.560    516.282
 80.370    611.560    581.431     30.129    516.272    580.113    516.272    517.590    516.272
 80.470    558.000    595.671    -37.671    516.260    594.322    516.260    517.614    516.260
 80.570    573.000    612.726    -39.726    516.248    611.356    516.248    517.625    516.248
 80.670    590.000    632.267    -42.267    516.234    630.892    516.234    517.621    516.234
 80.770    667.671    653.571     14.100    516.219    652.210    516.219    517.597    516.219
 80.870    658.000    675.540    -17.540    516.202    674.211    516.202    517.555    516.202
 80.970    743.000    696.821     46.179    516.185    695.539    516.185    517.496    516.185
 81.070    744.104    715.999     28.105    516.166    714.777    516.166    517.425    516.166
 81.170    736.591    731.792      4.799    516.147    730.635    516.147    517.347    516.147
 81.270    771.000    743.160     27.840    516.126    742.070    516.126    517.265    516.126
 81.370    759.000    749.388      9.612    516.103    748.363    516.103    517.184    516.103
 81.470    798.252    750.165     48.087    516.080    749.200    516.080    517.105    516.080
 81.570    777.326    745.600     31.725    516.056    744.689    516.056    517.030    516.056
 81.670    743.000    736.180      6.820    516.030    735.316    516.030    516.959    516.030
 81.770    735.911    722.735     13.176    516.003    721.911    516.003    516.894    516.003
 81.870    666.059    706.419    -40.360    515.975    705.627    515.975    516.833    515.975
 81.970    673.526    688.542    -15.016    515.946    687.775    515.946    516.776    515.946
 82.070    721.000    670.300     50.700    515.915    669.553    515.915    516.724    515.915
 82.170    627.000    652.556    -25.556    515.884    651.823    515.884    516.674    515.884
 82.270    680.812    635.789     45.023    515.851    635.067    515.851    516.626    515.851
 82.370    651.412    620.201     31.210    515.817    619.486    515.817    516.580    515.817
 82.470    620.000    605.892     14.108    515.781    605.181    515.781    516.535    515.781
 82.570    613.222    592.980     20.243    515.745    592.272    515.745    516.491    515.745
 82.670    546.059    581.631    -35.571    515.707    580.923    515.707    516.446    515.707
 82.770    575.586    572.019      3.567    515.668    571.310    515.668    516.402    515.668
 82.870    600.000    564.293     35.707    515.628    563.582    515.628    516.357    515.628
 82.970    562.000    558.560      3.440    515.587    557.846    515.587    516.312    515.587
 83.070    517.623    554.875    -37.252    515.544    554.157    515.544    516.266    515.544
 83.170    584.875    553.222     31.653    515.500    552.500    515.500    516.219    515.500
 83.270    547.000    553.501     -6.501    515.455    552.774    515.455    516.171    515.455
 83.370    535.000    555.504    -20.504    515.409    554.771    515.409    516.123    515.409
 83.470    586.000    558.904     27.096    515.361    558.167    515.361    516.074    515.361
 83.570    587.614    563.260     24.354    515.312    562.517    515.312    516.024    515.312
 83.670    589.899    568.023     21.876    515.262    567.275    515.262    515.972    515.262
 83.770    567.000    572.564     -5.564    515.211    571.812    515.211    515.920    515.211
 83.870    596.000    576.224     19.776    515.159    575.470    515.159    515.868    515.159
 83.970    544.000    578.399    -34.399    515.105    577.644    515.105    515.814    515.105
 84.070    606.000    578.663     27.337    515.050    577.909    515.050    515.759    515.050
 84.170    544.000    576.889    -32.889    514.994    576.137    514.994    515.703    514.994
 84.270    535.000    573.274    -38.274    514.936    572.525    514.936    515.646    514.936
 84.370    552.000    568.264    -16.264    514.878    567.519    514.878    515.588    514.878
 84.470    542.000    562.409    -20.409    514.818    561.668    514.818    515.530    514.818
 84.570    544.738    556.249    -11.510    514.757    555.512    514.757    515.470    514.757
 84.670    567.000    550.245     16.755    514.694    549.511    514.694    515.409    514.694
 84.770    567.000    544.745     22.255    514.630    544.013    514.630    515.347    514.630
 84.870    552.647    539.972     12.674    514.565    539.241    514.565    515.285    514.565
 84.970    514.000    536.032    -22.032    514.499    535.302    514.499    515.221    514.499
 85.070    524.000    532.934     -8.934    514.432    532.202    514.432    515.156    514.432
 85.170    564.322    530.615     33.707    514.363    529.882    514.363    515.091    514.363
 85.270    537.000    528.975      8.025    514.293    528.239    514.293    515.024    514.293
 85.370    559.000    527.900     31.100    514.222    527.161    514.222    514.956    514.222
 85.470    528.000    527.288      0.712    514.150    526.545    514.150    514.888    514.150
 85.570    539.000    527.061     11.939    514.076    526.314    514.076    514.818    514.076
 85.670    551.129    527.177     23.952    514.001    526.426    514.001    514.747    514.001
 85.770    504.000    527.636    -23.636    513.925    526.879    513.925    514.676    513.925
 85.870    522.000    528.479     -6.479    513.847    527.715    513.847    514.603    513.847
 85.970    527.000    529.792     -2.792    513.769    529.021    513.769    514.530    513.769
 86.070    555.000    531.702     23.298    513.689    530.923    513.689    514.455    513.689
 86.170    490.000    534.375    -44.375    513.607    533.587    513.607    514.380    513.607
 86.270    564.659    537.997     26.662    513.525    537.198    513.525    514.304    513.525
 86.370    557.000    542.760     14.240    513.441    541.948    513.441    514.227    513.441
 86.470    490.000    548.828    -58.828    513.356    548.001    513.356    514.149    513.356
 86.570    546.297    556.306    -10.009    513.270    555.463    513.270    514.070    513.270
 86.670    558.000    565.193     -7.193    513.183    564.332    513.183    513.990    513.183
 86.770    571.000    575.348     -4.348    513.094    574.467    513.094    513.909    513.094
 86.870    607.895    586.451     21.445    513.004    585.549    513.004    513.827    513.004
 86.970    657.000    597.995     59.005    512.913    597.072    512.913    513.745    512.913
 87.070    679.000    609.283     69.717    512.821    608.341    512.821    513.662    512.821
 87.170    632.000    619.465     12.535    512.727    618.503    512.727    513.578    512.727
 87.270    579.909    627.598    -47.689    512.632    626.621    512.632    513.493    512.632
 87.370    662.374    632.837     29.537    512.536    631.847    512.536    513.408    512.536
 87.470    666.000    634.591     31.409    512.438    633.593    512.438    513.322    512.438
 87.570    679.000    632.701     46.299    512.340    631.698    512.340    513.235    512.340
 87.670    625.000    627.503     -2.503    512.240    626.498    512.240    513.147    512.240
 87.770    639.000    619.719     19.281    512.139    618.714    512.139    513.059    512.139
 87.870    618.000    610.276      7.724    512.037    609.271    512.037    512.971    512.037
 87.970    633.000    600.150     32.850    511.933    599.144    511.933    512.882    511.933
 88.070    562.001    590.260    -28.259    511.828    589.251    511.828    512.792    511.828
 88.170    587.815    581.400      6.415    511.722    580.388    511.722    512.702    511.722
 88.270    588.000    574.196     13.804    511.615    573.179    511.615    512.611    511.615
 88.370    565.000    569.079     -4.079    511.507    568.053    511.507    512.520    511.507
 88.470    520.981    566.276    -45.295    511.397    565.241    511.397    512.429    511.397
 88.570    558.000    565.820     -7.820    511.286    564.773    511.286    512.338    511.286
 88.670    579.000    567.557     11.443    511.174    566.497    511.174    512.247    511.174
 88.770    580.000    571.170      8.830    511.061    570.096    511.061    512.155    511.061
 88.870    557.650    576.197    -18.547    510.946    575.107    510.946    512.064    510.946
 88.970    536.535    582.056    -45.521    510.831    580.949    510.831    511.972    510.831
 89.070    598.024    588.076      9.949    510.714    586.950    510.714    511.881    510.714
 89.170    590.000    593.532     -3.532    510.596    592.386    510.596    511.791    510.596
 89.270    571.000    597.711    -26.711    510.476    596.542    510.476    511.701    510.476
 89.370    650.000    600.000     50.000    510.356    598.804    510.356    511.611    510.356
 89.470    557.032    600.005    -42.973    510.234    598.779    510.234    511.522    510.234
 89.570    600.000    597.644      2.356    510.111    596.383    510.111    511.435    510.111
 89.670    559.000    593.150    -34.150    509.987    591.849    509.987    511.348    509.987
 89.770    588.000    586.993      1.007    509.862    585.648    509.862    511.263    509.862
 89.870    605.000    579.752     25.248    509.736    578.358    509.736    511.180    509.736
 89.970    589.694    572.008     17.686    509.608    570.562    509.608    511.099    509.608
 90.070    581.096    564.280     16.816    509.480    562.778    509.480    511.020    509.480
 90.170    591.620    556.983     34.637    509.350    555.420    509.350    510.944    509.350
 90.270    530.000    550.417    -20.417    509.219    548.789    509.219    510.871    509.219
 90.370    583.342    544.763     38.579    509.086    543.067    509.086    510.802    509.086
 90.470    488.000    540.099    -52.099    508.953    538.328    508.953    510.739    508.953
 90.570    529.598    536.414     -6.816    508.819    534.562    508.819    510.681    508.819
 90.670    513.000    533.636    -20.636    508.683    531.696    508.683    510.631    508.683
 90.770    522.000    531.658     -9.658    508.546    529.619    508.546    510.590    508.546
 90.870    514.000    530.363    -16.363    508.408    528.213    508.408    510.561    508.408
 90.970    542.000    529.643     12.357    508.269    527.365    508.269    510.549    508.269
 91.070    492.988    529.413    -36.425    508.129    526.986    508.129    510.556    508.129
 91.170    544.000    529.622     14.378    507.988    527.018    507.988    510.591    507.988
 91.270    563.681    530.261     33.420    507.846    527.444    507.846    510.661    507.846
 91.370    542.569    531.359     11.210    507.702    528.282    507.702    510.776    507.702
 91.470    564.285    532.958     31.327    507.558    529.561    507.558    510.950    507.558
 91.570    502.000    535.253    -33.253    507.412    531.461    507.412    511.197    507.412
 91.670    515.000    538.400    -23.400    507.265    534.122    507.265    511.536    507.265
 91.770    557.000    542.592     14.408    507.117    537.713    507.117    511.987    507.117
 91.870    552.000    548.059      3.941    506.969    542.442    506.969    512.571    506.969
 91.970    557.000    555.045      1.955    506.819    548.535    506.819    513.311    506.819
 92.070    544.389    563.791    -19.402    506.668    556.209    506.668    514.228    506.668
 92.170    589.000    574.493     14.507    506.516    565.640    506.516    515.340    506.516
 92.270    603.063    587.283     15.781    506.362    576.949    506.362    516.662    506.362
 92.370    619.000    602.199     16.801    506.208    590.167    506.208    518.199    506.208
 92.470    611.941    619.156     -7.215    506.053    605.215    506.053    519.947    506.053
 92.570    666.792    637.927     28.865    505.897    621.880    505.897    521.889    505.897
 92.670    615.000    658.126    -43.126    505.739    639.809    505.739    523.994    505.739
 92.770    672.000    679.206     -7.206    505.581    658.504    505.581    526.215    505.581
 92.870    727.000    700.478     26.522    505.422    677.344    505.422    528.482    505.422
 92.970    739.263    721.161     18.103    505.262    695.638    505.262    530.706    505.262
 93.070    738.174    740.483     -2.309    505.100    712.728    505.100    532.773    505.100
 93.170    822.000    757.814     64.186    504.938    728.116    504.938    534.553    504.938
 93.270    773.000    772.777      0.223    504.775    741.565    504.775    535.904    504.775
 93.370    803.000    785.292     17.708    504.610    753.122    504.610    536.698    504.610
 93.470    765.000    795.525    -30.525    504.445    763.046    504.445    536.844    504.445
 93.570    852.000    803.789     48.211    504.279    771.678    504.279    536.312    504.279
 93.670    828.599    810.491     18.108    504.112    779.386    504.112    535.142    504.112
 93.770    784.740    816.120    -31.380    503.944    786.560    503.944    533.431    503.944
 93.870    815.886    821.257     -5.371    503.775    793.651    503.775    531.311    503.775
 93.970    844.623    826.571     18.052    503.605    801.184    503.605    528.924    503.605
 94.070    837.000    832.718      4.282    503.434    809.688    503.434    526.398    503.434
 94.170    806.530    840.182    -33.652    503.262    819.536    503.262    523.843    503.262
 94.270    881.829    849.100     32.730    503.089    830.779    503.089    521.347    503.089
 94.370    877.571    859.144     18.427    502.916    843.024    502.916    518.975    502.916
 94.470    828.685    869.501    -40.817    502.741    855.413    502.741    516.772    502.741
 94.570    919.861    878.931     40.930    502.566    866.675    502.566    514.769    502.566
 94.670    938.214    885.901     52.313    502.390    875.264    502.390    512.978    502.390
 94.770    921.000    888.810     32.190    502.213    879.578    502.213    511.404    502.213
 94.870    918.449    886.294     32.155    502.035    878.259    502.035    510.038    502.035
 94.970    829.990    877.550    -47.560    501.856    870.516    501.856    508.866    501.856
 95.070    905.000    862.555     42.445    501.676    856.346    501.676    507.871    501.676
 95.170    889.432    842.087     47.345    501.496    836.546    501.496    507.029    501.496
 95.270    861.000    817.552     43.448    501.315    812.546    501.315    506.320    501.315
 95.370    824.624    790.726     33.897    501.133    786.140    501.133    505.722    501.133
 95.470    736.101    763.526    -27.425    500.950    759.266    500.950    505.215    500.950
 95.570    704.070    737.845    -33.775    500.766    733.836    500.766    504.781    500.766
 95.670    740.000    715.462     24.538    500.582    711.642    500.582    504.406    500.582
 95.770    743.000    697.977     45.023    500.397    694.297    500.397    504.078    500.397
 95.870    650.767    686.781    -36.014    500.211    683.202    500.211    503.786    500.211
 95.970    644.109    683.105    -38.996    500.024    679.596    500.024    503.523    500.024
 96.070    730.485    687.945     42.540    499.837    684.480    499.837    503.283    499.837
 96.170    724.000    702.099     21.901    499.649    698.658    499.649    503.062    499.649
 96.270    732.000    726.157      5.843    499.460    722.721    499.460    502.857    499.460
 96.370    772.000    760.450     11.550    499.270    757.005    499.270    502.665    499.270
 96.470    798.000    804.982     -6.982    499.080    801.515    499.080    502.485    499.080
 96.570    852.665    859.330     -6.666    498.889    855.830    498.889    502.316    498.889
 96.670    907.000    922.548    -15.548    498.698    919.004    498.698    502.156    498.698
 96.770   1003.000    993.071      9.929    498.506    989.474    498.506    502.007    498.506
 96.870   1034.000   1068.662    -34.662    498.313   1065.004    498.313    501.867    498.313
 96.970   1101.000   1146.398    -45.398    498.119   1142.672    498.119    501.736    498.119
 97.070   1260.174   1222.695     37.480    497.925   1218.894    497.925    501.615    497.925
 97.170   1343.309   1293.437     49.872    497.730   1289.555    497.730    501.505    497.730
 97.270   1350.350   1354.219     -3.868    497.535   1350.250    497.535    501.405    497.535
 97.370   1397.000   1400.762     -3.762    497.339   1396.700    497.339    501.316    497.339
 97.470   1367.747   1429.516    -61.769    497.143   1425.353    497.143    501.238    497.143
 97.570   1458.000   1438.306     19.694    496.946   1434.031    496.946    501.174    496.946
 97.670   1413.000   1426.773    -13.773    496.748   1422.370    496.748    501.125    496.748
 97.770   1355.149   1396.389    -41.240    496.550   1391.841    496.550    501.094    496.550
 97.870   1356.000   1350.076      5.924    496.352   1345.360    496.352    501.081    496.352
 97.970   1262.000   1291.622    -29.622    496.153   1286.712    496.153    501.091    496.153
 98.070   1266.000   1225.159     40.841    495.953   1220.023    495.953    501.128    495.953
 98.170   1131.000   1154.782    -23.782    495.753   1149.384    495.753    501.198    495.753
 98.270   1107.000   1084.312     22.688    495.552   1078.606    495.552    501.308    495.552
 98.370   1055.000   1017.144     37.856    495.351   1011.075    495.351    501.468    495.351
 98.470    955.000    956.177     -1.177    495.150    949.679    495.150    501.693    495.150
 98.570    854.000    903.793    -49.793    494.948    896.781    494.948    501.999    494.948
 98.670    884.000    861.874     22.126    494.746    854.242    494.746    502.408    494.746
 98.770    772.000    831.856    -59.856    494.543    823.472    494.543    502.949    494.543
 98.870    783.583    814.794    -31.211    494.340    805.493    494.340    503.654    494.340
 98.970    820.000    811.443      8.557    494.137    801.017    494.137    504.565    494.137
 99.070    768.891    822.311    -53.419    493.933    810.507    493.933    505.729    493.933
 99.170    848.000    847.698      0.302    493.729    834.208    493.729    507.202    493.729
 99.270    847.000    887.690    -40.690    493.524    872.147    493.524    509.044    493.524
 99.370    900.840    942.117    -41.277    493.319    924.088    493.319    511.320    493.319
 99.470    970.511   1010.469    -39.958    493.114    989.456    493.114    514.095    493.114
 99.570   1090.000   1091.855     -1.855    492.909   1067.297    492.909    517.434    492.909
 99.670   1151.000   1184.847    -33.847    492.703   1156.127    492.703    521.393    492.703
 99.770   1364.000   1287.407     76.593    492.497   1253.861    492.497    526.019    492.497
 99.870   1391.000   1396.838     -5.838    492.291   1357.776    492.291    531.338    492.291
 99.970   1532.994   1509.766     23.227    492.085   1464.496    492.085    537.354    492.085
100.070   1594.851   1622.215    -27.364    491.878   1570.069    491.878    544.041    491.878
100.170   1713.000   1729.802    -16.802    491.672   1670.173    491.672    551.339    491.672
100.270   1855.000   1828.069     26.931    491.465   1760.452    491.465    559.144    491.465
100.370   1927.767   1912.890     14.877    491.258   1836.927    491.258    567.310    491.258
100.470   2093.000   1980.817    112.183    491.051   1896.344    491.051    575.638    491.051
100.570   2045.075   2029.235     15.839    490.843   1936.339    490.843    583.879    490.843
100.670   2085.000   2056.352     28.648    490.636   1955.422    490.636    591.727    490.636
100.770   2095.000   2061.142     33.858    490.428   1952.922    490.428    598.828    490.428
100.870   2074.275   2043.441     30.834    490.221   1929.057    490.221    604.798    490.221
100.970   2027.000   2004.182     22.818    490.013   1885.143    490.013    609.255    490.013
101.070   1929.291   1945.634    -16.343    489.805   1823.776    489.805    611.870    489.805
101.170   1978.000   1871.399    106.601    489.598   1748.776    489.598    612.425    489.598
101.270   1747.000   1786.085    -39.085    489.390   1664.813    489.390    610.860    489.390
101.370   1657.000   1694.755    -37.755    489.182   1576.842    489.182    607.283    489.182
101.470   1584.000   1602.344    -18.344    488.975   1489.543    488.975    601.950    488.975
101.570   1445.449   1513.197    -67.748    488.767   1406.913    488.767    595.210    488.767
101.670   1450.000   1430.779     19.221    488.560   1332.029    488.560    587.452    488.560
101.770   1301.558   1357.522    -55.964    488.352   1266.947    488.352    579.055    488.352
101.870   1247.370   1294.793    -47.423    488.145   1212.692    488.145    570.359    488.145
101.970   1198.325   1242.926    -44.601    487.937   1169.310    487.937    561.654    487.937
102.070   1218.265   1201.319     16.946    487.730   1135.963    487.730    553.176    487.730
102.170   1212.506   1168.561     43.945    487.523   1111.060    487.523    545.106    487.523
102.270   1202.231   1142.616     59.615    487.317   1092.430    487.317    537.580    487.317
102.370   1083.000   1121.039    -38.039    487.110   1077.539    487.110    530.685    487.110
102.470   1074.000   1101.251    -27.251    486.904   1063.755    486.904    524.473    486.904
102.570   1099.000   1080.844     18.156    486.698   1048.656    486.698    518.961    486.698
102.670   1075.000   1057.899     17.101    486.492   1030.330    486.492    514.137    486.492
102.770   1049.000   1031.209     17.791    486.286   1007.604    486.286    509.969    486.286
102.870    958.000   1000.359    -42.359    486.081    980.113    486.081    506.406    486.081
102.970    972.000    965.639      6.361    485.876    948.203    485.876    503.389    485.876
103.070    901.000    927.844    -26.844    485.671    912.737    485.671    500.853    485.671
103.170    864.000    888.058    -24.058    485.467    874.865    485.467    498.732    485.467
103.270    866.000    847.469     18.531    485.263    835.837    485.263    496.963    485.263
103.370    803.547    807.237     -3.690    485.059    796.872    485.059    495.486    485.059
103.470    766.000    768.404     -2.404    484.856    759.068    484.856    494.248    484.856
103.570    730.000    731.847     -1.847    484.653    723.346    484.653    493.205    484.653
103.670    662.144    698.238    -36.093    484.451    690.416    484.451    492.316    484.451
103.770    718.082    668.030     50.052    484.249    660.766    484.249    491.550    484.249
103.870    684.753    641.465     43.288    484.048    634.663    484.048    490.881    484.048
103.970    631.941    618.590     13.350    483.847    612.174    483.847    490.289    483.847
104.070    582.000    599.290    -17.290    483.647    593.200    483.647    489.757    483.647
104.170    599.000    583.320     15.680    483.448    577.511    483.448    489.273    483.448
104.270    597.000    570.359     26.641    483.249    564.792    483.249    488.828    483.249
104.370    560.000    560.040     -0.040    483.050    554.686    483.050    488.414    483.050
104.470    509.864    551.975    -42.111    482.852    546.808    482.852    488.026    482.852
104.570    537.355    545.813     -8.457    482.655    540.812    482.655    487.659    482.655
104.670    564.000    541.222     22.778    482.459    536.370    482.459    487.312    482.459
104.770    550.490    537.920     12.569    482.263    533.202    482.263    486.981    482.263
104.870    507.377    535.681    -28.303    482.068    531.082    482.068    486.665    482.068
104.970    519.793    534.331    -14.538    481.873    529.840    481.873    486.362    481.873
105.070    571.745    533.753     37.992    481.680    529.358    481.680    486.071    481.680
105.170    570.000    533.879     36.121    481.487    529.570    481.487    485.791    481.487
105.270    504.098    534.684    -30.586    481.295    530.451    481.295    485.521    481.295
105.370    545.000    536.185      8.815    481.104    532.020    481.104    485.260    481.104
105.470    536.000    538.434     -2.434    480.913    534.328    480.913    485.009    480.913
105.570    590.000    541.506     48.494    480.724    537.452    480.724    484.765    480.724
105.670    550.000    545.498      4.502    480.535    541.488    480.535    484.530    480.535
105.770    517.000    550.508    -33.508    480.348    546.535    480.348    484.303    480.348
105.870    554.000    556.624     -2.624    480.161    552.683    480.161    484.083    480.161
105.970    582.000    563.913     18.087    479.975    559.996    479.975    483.869    479.975
106.070    557.000    572.403    -15.403    479.791    568.504    479.791    483.663    479.791
106.170    616.000    582.069     33.931    479.607    578.184    479.607    483.463    479.607
106.270    602.000    592.829      9.171    479.425    588.951    479.425    483.269    479.425
106.370    572.330    604.532    -32.201    479.243    600.656    479.243    483.082    479.243
106.470    635.000    616.960     18.040    479.063    613.082    479.063    482.900    479.063
106.570    628.313    629.829     -1.517    478.883    625.945    478.883    482.725    478.883
106.670    603.620    642.796    -39.176    478.705    638.900    478.705    482.555    478.705
106.770    631.000    655.467    -24.467    478.528    651.557    478.528    482.392    478.528
106.870    693.454    667.420     26.034    478.353    663.490    478.353    482.234    478.353
106.970    669.000    678.226     -9.226    478.178    674.273    478.178    482.082    478.178
107.070    657.000    687.491    -30.491    478.005    683.512    478.005    481.936    478.005
107.170    700.000    694.902      5.098    477.833    690.893    477.833    481.796    477.833
107.270    636.000    700.283    -64.283    477.662    696.240    477.662    481.662    477.662
107.370    678.000    703.629    -25.629    477.493    699.549    477.493    481.533    477.493
107.470    692.000    705.118    -13.118    477.325    700.996    477.325    481.411    477.325
107.570    664.361    705.082    -40.722    477.158    700.914    477.158    481.295    477.158
107.670    703.000    703.953     -0.953    476.993    699.734    476.993    481.185    476.993
107.770    687.000    702.194    -15.194    476.829    697.918    476.829    481.082    476.829
107.870    643.000    700.239    -57.239    476.667    695.903    476.667    480.986    476.667
107.970    690.000    698.456     -8.456    476.506    694.052    476.506    480.896    476.506
108.070    667.000    697.105    -30.105    476.347    692.629    476.347    480.813    476.347
108.170    704.000    696.331      7.669    476.189    691.778    476.189    480.737    476.189
108.270    670.302    696.151    -25.849    476.033    691.514    476.033    480.669    476.033
108.370    690.179    696.454     -6.275    475.879    691.725    475.879    480.608    475.879
108.470    704.080    697.009      7.071    475.726    692.184    475.726    480.556    475.726
108.570    643.000    697.491    -54.491    475.575    692.562    475.575    480.512    475.575
108.670    690.000    697.504     -7.504    475.425    692.464    475.425    480.477    475.425
108.770    742.670    696.630     46.040    475.278    691.471    475.278    480.450    475.278
108.870    741.112    694.485     46.627    475.132    689.199    475.132    480.434    475.132
108.970    701.000    690.775     10.225    474.987    685.354    474.987    480.427    474.987
109.070    616.000    685.346    -69.346    474.845    679.780    474.845    480.431    474.845
109.170    635.000    678.198    -43.198    474.704    672.477    474.704    480.446    474.704
109.270    660.000    669.479     -9.479    474.566    663.593    474.566    480.473    474.566
109.370    682.253    659.449     22.803    474.429    653.387    474.429    480.513    474.429
109.470    687.000    648.440     38.560    474.294    642.190    474.294    480.565    474.294
109.570    647.511    636.812     10.699    474.161    630.361    474.161    480.632    474.161
109.670    650.000    624.922     25.078    474.030    618.258    474.030    480.713    474.030
109.770    598.000    613.106    -15.106    473.901    606.218    473.901    480.807    473.901
109.870    641.000    601.671     39.329    473.775    594.539    473.775    480.922    473.775
109.970    558.906    590.867    -31.960    473.650    583.473    473.650    481.057    473.650
110.070    589.889    580.873      9.016    473.527    573.198    473.527    481.213    473.527
110.170    603.000    571.869     31.131    473.407    563.893    473.407    481.392    473.407
110.270    575.416    563.972     11.444    473.289    555.671    473.289    481.597    473.289
110.370    613.000    557.209     55.791    473.172    548.555    473.172    481.831    473.172
110.470    524.828    551.582    -26.754    473.059    542.545    473.059    482.099    473.059
110.570    573.000    547.060     25.940    472.947    537.603    472.947    482.405    472.947
110.670    579.000    543.583     35.417    472.838    533.665    472.838    482.757    472.838
110.770    540.000    541.074     -1.074    472.731    530.644    472.731    483.160    472.731
110.870    576.000    539.437     36.563    472.626    528.442    472.626    483.619    472.626
110.970    509.940    538.596    -28.656    472.524    526.956    472.524    484.160    472.524
111.070    540.000    538.457      1.543    472.425    526.084    472.425    484.793    472.425
111.170    517.000    538.939    -21.939    472.327    525.728    472.327    485.533    472.327
111.270    556.000    539.976     16.024    472.233    525.797    472.233    486.405    472.233
111.370    577.799    541.512     36.287    472.141    526.211    472.141    487.434    472.141
111.470    518.000    543.511    -25.511    472.051    526.901    472.051    488.652    472.051
111.570    520.000    545.950    -25.950    471.964    527.808    471.964    490.097    471.964
111.670    509.000    548.826    -39.826    471.880    528.884    471.880    491.812    471.880
111.770    537.000    552.150    -15.150    471.798    530.092    471.798    493.846    471.798
111.870    520.000    555.953    -35.953    471.719    531.408    471.719    496.254    471.719
111.970    558.202    560.281     -2.079    471.643    532.816    471.643    499.097    471.643
112.070    571.209    565.197      6.011    471.569    534.314    471.569    502.441    471.569
112.170    603.000    570.778     32.222    471.499    535.908    471.499    506.357    471.499
112.270    639.000    577.111     61.889    471.431    537.614    471.431    510.916    471.431
112.370    627.310    584.294     43.016    471.366    539.456    471.366    516.192    471.366
112.470    630.820    592.430     38.390    471.304    541.468    471.304    522.254    471.304
112.570    595.000    601.625     -6.625    471.245    543.689    471.245    529.168    471.245
112.670    595.182    611.986    -16.804    471.189    546.173    471.189    536.989    471.189
112.770    584.576    623.623    -39.047    471.136    548.984    471.136    545.761    471.136
112.870    619.000    636.645    -17.645    471.086    552.205    471.086    555.512    471.086
112.970    632.358    651.166    -18.808    471.039    555.944    471.039    566.246    471.039
113.070    631.000    667.308    -36.308    470.996    560.341    470.996    577.945    470.996
113.170    654.000    685.206    -31.206    470.955    565.581    470.955    590.563    470.955
113.270    688.000    705.025    -17.025    470.918    571.904    470.918    604.018    470.918
113.370    724.000    726.965     -2.965    470.884    579.628    470.884    618.198    470.884
113.470    702.399    751.285    -48.886    470.853    589.164    470.853    632.948    470.853
113.570    798.940    778.318     20.622    470.825    601.041    470.825    648.074    470.825
113.670    769.347    808.501    -39.154    470.801    615.930    470.801    663.338    470.801
113.770    846.000    842.392      3.608    470.781    634.675    470.781    678.458    470.781
113.870    920.830    880.707     40.123    470.763    658.316    470.763    693.106    470.763
113.970    875.107    924.340    -49.233    470.750    688.118    470.750    706.914    470.750
114.070    958.000    974.399    -16.399    470.739    725.589    470.739    719.479    470.739
114.170   1041.382   1032.230      9.152    470.733    772.494    470.733    730.383    470.733
114.270   1042.000   1099.443    -57.443    470.729    830.854    470.729    739.215    470.729
114.370   1155.859   1177.930    -22.070    470.730    902.928    470.730    745.605    470.730
114.470   1282.000   1269.865     12.135    470.734    991.180    470.734    749.265    470.734
114.570   1355.000   1377.676    -22.676    470.742   1098.215    470.742    750.019    470.742
114.670   1579.000   1503.983     75.017    470.753   1226.686    470.753    747.830    470.753
114.770   1711.000   1651.482     59.518    470.769   1379.184    470.769    742.805    470.769
114.870   1895.000   1822.786     72.214    470.788   1558.087    470.788    735.179    470.788
114.970   1971.193   2020.228    -49.035    470.811   1765.394    470.811    725.287    470.811
115.070   2322.000   2245.634     76.366    470.838   2002.538    470.838    713.521    470.838
115.170   2574.000   2500.096     73.904    470.869   2270.193    470.869    700.303    470.869
115.270   2697.717   2783.752    -86.035    470.904   2568.084    470.904    686.043    470.904
115.370   3149.000   3095.590     53.410    470.943   2894.815    470.943    671.131    470.943
115.470   3544.000   3433.297    110.703    470.986   3247.726    470.986    655.916    470.986
115.570   3882.000   3793.157     88.843    471.033   3622.795    471.033    640.702    471.033
115.670   4124.000   4169.997    -45.997    471.084   4014.594    471.084    625.751    471.084
115.770   4661.000   4557.208    103.792    471.139   4416.300    471.139    611.278    471.139
115.870   4815.000   4946.826   -131.826    471.199   4819.776    471.199    597.458    471.199
115.970   5211.000   5329.679   -118.679    471.263   5215.719    471.263    584.423    471.263
116.070   5632.000   5695.613    -63.613    471.331   5593.880    471.331    572.272    471.331
116.170   6123.851   6033.803     90.049    471.404   5943.372    471.404    561.068    471.404
116.270   6443.181   6333.172    110.009    471.481   6253.087    471.481    550.842    471.481
116.370   6511.303   6582.946    -71.644    471.563   6512.245    471.563    541.602    471.563
116.470   6841.000   6773.342     67.658    471.648   6711.077    471.648    533.330    471.648
116.570   6843.000   6896.353    -53.353    471.739   6841.611    471.739    525.992    471.739
116.670   6841.226   6946.527   -105.301    471.834   6898.441    471.834    519.536    471.834
116.770   6959.000   6921.566     37.434    471.934   6879.323    471.934    513.902    471.934
116.870   6775.000   6822.585    -47.585    472.038   6785.439    472.038    509.023    472.038
116.970   6715.000   6653.968     61.032    472.147   6621.236    472.147    504.825    472.147
117.070   6378.000   6422.831    -44.831    472.261   6393.899    472.261    501.238    472.261
117.170   6235.065   6138.308     96.758    472.380   6112.632    472.380    498.188    472.380
117.270   5796.111   5810.783    -14.672    472.503   5787.884    472.503    495.609    472.503
117.370   5438.553   5451.086    -12.533    472.631   5430.546    472.631    493.436    472.631
117.470   5189.617   5069.976    119.641    472.765   5051.438    472.765    491.612    472.765
117.570   4620.000   4677.681    -57.681    472.903   4660.838    472.903    490.083    472.903
117.670   4255.053   4283.565    -28.512    473.046   4268.158    473.046    488.805    473.046
117.770   3861.570   3895.884    -34.314    473.195   3881.696    473.195    487.737    473.195
117.870   3605.711   3521.632     84.079    473.348   3508.482    473.348    486.844    473.348
117.970   3174.000   3166.456      7.544    473.507   3154.194    473.507    486.097    473.507
118.070   2845.466   2834.637     10.828    473.670   2823.140    473.670    485.473    473.670
118.170   2515.613   2529.137    -13.523    473.840   2518.303    473.840    484.950    473.840
118.270   2278.000   2251.692     26.308    474.014   2241.439    474.014    484.513    474.014
118.370   1866.000   2002.951   -136.951    474.194   1993.210    474.194    484.147    474.194
118.470   1762.443   1782.631    -20.188    474.379   1773.349    474.379    483.842    474.379
118.570   1624.165   1589.696     34.470    474.569   1580.827    474.569    483.589    474.569
118.670   1439.425   1422.525     16.900    474.765   1414.032    474.765    483.382    474.765
118.770   1290.991   1279.090     11.901    474.967   1270.941    474.967    483.214    474.967
118.870   1209.984   1157.110     52.874    475.174   1149.280    475.174    483.080    475.174
118.970   1040.000   1054.194    -14.194    475.387   1046.659    475.387    482.979    475.387
119.070    938.000    967.955    -29.955    475.605    960.696    475.605    482.906    475.605
119.170    952.000    896.104     55.896    475.829    889.102    475.829    482.860    475.829
119.270    813.000    836.510    -23.510    476.059    829.750    476.059    482.839    476.059
119.370    815.107    787.251     27.857    476.295    780.717    476.295    482.841    476.295
119.470    741.000    746.623     -5.623    476.537    740.301    476.537    482.866    476.537
119.570    734.571    713.155     21.416    476.784    707.030    476.784    482.912    476.784
119.670    657.000    685.594    -28.594    477.038    679.654    477.038    482.980    477.038
119.770    725.000    662.894     62.106    477.297    657.124    477.297    483.068    477.297
119.870    633.672    644.188    -10.516    477.563    638.575    477.563    483.176    477.563
119.970    628.000    628.772     -0.772    477.835    623.302    477.835    483.304    477.835
120.070    609.314    616.077     -6.763    478.113    610.736    478.113    483.453    478.113
120.170    629.342    605.647     23.694    478.397    600.422    478.397    483.622    478.397
120.270    588.107    597.122     -9.015    478.687    591.997    478.687    483.812    478.687
120.370    575.000    590.216    -15.216    478.984    585.177    478.984    484.023    478.984
120.470    546.000    584.705    -38.705    479.287    579.737    479.287    484.256    479.287
120.570    562.160    580.413    -18.253    479.597    575.502    479.597    484.510    479.597
120.670    538.449    577.205    -38.755    479.913    572.333    479.913    484.787    479.913
120.770    556.000    574.971    -18.971    480.235    570.123    480.235    485.087    480.235
120.870    552.000    573.629    -21.629    480.565    568.788    480.565    485.410    480.565
120.970    570.000    573.109     -3.109    480.900    568.257    480.900    485.757    480.900
121.070    498.000    573.354    -75.354    481.243    568.474    481.243    486.128    481.243
121.170    567.184    574.313     -7.129    481.592    569.389    481.592    486.524    481.592
121.270    619.673    575.939     43.734    481.948    570.952    481.948    486.944    481.948
121.370    573.000    578.185     -5.185    482.311    573.118    482.311    487.388    482.311
121.470    621.737    580.998     40.738    482.681    575.835    482.681    487.856    482.681
121.570    589.245    584.324      4.921    483.057    579.048    483.057    488.348    483.057
121.670    579.000    588.099     -9.099    483.441    582.695    483.441    488.862    483.441
121.770    585.855    592.252     -6.397    483.832    586.705    483.832    489.397    483.832
121.870    542.000    596.702    -54.702    484.230    591.001    484.230    489.952    484.230
121.970    642.034    601.361     40.673    484.635    595.495    484.635    490.525    484.635
122.070    628.000    606.132     21.868    485.047    600.091    485.047    491.114    485.047
122.170    630.000    610.909     19.091    485.466    604.689    485.466    491.715    485.466
122.270    578.665    615.581    -36.915    485.893    609.179    485.893    492.326    485.893
122.370    683.000    620.033     62.967    486.328    613.451    486.328    492.944    486.328
122.470    600.000    624.149    -24.149    486.769    617.392    486.769    493.564    486.769
122.570    614.000    627.819    -13.819    487.218    620.895    487.218    494.182    487.218
122.670    645.000    630.940     14.060    487.675    623.864    487.675    494.793    487.675
122.770    668.188    633.425     34.763    488.140    626.214    488.140    495.393    488.140
122.870    673.000    635.207     37.793    488.612    627.885    488.612    495.977    488.612
122.970    684.120    636.245     47.875    489.091    628.841    489.091    496.540    489.091
123.070    661.000    636.526     24.474    489.579    629.071    489.579    497.079    489.579
123.170    641.000    636.064      4.936    490.074    628.593    490.074    497.590    490.074
123.270    612.096    634.896    -22.800    490.578    627.447    490.578    498.070    490.578
123.370    621.144    633.080    -11.935    491.089    625.691    491.089    498.520    491.089
123.470    655.000    630.689     24.311    491.608    623.398    491.608    498.940    491.608
123.570    654.270    627.804     26.466    492.135    620.648    492.135    499.331    492.135
123.670    624.000    624.513     -0.513    492.671    617.524    492.671    499.697    492.671
123.770    663.000    620.903     42.097    493.214    614.110    493.214    500.041    493.214
123.870    653.117    617.058     36.059    493.766    610.487    493.766    500.369    493.766
123.970    623.000    613.059      9.941    494.326    606.730    494.326    500.684    494.326
124.070    602.068    608.978     -6.910    494.895    602.906    494.895    500.993    494.895
124.170    609.000    604.877      4.123    495.472    599.073    495.472    501.298    495.472
124.270    611.000    600.809     10.191    496.057    595.280    496.057    501.605    496.057
124.370    551.830    596.814    -44.984    496.651    591.564    496.651    501.918    496.651
124.470    593.218    592.923      0.295    497.254    587.951    497.254    502.240    497.254
124.570    582.000    589.155     -7.155    497.865    584.459    497.865    502.574    497.865
124.670    562.000    585.522    -23.522    498.485    581.094    498.485    502.922    498.485
124.770    589.000    582.026      6.974    499.114    577.860    499.114    503.288    499.114
124.870    570.000    578.667     -8.667    499.751    574.752    499.751    503.673    499.751
124.970    563.000    575.439    -12.439    500.398    571.764    500.398    504.078    500.398
