neutron_powder_diffraction_0065
R_wp: 4.165
Temperature (K): 721.317
Counts: 83387.00
Wavelength (Ã…): 2.52098
COMMENTS
Test file for demonstrating the .xyy file format in Reel1.0
END OF HEADER
   tth       Y_obs     Y_calc      Y_res    Background    Phase_1_Nuc    Phase_1_Mag    Phase_2_Nuc    Phase_2_Mag
  9.970    653.000    635.241     17.759    634.303    635.043    634.502    634.303    634.303
 10.070    686.000    635.466     50.534    634.470    635.266    634.671    634.470    634.470
 10.170    693.000    635.691     57.309    634.629    635.488    634.831    634.629    634.629
 10.270    648.000    635.917     12.083    634.780    635.712    634.984    634.780    634.780
 10.370    617.313    636.146    -18.834    634.922    635.939    635.129    634.922    634.922
 10.470    680.000    636.382     43.618    635.057    636.172    635.266    635.057    635.057
 10.570    664.000    636.626     27.374    635.184    636.414    635.395    635.184    635.184
 10.670    662.000    636.884     25.116    635.303    636.670    635.517    635.303    635.303
 10.770    619.980    637.168    -17.188    635.414    636.951    635.630    635.414    635.414
 10.870    641.000    637.545      3.455    635.518    637.325    635.736    635.518    635.518
 10.970    590.730    637.987    -47.257    635.614    637.765    635.835    635.614    635.614
 11.070    617.000    638.390    -21.390    635.703    638.165    635.926    635.703    635.703
 11.170    601.997    638.855    -36.858    635.784    638.628    636.010    635.784    635.784
 11.270    688.885    639.424     49.461    635.857    639.194    636.086    635.857    635.857
 11.370    593.659    640.144    -46.485    635.924    639.911    636.155    635.924    635.924
 11.470    645.000    641.102      3.898    635.983    640.865    636.217    635.983    635.983
 11.570    660.400    642.496     17.904    636.035    642.256    636.272    636.035    636.035
 11.670    729.000    644.912     84.088    636.080    644.668    636.319    636.080    636.080
 11.770    737.000    650.007     86.993    636.118    649.757    636.360    636.118    636.118
 11.870    662.316    661.465      0.851    636.149    661.205    636.394    636.149    636.149
 11.970    773.000    684.648     88.352    636.173    684.373    636.421    636.173    636.173
 12.070    672.298    722.330    -50.032    636.190    722.030    636.441    636.190    636.190
 12.170    802.000    766.612     35.388    636.200    766.285    636.454    636.200    636.200
 12.270    745.608    794.101    -48.493    636.204    793.754    636.461    636.204    636.204
 12.370    766.065    783.389    -17.324    636.201    783.046    636.461    636.201    636.201
 12.470    753.465    744.118      9.348    636.191    743.793    636.455    636.191    636.191
 12.570    691.000    701.737    -10.737    636.175    701.434    636.442    636.175    636.175
 12.670    638.437    671.502    -33.065    636.153    671.212    636.423    636.153    636.153
 12.770    660.000    654.880      5.120    636.124    654.596    636.397    636.124    636.124
 12.870    652.000    647.133      4.867    636.089    646.850    636.366    636.089    636.089
 12.970    648.000    643.631      4.369    636.047    643.346    636.328    636.047    636.047
 13.070    625.000    641.823    -16.823    635.999    641.536    636.284    635.999    635.999
 13.170    675.000    640.688     34.312    635.946    640.398    636.233    635.946    635.946
 13.270    603.000    639.875    -36.875    635.886    639.581    636.177    635.886    635.886
 13.370    626.000    639.252    -13.252    635.820    638.955    636.115    635.820    635.820
 13.470    601.000    638.755    -37.755    635.748    638.454    636.047    635.748    635.748
 13.570    584.000    638.346    -54.346    635.670    638.042    635.973    635.670    635.670
 13.670    587.249    638.001    -50.752    635.587    637.693    635.894    635.587    635.587
 13.770    656.602    637.701     18.900    635.497    637.389    635.809    635.497    635.497
 13.870    598.000    637.435    -39.435    635.402    637.119    635.718    635.402    635.402
 13.970    603.656    637.194    -33.537    635.302    636.873    635.622    635.302    635.302
 14.070    657.234    636.971     20.264    635.196    636.646    635.520    635.196    635.196
 14.170    567.000    636.761    -69.761    635.084    636.432    635.412    635.084    635.084
 14.270    592.797    636.563    -43.766    634.967    636.230    635.300    634.967    634.967
 14.370    597.415    636.386    -38.972    634.844    636.048    635.182    634.844    634.844
 14.470    601.000    636.213    -35.213    634.716    635.870    635.059    634.716    634.716
 14.570    586.000    636.031    -50.031    634.583    635.683    634.931    634.583    634.583
 14.670    594.184    635.850    -41.666    634.444    635.496    634.797    634.444    634.444
 14.770    645.000    635.669      9.331    634.301    635.311    634.659    634.301    634.301
 14.870    685.276    635.491     49.785    634.152    635.128    634.515    634.152    634.152
 14.970    592.000    635.334    -43.334    633.998    634.963    634.369    633.998    633.998
 15.070    627.144    635.204     -8.060    633.839    634.824    634.220    633.839    633.839
 15.170    583.000    635.026    -52.026    633.676    634.640    634.062    633.676    633.676
 15.270    651.000    634.842     16.158    633.507    634.450    633.899    633.507    633.507
 15.370    581.000    634.655    -53.655    633.334    634.257    633.731    633.334    633.334
 15.470    623.000    634.466    -11.466    633.155    634.062    633.559    633.155    633.155
 15.570    560.000    634.275    -74.275    632.973    633.865    633.382    632.973    632.973
 15.670    604.000    634.080    -30.080    632.785    633.664    633.201    632.785    632.785
 15.770    625.000    633.884     -8.884    632.593    633.461    633.015    632.593    632.593
 15.870    685.360    633.694     51.667    632.396    633.265    632.825    632.396    632.396
 15.970    643.000    633.564      9.436    632.195    633.128    632.630    632.195    632.195
 16.070    660.493    633.368     27.125    631.989    632.926    632.432    631.989    631.989
 16.170    582.000    633.159    -51.159    631.779    632.710    632.229    631.779    631.779
 16.270    657.000    632.947     24.053    631.565    632.490    632.021    631.565    631.565
 16.370    589.581    632.732    -43.151    631.346    632.268    631.810    631.346    631.346
 16.470    612.000    632.513    -20.513    631.123    632.041    631.595    631.123    631.123
 16.570    654.000    632.291     21.709    630.896    631.812    631.376    630.896    630.896
 16.670    610.000    632.066    -22.066    630.665    631.579    631.152    630.665    630.665
 16.770    583.254    631.838    -48.584    630.430    631.343    630.925    630.430    630.430
 16.870    611.000    631.612    -20.612    630.191    631.108    630.694    630.191    630.191
 16.970    602.439    631.379    -28.941    629.948    630.867    630.460    629.948    629.948
 17.070    598.641    631.142    -32.500    629.701    630.621    630.221    629.701    629.701
 17.170    628.505    630.901     -2.395    629.450    630.371    629.979    629.450    629.450
 17.270    641.678    630.657     11.021    629.195    630.118    629.734    629.195    629.195
 17.370    636.000    630.417      5.583    628.937    629.868    629.485    628.937    628.937
 17.470    601.000    630.189    -29.189    628.675    629.631    629.232    628.675    628.675
 17.570    637.000    629.939      7.061    628.409    629.371    628.977    628.409    628.409
 17.670    590.497    629.686    -39.189    628.139    629.108    628.717    628.139    628.139
 17.770    598.000    629.438    -31.438    627.866    628.849    628.455    627.866    627.866
 17.870    613.446    629.180    -15.734    627.590    628.581    628.189    627.590    627.590
 17.970    607.116    628.917    -21.801    627.310    628.306    627.920    627.310    627.310
 18.070    575.989    628.657    -52.668    627.027    628.035    627.649    627.027    627.027
 18.170    572.810    628.429    -55.619    626.740    627.795    627.374    626.740    626.740
 18.270    661.056    628.172     32.885    626.450    627.525    627.096    626.450    626.450
 18.370    575.287    627.929    -52.642    626.157    627.270    626.816    626.157    626.157
 18.470    636.645    627.661      8.984    625.860    626.989    626.532    625.860    625.860
 18.570    591.000    627.383    -36.383    625.561    626.698    626.246    625.561    625.561
 18.670    627.000    627.102     -0.102    625.258    626.403    625.957    625.258    625.258
 18.770    674.625    626.826     47.799    624.952    626.112    625.666    624.952    624.952
 18.870    597.624    626.546    -28.922    624.643    625.816    625.373    624.643    624.643
 18.970    667.091    626.263     40.828    624.332    625.517    625.078    624.332    624.332
 19.070    651.693    625.974     25.719    624.017    625.212    624.778    624.017    624.017
 19.170    612.926    625.682    -12.756    623.699    624.905    624.477    623.699    623.699
 19.270    637.000    625.389     11.611    623.379    624.595    624.173    623.379    623.379
 19.370    578.000    625.093    -47.093    623.056    624.282    623.866    623.056    623.056
 19.470    617.000    624.797     -7.797    622.730    623.969    623.558    622.730    622.730
 19.570    614.000    624.511    -10.511    622.401    623.664    623.247    622.401    622.401
 19.670    584.000    624.267    -40.267    622.070    623.402    622.935    622.070    622.070
 19.770    612.407    623.971    -11.565    621.736    623.087    622.620    621.736    621.736
 19.870    675.457    623.669     51.789    621.399    622.765    622.303    621.399    621.399
 19.970    617.000    623.368     -6.368    621.060    622.443    621.985    621.060    621.060
 20.070    631.000    623.084      7.916    620.719    622.138    621.665    620.719    620.719
 20.170    601.000    622.800    -21.800    620.375    621.832    621.343    620.375    620.375
 20.270    614.074    622.504     -8.430    620.028    621.513    621.020    620.028    620.028
 20.370    637.000    622.221     14.779    619.680    621.206    620.695    619.680    619.680
 20.470    597.000    621.938    -24.938    619.329    620.898    620.369    619.329    619.329
 20.570    595.000    621.632    -26.632    618.976    620.566    620.041    618.976    618.976
 20.670    636.027    621.322     14.705    618.620    620.230    619.712    618.620    618.620
 20.770    642.674    621.012     21.662    618.262    619.893    619.382    618.262    618.262
 20.870    637.307    620.703     16.605    617.903    619.555    619.051    617.903    617.903
 20.970    633.676    620.399     13.277    617.541    619.220    618.719    617.541    617.541
 21.070    628.000    620.094      7.906    617.177    618.885    618.386    617.177    617.177
 21.170    608.000    619.786    -11.786    616.811    618.545    618.052    616.811    616.811
 21.270    667.239    619.481     47.758    616.443    618.206    617.718    616.443    616.443
 21.370    614.000    619.176     -5.176    616.073    617.866    617.383    616.073    616.073
 21.470    601.000    618.873    -17.873    615.702    617.527    617.047    615.702    615.702
 21.570    585.038    618.569    -33.531    615.328    617.185    616.712    615.328    615.328
 21.670    629.000    618.265     10.735    614.953    616.842    616.376    614.953    614.953
 21.770    625.793    617.963      7.830    614.575    616.499    616.040    614.575    614.575
 21.870    574.821    617.663    -42.842    614.197    616.156    615.704    614.197    614.197
 21.970    584.000    617.366    -33.366    613.816    615.814    615.368    613.816    613.816
 22.070    604.000    617.072    -13.072    613.434    615.473    615.033    613.434    613.434
 22.170    568.868    616.783    -47.914    613.050    615.134    614.698    613.050    613.050
 22.270    590.000    616.498    -26.498    612.664    614.798    614.364    612.664    612.664
 22.370    632.000    616.216     15.784    612.277    614.462    614.032    612.277    612.277
 22.470    585.000    615.939    -30.939    611.889    614.129    613.700    611.889    611.889
 22.570    592.000    615.671    -23.671    611.499    613.801    613.369    611.499    611.499
 22.670    623.000    615.408      7.592    611.108    613.475    613.041    611.108    611.108
 22.770    634.000    615.154     18.846    610.715    613.155    612.714    610.715    610.715
 22.870    570.000    614.910    -44.910    610.321    612.841    612.389    610.321    610.321
 22.970    585.000    614.677    -29.677    609.925    612.536    612.067    609.925    609.925
 23.070    617.000    614.457      2.543    609.529    612.239    611.747    609.529    609.529
 23.170    538.000    614.252    -76.252    609.131    611.953    611.430    609.131    609.131
 23.270    575.355    614.066    -38.711    608.732    611.681    611.117    608.732    608.732
 23.370    655.472    613.904     41.568    608.331    611.428    610.807    608.331    608.331
 23.470    625.880    613.769     12.112    607.930    611.197    610.502    607.930    607.930
 23.570    655.000    613.669     41.331    607.527    610.996    610.202    607.527    607.527
 23.670    588.112    613.620    -25.508    607.124    610.838    609.907    607.124    607.124
 23.770    599.000    613.629    -14.629    606.719    610.731    609.618    606.719    606.719
 23.870    628.000    613.707     14.293    606.313    610.687    609.335    606.313    606.313
 23.970    642.860    613.889     28.971    605.907    610.739    609.058    605.907    605.907
 24.070    604.000    614.225    -10.225    605.499    610.936    608.790    605.499    605.499
 24.170    665.000    614.818     50.182    605.091    611.381    608.530    605.091    605.091
 24.270    644.000    615.946     28.054    604.682    612.350    608.280    604.682    604.682
 24.370    631.735    618.356     13.379    604.271    614.590    608.042    604.271    604.271
 24.470    627.000    623.717      3.283    603.860    619.772    607.815    603.860    603.860
 24.570    586.014    634.762    -48.748    603.449    630.628    607.600    603.449    603.449
 24.670    670.000    653.962     16.038    603.036    649.630    607.400    603.036    603.036
 24.770    690.000    680.112      9.888    602.623    675.569    607.216    602.623    602.623
 24.870    695.000    704.510     -9.510    602.210    699.737    607.050    602.210    602.210
 24.970    679.000    712.490    -33.490    601.795    707.454    606.904    601.795    601.795
 25.070    706.000    697.346      8.654    601.380    692.007    606.781    601.380    601.380
 25.170    711.000    670.460     40.540    600.965    664.784    606.684    600.965    600.965
 25.270    673.721    645.923     27.797    600.548    639.882    606.615    600.548    600.548
 25.370    672.000    629.630     42.370    600.132    623.195    606.579    600.132    600.132
 25.470    652.000    620.967     31.033    599.715    614.108    606.581    599.715    599.715
 25.570    569.677    617.013    -47.336    599.297    609.690    606.624    599.297    599.297
 25.670    574.147    615.319    -41.173    598.879    607.486    606.715    598.879    598.879
 25.770    592.331    614.598    -22.267    598.461    606.198    606.862    598.461    598.461
 25.870    663.145    614.340     48.806    598.042    605.310    607.073    598.042    598.042
 25.970    655.000    614.373     40.627    597.623    604.639    607.358    597.623    597.623
 26.070    652.358    614.640     37.718    597.204    604.115    607.730    597.204    597.204
 26.170    666.000    615.124     50.876    596.784    603.705    608.203    596.784    596.784
 26.270    625.799    615.824      9.975    596.364    603.393    608.796    596.364    596.364
 26.370    603.818    616.756    -12.939    595.944    603.169    609.532    595.944    595.944
 26.470    654.000    617.946     36.054    595.524    603.031    610.439    595.524    595.524
 26.570    575.319    619.431    -44.112    595.104    602.981    611.553    595.104    595.104
 26.670    648.000    621.268     26.732    594.683    603.029    612.921    594.683    594.683
 26.770    680.000    623.527     56.473    594.263    603.187    614.601    594.263    594.263
 26.870    635.979    626.307      9.672    593.842    603.476    616.672    593.842    593.842
 26.970    634.854    629.741      5.113    593.421    603.923    619.237    593.421    593.421
 27.070    687.000    634.008     52.992    593.001    604.569    622.437    593.001    593.001
 27.170    738.000    639.358     98.642    592.580    605.468    626.467    592.580    592.580
 27.270    678.000    646.150     31.850    592.159    606.700    631.606    592.159    592.159
 27.370    678.000    654.931     23.069    591.739    608.389    638.276    591.739    591.739
 27.470    620.521    666.642    -46.122    591.318    610.743    647.212    591.318    591.318
 27.570    660.181    683.234    -23.053    590.898    614.196    659.928    590.898    590.898
 27.670    765.000    709.214     55.786    590.478    619.746    679.934    590.478    590.478
 27.770    847.000    754.667     92.333    590.058    629.622    715.084    590.058    590.058
 27.870    880.000    838.709     41.291    589.638    648.043    780.271    589.638    589.638
 27.970    939.263    988.749    -49.486    589.218    681.061    896.848    589.218    589.218
 28.070   1123.000   1228.466   -105.466    588.799    733.917   1083.253    588.799    588.799
 28.170   1502.246   1551.356    -49.110    588.380    805.222   1334.381    588.380    588.380
 28.270   1867.000   1884.385    -17.385    587.961    878.984   1593.210    587.961    587.961
 28.370   2129.000   2074.507     54.493    587.542    921.701   1740.225    587.542    587.542
 28.470   2006.000   2007.391     -1.391    587.124    908.609   1685.852    587.124    587.124
 28.570   1802.000   1765.092     36.908    586.707    858.515   1493.286    586.707    586.707
 28.670   1478.928   1521.045    -42.116    586.289    810.597   1296.758    586.289    586.289
 28.770   1449.551   1387.222     62.329    585.872    790.276   1182.834    585.872    585.872
 28.870   1426.588   1384.112     42.475    585.456    801.673   1167.901    585.456    585.456
 28.970   1448.250   1456.165     -7.915    585.040    829.721   1211.492    585.040    585.040
 29.070   1461.000   1495.937    -34.937    584.624    845.010   1235.580    584.624    584.624
 29.170   1483.000   1419.621     63.379    584.209    824.635   1179.251    584.209    584.209
 29.270   1236.000   1248.541    -12.541    583.795    775.734   1056.669    583.795    583.795
 29.370   1112.000   1058.393     53.607    583.381    720.852    920.982    583.381    583.381
 29.470    915.716    901.303     14.414    582.967    675.405    808.908    582.967    582.967
 29.570    831.000    792.561     38.439    582.554    643.953    731.190    582.554    582.554
 29.670    726.112    725.603      0.508    582.142    624.626    683.136    582.142    582.142
 29.770    650.806    686.733    -35.927    581.731    613.456    655.016    581.731    581.731
 29.870    703.000    663.891     39.109    581.320    606.948    638.268    581.320    581.320
 29.970    605.291    649.458    -44.167    580.910    602.899    627.471    580.910    580.910
 30.070    592.521    639.520    -46.999    580.500    600.194    619.827    580.500    580.500
 30.170    623.463    632.303     -8.840    580.092    598.353    614.041    580.092    580.092
 30.270    624.296    627.075     -2.779    579.684    597.236    609.521    579.684    579.684
 30.370    646.496    623.673     22.823    579.276    596.944    606.002    579.276    579.276
 30.470    649.000    622.413     26.587    578.870    597.861    603.417    578.870    578.870
 30.570    681.000    624.123     56.877    578.464    600.712    601.866    578.464    578.464
 30.670    690.000    629.975     60.025    578.060    606.465    601.555    578.060    578.060
 30.770    645.490    640.885      4.605    577.656    615.867    602.650    577.656    577.656
 30.870    701.825    656.347     45.477    577.253    628.574    604.992    577.253    577.253
 30.970    687.000    672.806     14.194    576.851    641.909    607.704    576.851    576.851
 31.070    694.000    682.859     11.141    576.449    650.256    609.004    576.449    576.449
 31.170    717.000    679.653     37.347    576.049    648.413    607.245    576.049    576.049
 31.270    706.000    664.317     41.683    575.650    637.253    602.679    575.650    575.650
 31.370    619.235    644.374    -25.139    575.251    622.520    597.081    575.251    575.251
 31.470    664.000    626.332     37.668    574.854    609.182    591.988    574.854    574.854
 31.570    669.000    612.871     56.129    574.457    599.292    588.027    574.457    574.457
 31.670    608.408    603.988      4.420    574.062    592.854    585.190    574.062    574.062
 31.770    614.000    598.522     15.478    573.668    588.990    583.195    573.668    573.668
 31.870    656.000    595.192     60.808    573.274    586.730    581.732    573.274    573.274
 31.970    641.000    593.062     47.938    572.882    585.367    580.574    572.882    572.882
 32.070    627.000    591.602     35.398    572.491    584.501    579.590    572.491    572.491
 32.170    593.000    590.551      2.449    572.101    583.938    578.711    572.101    572.101
 32.270    596.330    589.795      6.535    571.712    583.598    577.907    571.712    571.712
 32.370    613.000    589.287     23.713    571.324    583.448    577.161    571.324    571.324
 32.470    630.000    589.008     40.992    570.938    583.481    576.463    570.938    570.938
 32.570    586.000    588.961     -2.961    570.552    583.707    575.805    570.552    570.552
 32.670    587.000    589.163     -2.163    570.168    584.146    575.183    570.168    570.168
 32.770    603.000    589.646     13.354    569.785    584.833    574.596    569.785    569.785
 32.870    587.000    590.462     -3.462    569.403    585.823    574.040    569.403    569.403
 32.970    588.000    591.689     -3.689    569.022    587.193    573.516    569.022    569.022
 33.070    631.814    593.447     38.367    568.643    589.062    573.025    568.643    568.643
 33.170    629.956    595.933     34.023    568.265    591.623    572.573    568.265    568.265
 33.270    626.000    599.515     26.485    567.888    595.231    572.169    567.888    567.888
 33.370    658.740    604.950     53.790    567.513    600.623    571.835    567.513    567.513
 33.470    669.012    613.827     55.184    567.139    609.339    571.621    567.139    567.139
 33.570    624.000    629.220     -5.220    566.766    624.356    571.621    566.766    566.766
 33.670    589.000    656.191    -67.191    566.394    650.577    571.993    566.394    566.394
 33.770    703.814    701.276      2.538    566.024    694.335    572.943    566.024    566.024
 33.870    814.000    769.933     44.067    565.655    760.915    574.639    565.655    565.655
 33.970    912.000    861.489     50.511    565.288    849.671    577.061    565.288    565.288
 34.070    999.000    962.056     36.944    564.922    947.154    579.773    564.922    564.922
 34.170    998.864   1039.276    -40.413    564.557   1022.026    581.761    564.557    564.557
 34.270    996.925   1054.144    -57.219    564.194   1036.505    581.801    564.194    564.194
 34.370    993.000    996.608     -3.608    563.832    980.845    579.579    563.832    563.832
 34.470    875.000    898.721    -23.721    563.472    886.089    576.098    563.472    563.472
 34.570    804.000    799.626      4.374    563.113    790.153    572.584    563.113    563.113
 34.670    716.793    720.355     -3.562    562.756    713.412    569.698    562.756    562.756
 34.770    639.533    665.657    -26.124    562.400    660.469    567.587    562.400    562.400
 34.870    622.000    631.623     -9.623    562.045    627.538    566.129    562.045    562.045
 34.970    630.000    611.615     18.385    561.693    608.190    565.117    561.693    561.693
 35.070    600.908    599.800      1.108    561.341    596.774    564.366    561.341    561.341
 35.170    627.000    592.351     34.649    560.991    589.585    563.757    560.991    560.991
 35.270    554.009    587.196    -33.187    560.643    584.613    563.225    560.643    560.643
 35.370    576.000    583.330     -7.330    560.296    580.886    562.739    560.296    560.296
 35.470    560.000    580.276    -20.276    559.951    577.943    562.284    559.951    559.951
 35.570    618.676    577.787     40.890    559.608    575.542    561.852    559.608    559.608
 35.670    549.000    575.715    -26.715    559.266    573.542    561.439    559.266    559.266
 35.770    548.000    573.963    -25.963    558.925    571.847    561.042    558.925    558.925
 35.870    598.775    572.462     26.313    558.587    570.389    560.659    558.587    558.587
 35.970    553.000    571.160    -18.160    558.250    569.120    560.289    558.250    558.250
 36.070    548.573    570.021    -21.449    557.914    568.003    559.932    557.914    557.914
 36.170    615.112    569.017     46.095    557.580    567.009    559.588    557.580    557.580
 36.270    516.777    568.126    -51.349    557.248    566.118    559.256    557.248    557.248
 36.370    557.000    567.334    -10.334    556.917    565.313    558.938    556.917    556.917
 36.470    585.437    566.629     18.808    556.589    564.582    558.635    556.589    556.589
 36.570    606.306    566.004     40.302    556.261    563.917    558.349    556.261    556.261
 36.670    576.000    565.455     10.545    555.936    563.309    558.082    555.936    555.936
 36.770    526.000    564.983    -38.983    555.612    562.757    557.839    555.612    555.612
 36.870    565.000    564.592      0.408    555.290    562.258    557.624    555.290    555.290
 36.970    588.657    564.294     24.362    554.970    561.820    557.445    554.970    554.970
 37.070    535.000    564.122    -29.122    554.651    561.460    557.313    554.651    554.651
 37.170    579.000    564.148     14.852    554.334    561.234    557.248    554.334    554.334
 37.270    559.000    564.530     -5.530    554.019    561.262    557.287    554.019    554.019
 37.370    576.000    565.569     10.431    553.705    561.766    557.509    553.705    553.705
 37.470    555.000    567.730    -12.730    553.394    563.057    558.067    553.394    553.394
 37.570    588.000    571.560     16.440    553.084    565.404    559.240    553.084    553.084
 37.670    593.945    577.442     16.503    552.776    568.773    561.446    552.776    552.776
 37.770    544.654    585.226    -40.572    552.469    572.523    565.174    552.469    552.469
 37.870    629.000    593.902     35.098    552.165    575.306    570.763    552.165    552.165
 37.970    584.000    601.848    -17.848    551.862    575.673    578.041    551.862    551.862
 38.070    584.000    607.635    -23.635    551.561    573.352    585.850    551.561    551.561
 38.170    598.000    609.968    -11.968    551.262    569.488    591.749    551.262    551.262
 38.270    587.000    607.317    -20.317    550.965    565.425    592.864    550.965    550.965
 38.370    550.000    599.610    -49.610    550.669    561.947    588.340    550.669    550.669
 38.470    538.381    589.341    -50.960    550.375    559.334    580.390    550.375    550.375
 38.570    582.000    579.408      2.592    550.084    557.526    571.971    550.084    550.084
 38.670    523.000    571.375    -48.375    549.794    556.304    564.868    549.794    549.794
 38.770    557.000    565.599     -8.599    549.505    555.455    559.651    549.505    549.505
 38.870    581.856    561.771     20.084    549.219    554.829    556.163    549.219    549.219
 38.970    512.000    559.341    -47.341    548.935    554.334    553.943    548.935    548.935
 39.070    532.000    557.781    -25.781    548.652    553.917    552.517    548.652    548.652
 39.170    493.000    556.716    -63.716    548.371    553.549    551.539    548.371    548.371
 39.270    507.678    555.920    -48.242    548.093    553.213    550.800    548.093    548.093
 39.370    543.000    555.277    -12.277    547.816    552.900    550.193    547.816    547.816
 39.470    584.276    554.730     29.546    547.541    552.606    549.665    547.541    547.541
 39.570    540.000    554.250    -14.250    547.267    552.327    549.191    547.267    547.267
 39.670    514.000    553.822    -39.822    546.996    552.061    548.757    546.996    546.996
 39.770    504.000    553.434    -49.434    546.727    551.809    548.353    546.727    546.727
 39.870    556.000    553.081      2.919    546.459    551.568    547.972    546.459    546.459
 39.970    595.495    552.756     42.739    546.194    551.339    547.611    546.194    546.194
 40.070    579.000    552.458     26.542    545.930    551.122    547.266    545.930    545.930
 40.170    507.835    552.183    -44.347    545.668    550.917    546.934    545.668    545.668
 40.270    558.000    551.930      6.070    545.409    550.725    546.614    545.409    545.409
 40.370    532.000    551.697    -19.697    545.151    550.546    546.303    545.151    545.151
 40.470    531.201    551.486    -20.285    544.895    550.381    546.000    544.895    544.895
 40.570    568.000    551.296     16.704    544.641    550.231    545.706    544.641    544.641
 40.670    533.000    551.127    -18.127    544.389    550.099    545.418    544.389    544.389
 40.770    548.825    550.983     -2.158    544.138    549.985    545.136    544.138    544.138
 40.870    540.000    550.863    -10.863    543.890    549.894    544.860    543.890    543.890
 40.970    533.000    550.773    -17.773    543.644    549.828    544.590    543.644    543.644
 41.070    547.000    550.716     -3.716    543.400    549.791    544.325    543.400    543.400
 41.170    537.819    550.696    -12.877    543.157    549.790    544.064    543.157    543.157
 41.270    523.000    550.722    -27.722    542.917    549.831    543.809    542.917    542.917
 41.370    568.000    550.802     17.198    542.678    549.923    543.558    542.678    542.678
 41.470    538.000    550.950    -12.950    542.442    550.080    543.313    542.442    542.442
 41.570    555.000    551.182      3.818    542.207    550.319    543.073    542.207    542.207
 41.670    598.996    551.526     47.469    541.975    550.665    542.838    541.975    541.975
 41.770    550.000    552.027     -2.027    541.744    551.163    542.611    541.744    541.744
 41.870    541.372    552.770    -11.398    541.516    551.897    542.392    541.516    541.516
 41.970    548.000    553.924     -5.924    541.289    553.030    542.185    541.289    541.289
 42.070    583.606    555.819     27.786    541.064    554.888    541.999    541.064    541.064
 42.170    524.000    559.050    -35.050    540.841    558.049    541.848    540.841    540.841
 42.270    569.000    564.534      4.466    540.621    563.410    541.752    540.621    540.621
 42.370    581.592    573.435      8.157    540.402    572.109    541.740    540.402    540.402
 42.470    599.540    586.812     12.728    540.185    585.178    541.837    540.185    540.185
 42.570    587.683    604.962    -17.279    539.970    602.909    542.050    539.970    539.970
 42.670    646.000    626.531     19.469    539.757    623.980    542.346    539.757    539.757
 42.770    620.000    647.574    -27.574    539.546    644.537    542.633    539.546    539.546
 42.870    645.000    661.507    -16.507    539.337    658.150    542.753    539.337    539.337
 42.970    639.358    662.208    -22.850    539.130    658.838    542.562    539.130    539.130
 43.070    584.000    649.231    -65.231    538.925    646.165    542.048    538.925    538.925
 43.170    593.630    628.307    -34.677    538.722    625.728    541.348    538.722    538.722
 43.270    565.000    606.245    -41.245    538.521    604.178    540.624    538.521    538.521
 43.370    586.000    587.325     -1.325    538.322    585.695    539.976    538.322    538.322
 43.470    569.000    573.138     -4.138    538.125    571.836    539.444    538.125    538.125
 43.570    526.902    563.518    -36.616    537.930    562.437    539.021    537.930    537.930
 43.670    540.000    557.451    -17.451    537.737    556.509    538.686    537.737    537.737
 43.770    565.000    553.759     11.241    537.546    552.900    538.409    537.546    537.546
 43.870    548.971    551.486     -2.516    537.357    550.678    538.168    537.357    537.357
 43.970    591.000    550.007     40.993    537.169    549.231    537.949    537.169    537.169
 44.070    597.000    548.967     48.033    536.984    548.211    537.742    536.984    536.984
 44.170    507.758    548.183    -40.426    536.801    547.443    537.543    536.801    536.801
 44.270    585.909    547.566     38.343    536.619    546.836    537.351    536.619    536.619
 44.370    521.767    547.067    -25.300    536.440    546.344    537.164    536.440    536.440
 44.470    530.000    546.659    -16.659    536.263    545.941    536.982    536.263    536.263
 44.570    595.047    546.324     48.723    536.087    545.609    536.804    536.087    536.087
 44.670    593.000    546.049     46.951    535.914    545.335    536.629    535.914    535.914
 44.770    565.000    545.824     19.176    535.742    545.109    536.458    535.742    535.742
 44.870    547.000    545.643      1.357    535.573    544.926    536.291    535.573    535.573
 44.970    536.000    545.501     -9.501    535.405    544.780    536.127    535.405    535.405
 45.070    569.000    545.394     23.606    535.239    544.668    535.966    535.239    535.239
 45.170    532.225    545.318    -13.093    535.076    544.586    535.808    535.076    535.076
 45.270    524.000    545.273    -21.273    534.914    544.533    535.654    534.914    534.914
 45.370    571.000    545.257     25.743    534.754    544.508    535.503    534.754    534.754
 45.470    539.000    545.269     -6.269    534.596    544.510    535.355    534.596    534.596
 45.570    537.044    545.310     -8.266    534.440    544.539    535.211    534.440    534.440
 45.670    541.250    545.380     -4.129    534.286    544.596    535.070    534.286    534.286
 45.770    575.000    545.479     29.521    534.134    544.681    534.933    534.134    534.134
 45.870    526.000    545.610    -19.610    533.984    544.795    534.799    533.984    533.984
 45.970    550.000    545.775      4.225    533.836    544.941    534.670    533.836    533.836
 46.070    537.000    545.975     -8.975    533.690    545.120    534.544    533.690    533.690
 46.170    570.000    546.214     23.786    533.545    545.337    534.422    533.545    533.545
 46.270    538.000    546.497     -8.497    533.403    545.595    534.305    533.403    533.403
 46.370    520.000    546.829    -26.829    533.263    545.899    534.192    533.263    533.263
 46.470    596.000    547.216     48.784    533.124    546.254    534.085    533.124    533.124
 46.570    579.000    547.667     31.333    532.987    546.671    533.983    532.987    532.987
 46.670    503.176    548.194    -45.018    532.852    547.158    533.887    532.852    532.852
 46.770    581.000    548.811     32.189    532.720    547.731    533.799    532.720    532.720
 46.870    535.000    549.543    -14.543    532.589    548.412    533.718    532.589    532.589
 46.970    546.000    550.432     -4.432    532.460    549.241    533.648    532.460    532.460
 47.070    547.000    551.552     -4.552    532.332    550.290    533.592    532.332    532.332
 47.170    582.000    553.047     28.953    532.207    551.695    533.556    532.207    532.207
 47.270    549.000    555.172     -6.172    532.083    553.698    533.553    532.083    532.083
 47.370    631.000    558.339     72.661    531.962    556.692    533.601    531.962    531.962
 47.470    560.090    563.123     -3.033    531.842    561.227    533.728    531.842    531.842
 47.570    561.670    570.185     -8.515    531.724    567.930    533.964    531.724    531.724
 47.670    598.000    580.045     17.955    531.608    577.300    534.332    531.608    531.608
 47.770    542.201    592.749    -50.548    531.494    589.377    534.836    531.494    531.494
 47.870    580.000    607.451    -27.451    531.382    603.356    535.437    531.382    531.382
 47.970    658.000    622.017     35.983    531.271    617.200    536.039    531.271    531.271
 48.070    681.000    632.992     48.008    531.163    627.617    536.484    531.163    531.163
 48.170    615.000    636.852    -21.852    531.056    631.242    536.612    531.056    531.056
 48.270    608.024    632.584    -24.560    530.951    627.109    536.377    530.951    530.951
 48.370    585.000    622.741    -37.741    530.848    617.651    535.897    530.848    530.848
 48.470    596.518    611.237    -14.720    530.747    606.598    535.355    530.747    530.747
 48.570    608.000    601.065      6.935    530.647    596.801    534.889    530.647    530.647
 48.670    566.114    593.796    -27.682    530.550    589.756    534.574    530.550    530.550
 48.770    615.684    589.907     25.776    530.454    585.914    534.435    530.454    530.454
 48.870    587.000    589.220     -2.220    530.360    585.100    534.471    530.360    530.360
 48.970    579.714    591.300    -11.586    530.267    586.894    534.667    530.267    530.267
 49.070    607.000    595.785     11.215    530.177    590.939    535.016    530.177    530.177
 49.170    607.410    602.620      4.790    530.088    597.168    535.534    530.088    530.088
 49.270    596.000    612.288    -16.288    530.001    606.011    536.272    530.001    530.001
 49.370    611.000    626.202    -15.202    529.916    618.755    537.355    529.916    529.916
 49.470    656.000    647.433      8.567    529.832    638.212    539.041    529.832    529.832
 49.570    655.012    681.831    -26.818    529.750    669.744    541.819    529.750    529.750
 49.670    772.665    739.213     33.452    529.670    722.346    546.506    529.670    529.670
 49.770    831.476    833.653     -2.178    529.592    808.922    554.273    529.592    529.592
 49.870    922.209    981.423    -59.214    529.516    944.390    566.474    529.516    529.516
 49.970   1098.000   1195.388    -97.388    529.441   1140.549    584.179    529.441    529.441
 50.070   1428.000   1476.112    -48.112    529.368   1397.924    607.436    529.368    529.368
 50.170   1786.000   1801.526    -15.526    529.296   1696.295    634.408    529.296    529.296
 50.270   2179.000   2118.102     60.898    529.227   1986.601    660.643    529.227    529.227
 50.370   2339.802   2342.046     -2.244    529.159   2192.028    679.166    529.159    529.159
 50.470   2551.000   2390.703    160.297    529.092   2236.784    683.091    529.092    529.092
 50.570   2245.000   2242.603      2.397    529.028   2101.166    670.611    529.028    529.028
 50.670   1985.000   1958.934     26.066    528.965   1841.284    646.787    528.965    528.965
 50.770   1586.000   1631.589    -45.589    528.903   1541.432    619.222    528.903    528.903
 50.870   1312.000   1330.789    -18.789    528.844   1266.055    593.713    528.844    528.844
 50.970   1037.000   1092.675    -55.675    528.786   1048.332    573.233    528.786    528.786
 51.070    866.000    925.690    -59.690    528.729    896.004    558.493    528.729    528.729
 51.170    796.000    820.439    -24.439    528.675    800.386    548.788    528.675    528.675
 51.270    745.000    759.329    -14.329    528.622    745.181    542.820    528.622    528.622
 51.370    674.375    724.040    -49.665    528.570    713.346    539.309    528.570    528.570
 51.470    708.871    700.191      8.680    528.520    691.457    537.295    528.520    528.520
 51.570    634.000    679.623    -45.623    528.472    671.950    536.180    528.472    528.472
 51.670    652.000    659.987     -7.987    528.425    652.800    535.641    528.425    528.425
 51.770    672.098    641.981     30.117    528.380    634.880    535.503    528.380    528.380
 51.870    617.665    626.817     -9.152    528.337    619.530    535.639    528.337    528.337
 51.970    645.000    615.140     29.860    528.295    607.540    535.906    528.295    528.295
 52.070    554.997    606.849    -51.853    528.254    599.003    536.108    528.254    528.254
 52.170    577.214    601.314    -24.099    528.215    593.508    536.026    528.215    528.215
 52.270    635.000    597.803     37.197    528.178    590.446    535.539    528.178    528.178
 52.370    622.000    595.849     26.151    528.142    589.274    534.720    528.142    528.142
 52.470    562.934    595.329    -32.394    528.108    589.680    533.758    528.108    528.108
 52.570    605.000    596.423      8.577    528.075    591.671    532.830    528.075    528.075
 52.670    639.455    599.666     39.789    528.044    595.666    532.045    528.044    528.044
 52.770    615.962    606.115      9.847    528.014    602.671    531.459    528.014    528.014
 52.870    620.219    617.613      2.606    527.986    614.511    531.088    527.986    527.986
 52.970    585.000    637.024    -52.024    527.959    634.047    530.935    527.959    527.959
 53.070    682.351    668.222     14.128    527.933    665.147    531.007    527.933    527.933
 53.170    705.000    715.562    -10.562    527.909    712.151    531.316    527.909    527.909
 53.270    763.000    782.629    -19.629    527.887    778.634    531.877    527.887    527.887
 53.370    870.000    870.335     -0.335    527.866    865.511    532.684    527.866    527.866
 53.470    974.000    974.664     -0.664    527.846    968.819    533.685    527.846    527.846
 53.570   1048.323   1084.457    -36.134    527.828   1077.525    534.757    527.828    527.828
 53.670   1187.000   1180.098      6.902    527.811   1172.224    535.688    527.811    527.811
 53.770   1219.655   1236.535    -16.880    527.796   1228.131    536.212    527.796    527.796
 53.870   1301.985   1234.905     67.079    527.782   1226.583    536.127    527.782    527.782
 53.970   1116.000   1175.974    -59.974    527.769   1168.333    535.440    527.769    527.769
 54.070   1058.000   1079.466    -21.466    527.758   1072.896    534.360    527.758    527.758
 54.170    992.184    970.280     21.904    527.748    964.908    533.149    527.748    527.748
 54.270    821.248    867.494    -46.246    527.740    863.248    532.010    527.740    527.740
 54.370    782.000    781.764      0.236    527.733    778.460    531.055    527.733    527.733
 54.470    738.265    716.730     21.534    527.727    714.148    530.322    527.727    527.727
 54.570    632.000    671.244    -39.244    527.722    669.176    529.799    527.722    527.722
 54.670    632.704    641.606     -8.902    527.719    639.885    529.446    527.719    527.719
 54.770    634.000    623.440     10.560    527.717    621.945    529.216    527.717    527.717
 54.870    617.000    612.898      4.102    527.716    611.550    529.068    527.716    527.716
 54.970    601.527    607.160     -5.633    527.717    605.908    528.971    527.717    527.717
 55.070    603.000    604.423     -1.423    527.719    603.238    528.905    527.719    527.719
 55.170    629.000    603.666     25.334    527.722    602.529    528.860    527.722    527.722
 55.270    582.000    604.369    -22.369    527.727    603.273    528.824    527.727    527.727
 55.370    609.000    606.275      2.725    527.732    605.247    528.761    527.732    527.732
 55.470    591.129    609.430    -18.301    527.739    608.434    528.735    527.739    527.739
 55.570    606.000    613.901     -7.901    527.747    612.920    528.729    527.747    527.747
 55.670    641.000    619.897     21.103    527.756    618.924    528.730    527.756    527.756
 55.770    592.054    627.852    -35.798    527.767    626.882    528.737    527.767    527.767
 55.870    657.000    638.593     18.407    527.779    637.620    528.750    527.779    527.779
 55.970    698.559    653.666     44.892    527.791    652.684    528.771    527.791    527.791
 56.070    733.000    675.865     57.135    527.805    674.865    528.799    527.805    527.805
 56.170    725.000    709.907     15.093    527.820    708.879    528.837    527.820    527.820
 56.270    754.904    763.060     -8.156    527.837    761.991    528.886    527.837    527.837
 56.370    875.000    845.245     29.755    527.854    844.118    528.951    527.854    527.854
 56.470    972.102    968.003      4.099    527.873    966.797    529.035    527.873    527.873
 56.570   1078.000   1141.813    -63.813    527.892   1140.508    529.143    527.892    527.892
 56.670   1337.000   1371.770    -34.770    527.913   1370.346    529.277    527.913    527.913
 56.770   1662.541   1652.299     10.242    527.935   1650.742    529.436    527.935    527.935
 56.870   1937.000   1961.774    -24.774    527.958   1960.087    529.613    527.958    527.958
 56.970   2282.000   2257.905     24.095    527.981   2256.106    529.796    527.981    527.981
 57.070   2572.000   2478.058     93.942    528.006   2476.184    529.966    528.006    528.006
 57.170   2642.479   2557.112     85.367    528.032   2555.200    530.102    528.032    528.032
 57.270   2499.063   2467.049     32.014    528.059   2465.118    530.199    528.059    528.059
 57.370   2305.000   2240.232     64.768    528.087   2238.274    530.268    528.087    528.087
 57.470   1896.000   1943.222    -47.222    528.116   1941.227    530.321    528.116    528.116
 57.570   1592.000   1637.679    -45.679    528.146   1635.583    530.420    528.146    528.146
 57.670   1357.000   1364.184     -7.184    528.177   1361.913    530.587    528.177    528.177
 57.770   1041.000   1142.973   -101.973    528.209   1140.429    530.854    528.209    528.209
 57.870    923.000    978.854    -55.854    528.242    975.887    531.278    528.242    528.242
 57.970    874.517    866.706      7.810    528.276    863.071    531.956    528.276    528.276
 58.070    788.000    796.845     -8.845    528.311    792.143    533.039    528.311    528.311
 58.170    776.000    759.334     16.666    528.347    752.945    534.748    528.347    528.347
 58.270    762.000    746.533     15.467    528.383    737.566    537.352    528.383    528.383
 58.370    757.000    753.838      3.162    528.421    741.130    541.122    528.421    528.421
 58.470    757.000    779.093    -22.093    528.459    761.304    546.233    528.459    528.459
 58.570    804.000    821.289    -17.289    528.498    797.121    552.643    528.498    528.498
 58.670    872.900    879.033     -6.133    528.538    847.576    559.964    528.538    528.538
 58.770    982.000    949.019     32.981    528.579    910.201    567.362    528.579    528.579
 58.870   1004.000   1024.910    -20.910    528.621    979.960    573.536    528.621    528.621
 58.970   1140.604   1097.941     42.663    528.664   1049.567    577.011    528.664    528.664
 59.070   1191.589   1160.187     31.402    528.707   1111.991    576.888    528.707    528.707
 59.170   1180.000   1207.139    -27.139    528.751   1162.448    573.441    528.751    528.751
 59.270   1288.000   1235.808     52.192    528.796   1196.811    567.804    528.796    528.796
 59.370   1349.000   1242.858    106.142    528.842   1210.502    561.218    528.842    528.842
 59.470   1239.829   1228.403     11.426    528.889   1202.671    554.644    528.889    528.889
 59.570   1238.000   1200.351     37.649    528.936   1180.565    548.737    528.936    528.936
 59.670   1198.000   1171.572     26.428    528.984   1156.675    543.874    528.984    528.984
 59.770   1270.000   1153.568    116.432    529.033   1142.402    540.160    529.033    529.033
 59.870   1193.000   1153.679     39.321    529.082   1145.182    537.502    529.082    529.082
 59.970   1198.983   1176.211     22.772    529.132   1169.520    535.704    529.132    529.132
 60.070   1203.834   1223.593    -19.759    529.183   1218.058    534.556    529.183    529.183
 60.170   1278.728   1294.612    -15.884    529.235   1289.774    533.871    529.235    529.235
 60.270   1392.069   1381.100     10.969    529.287   1376.659    533.495    529.287    529.287
 60.370   1530.000   1465.821     64.179    529.340   1461.611    533.302    529.340    529.340
 60.470   1558.000   1523.700     34.300    529.393   1519.666    533.187    529.393    529.393
 60.570   1500.000   1529.822    -29.822    529.447   1525.987    533.070    529.447    529.447
 60.670   1628.000   1473.775    154.225    529.502   1470.196    532.910    529.502    529.502
 60.770   1382.000   1367.107     14.893    529.557   1363.823    532.711    529.557    529.557
 60.870   1263.000   1234.181     28.819    529.613   1231.197    532.503    529.613    529.613
 60.970   1133.000   1098.512     34.488    529.669   1095.795    532.320    529.669    529.669
 61.070    914.613    976.556    -61.944    529.726    974.049    532.187    529.726    529.726
 61.170    892.000    877.456     14.544    529.784    875.079    532.126    529.784    529.784
 61.270    788.814    804.615    -15.801    529.842    802.274    532.154    529.842    529.842
 61.370    747.000    757.725    -10.725    529.900    755.305    532.292    529.900    529.900
 61.470    770.000    734.884     35.116    529.960    732.238    532.574    529.960    529.960
 61.570    700.945    734.379    -33.435    530.019    731.314    533.046    530.019    530.019
 61.670    790.222    755.686     34.536    530.079    751.945    533.770    530.079    530.079
 61.770    766.000    799.442    -33.442    530.140    794.702    534.813    530.140    530.140
 61.870    820.000    866.469    -46.469    530.201    860.356    536.226    530.201    530.201
 61.970    897.561    956.166    -58.605    530.262    948.294    538.022    530.262    530.262
 62.070   1061.000   1064.676     -3.676    530.324   1054.720    540.143    530.324    530.324
 62.170   1137.000   1183.200    -46.200    530.386   1170.989    542.438    530.386    530.386
 62.270   1280.555   1296.716    -16.161    530.449   1282.356    544.636    530.449    530.449
 62.370   1325.000   1384.296    -59.296    530.512   1368.278    546.359    530.512    530.512
 62.470   1376.000   1424.088    -48.088    530.576   1407.304    547.209    530.576    530.576
 62.570   1323.000   1404.045    -81.045    530.639   1387.599    546.969    530.639    530.639
 62.670   1276.000   1329.884    -53.884    530.704   1314.765    545.744    530.704    530.704
 62.770   1213.458   1220.873     -7.415    530.768   1207.709    543.886    530.768    530.768
 62.870   1059.468   1098.899    -39.431    530.833   1087.913    541.796    530.833    530.833
 62.970    956.000    981.213    -25.213    530.898    972.311    539.791    530.898    530.898
 63.070    843.356    878.602    -35.246    530.964    871.495    538.070    530.964    530.964
 63.170    773.000    796.072    -23.072    531.029    790.378    536.725    531.029    531.029
 63.270    681.051    734.210    -53.158    531.095    729.536    535.770    531.095    531.095
 63.370    732.000    690.751     41.249    531.162    686.744    535.167    531.162    531.162
 63.470    649.000    662.111    -13.111    531.228    658.477    534.857    531.228    531.228
 63.570    643.000    644.628     -1.628    531.295    641.134    534.781    531.295    531.295
 63.670    633.000    635.368     -2.368    531.362    631.818    534.902    531.362    531.362
 63.770    666.935    632.497     34.438    531.429    628.702    535.211    531.429    531.429
 63.870    669.861    635.341     34.520    531.497    631.080    535.741    531.497    531.497
 63.970    684.000    644.265     39.735    531.564    639.237    536.570    531.564    531.564
 64.070    675.000    660.431     14.569    531.632    654.206    537.827    531.632    531.632
 64.170    643.721    685.452    -41.731    531.700    677.421    539.690    531.700    531.700
 64.270    691.000    720.910    -29.910    531.768    710.251    542.373    531.768    531.768
 64.370    791.000    767.754     23.246    531.836    753.434    546.086    531.836    531.836
 64.470    878.000    825.599     52.401    531.905    806.430    550.985    531.905    531.905
 64.570    850.785    892.010    -41.226    531.973    866.784    557.092    531.973    531.973
 64.670    959.000    961.863     -2.863    532.041    929.565    564.216    532.041    532.041
 64.770   1055.000   1027.113     27.887    532.110    987.209    571.882    532.110    532.110
 64.870   1098.575   1077.786     20.789    532.179   1030.545    579.287    532.179    532.179
 64.970   1157.000   1104.847     52.153    532.247   1051.633    585.339    532.247    532.247
 65.070   1106.000   1103.770      2.230    532.316   1047.131    588.852    532.316    532.316
 65.170   1084.000   1076.167      7.833    532.385   1019.503    588.970    532.385    532.385
 65.270   1116.000   1028.813     87.187    532.454    975.576    585.638    532.454    532.454
 65.370    930.184    970.959    -40.775    532.523    923.786    579.666    532.523    532.523
 65.470    913.000    911.287      1.713    532.591    871.579    572.290    532.591    532.591
 65.570    858.542    855.821      2.721    532.660    823.833    564.655    532.660    532.660
 65.670    839.301    807.430     31.870    532.729    782.593    557.584    532.729    532.729
 65.770    759.000    766.532     -7.532    532.798    747.800    551.553    532.798    532.798
 65.870    684.000    732.367    -48.367    532.866    718.509    546.749    532.866    532.866
 65.970    629.000    704.082    -75.082    532.935    693.895    543.144    532.935    532.935
 66.070    694.000    681.067     12.933    533.003    673.513    540.577    533.003    533.003
 66.170    661.000    662.834     -1.834    533.072    657.095    538.825    533.072    533.072
 66.270    609.000    648.914    -39.914    533.140    644.395    537.668    533.140    533.140
 66.370    602.538    638.854    -36.316    533.208    635.150    536.917    533.208    533.208
 66.470    684.000    632.233     51.767    533.276    629.082    536.430    533.276    533.276
 66.570    642.492    628.680     13.812    533.344    625.915    536.110    533.344    533.344
 66.670    585.000    627.891    -42.891    533.411    625.407    535.896    533.411    533.411
 66.770    572.000    629.692    -57.692    533.479    627.420    535.751    533.479    533.479
 66.870    620.440    634.141    -13.701    533.546    632.031    535.655    533.546    533.546
 66.970    586.123    641.680    -55.557    533.613    639.693    535.599    533.613    533.613
 67.070    634.000    653.332    -19.332    533.680    651.431    535.580    533.680    533.680
 67.170    664.904    670.948     -6.043    533.747    669.092    535.600    533.747    533.747
 67.270    712.000    697.468     14.532    533.813    695.610    535.667    533.813    533.813
 67.370    787.295    737.118     50.176    533.879    735.196    535.794    533.879    533.879
 67.470    803.000    795.392      7.608    533.945    793.325    536.000    533.945    533.945
 67.570    896.839    878.637     18.202    534.010    876.326    536.306    534.010    534.010
 67.670    952.000    993.107    -41.107    534.076    990.429    536.736    534.076    534.076
 67.770   1119.000   1143.431    -24.431    534.141   1140.251    537.304    534.141    534.141
 67.870   1330.000   1330.679     -0.679    534.205   1326.860    538.013    534.205    534.205
 67.970   1478.409   1550.297    -71.888    534.270   1545.725    538.848    534.270    534.270
 68.070   1785.000   1790.238     -5.238    534.334   1784.846    539.761    534.334    534.334
 68.170   1980.526   2029.480    -48.955    534.397   2023.280    540.675    534.397    534.397
 68.270   2192.238   2237.724    -45.486    534.460   2230.842    541.477    534.460    534.460
 68.370   2435.000   2378.856     56.144    534.523   2371.544    542.034    534.523    534.523
 68.470   2328.000   2421.737    -93.737    534.586   2414.350    542.230    534.586    534.586
 68.570   2436.776   2355.535     81.241    534.648   2348.454    542.025    534.648    534.648
 68.670   2156.643   2196.466    -39.823    534.709   2190.005    541.478    534.709    534.709
 68.770   1928.000   1978.223    -50.223    534.770   1972.574    540.714    534.770    534.770
 68.870   1775.000   1736.484     38.516    534.831   1731.715    539.864    534.831    534.831
 68.970   1482.000   1499.669    -17.669    534.891   1495.749    539.033    534.891    534.891
 69.070   1347.523   1286.696     60.827    534.951   1283.534    538.292    534.951    534.951
 69.170   1111.443   1107.769      3.674    535.011   1105.241    537.677    535.011    535.011
 69.270    925.856    965.991    -40.135    535.069    963.962    537.201    535.069    535.069
 69.370    834.000    859.296    -25.296    535.128    857.642    536.855    535.128    535.128
 69.470    775.543    782.506     -6.963    535.185    781.123    536.621    535.185    535.185
 69.570    700.949    729.204    -28.256    535.243    728.010    536.474    535.243    535.243
 69.670    635.000    693.135    -58.135    535.299    692.070    536.391    535.299    535.299
 69.770    675.000    669.024      5.976    535.356    668.045    536.353    535.356    535.356
 69.870    683.562    652.875     30.687    535.411    651.955    536.345    535.411    535.411
 69.970    651.000    641.912      9.088    535.466    641.032    536.356    535.466    535.466
 70.070    619.000    634.340    -15.340    535.521    633.487    536.381    535.521    535.521
 70.170    606.000    629.067    -23.067    535.574    628.232    536.414    535.574    535.574
 70.270    603.000    625.463    -22.463    535.628    624.639    536.455    535.628    535.628
 70.370    624.000    623.190      0.810    535.680    622.372    536.500    535.680    535.680
 70.470    680.000    622.094     57.906    535.732    621.277    536.549    535.732    535.732
 70.570    661.000    622.159     38.841    535.783    621.336    536.605    535.783    535.783
 70.670    643.930    623.498     20.433    535.834    622.661    536.668    535.834    535.834
 70.770    605.000    626.388    -21.388    535.884    625.530    536.738    535.884    535.884
 70.870    654.000    631.354     22.646    535.933    630.462    536.818    535.933    535.933
 70.970    642.064    639.271      2.793    535.981    638.328    536.914    535.981    535.981
 71.070    636.000    651.503    -15.503    536.029    650.484    537.033    536.029    536.029
 71.170    641.000    670.040    -29.040    536.076    668.909    537.186    536.076    536.076
 71.270    665.784    697.577    -31.793    536.123    696.281    537.387    536.123    536.123
 71.370    684.700    737.464    -52.764    536.168    735.933    537.656    536.168    536.168
 71.470    811.000    793.452     17.548    536.213    791.594    538.011    536.213    536.213
 71.570    892.853    869.165     23.688    536.257    866.868    538.474    536.257    536.257
 71.670    909.127    967.302    -58.175    536.300    964.438    539.058    536.300    536.300
 71.770   1107.000   1088.644     18.356    536.343   1085.084    539.770    536.343    536.343
 71.870   1203.000   1231.005    -28.005    536.384   1226.632    540.596    536.384    536.384
 71.970   1397.000   1388.267      8.733    536.425   1382.999    541.504    536.425    536.425
 72.070   1555.978   1549.603      6.374    536.465   1543.422    542.436    536.465    536.465
 72.170   1752.000   1699.129     52.871    536.504   1692.106    543.307    536.504    536.504
 72.270   1843.334   1816.859     26.475    536.543   1809.178    544.007    536.543    536.543
 72.370   1887.000   1882.575      4.425    536.580   1874.531    544.429    536.580    536.580
 72.470   1848.415   1882.909    -34.494    536.617   1874.863    544.499    536.617    536.617
 72.570   1827.000   1817.705      9.295    536.652   1810.014    544.218    536.652    536.652
 72.670   1710.000   1700.109      9.891    536.687   1693.052    543.656    536.687    536.687
 72.770   1558.000   1550.275      7.725    536.721   1544.017    542.922    536.721    536.721
 72.870   1363.000   1388.233    -25.233    536.754   1382.831    542.122    536.754    536.754
 72.970   1247.000   1229.946     17.054    536.786   1225.372    541.342    536.786    536.786
 73.070   1097.000   1086.313     10.687    536.817   1082.486    540.636    536.817    536.817
 73.170    896.854    963.509    -66.655    536.847    960.319    540.036    536.847    536.847
 73.270    863.000    863.771     -0.771    536.876    861.096    539.551    536.876    536.876
 73.370    786.000    786.360     -0.360    536.905    784.086    539.179    536.905    536.905
 73.470    748.000    728.621     19.379    536.932    726.644    538.909    536.932    536.932
 73.570    773.000    686.971     86.029    536.958    685.201    538.728    536.958    536.958
 73.670    716.000    657.695     58.305    536.983    656.055    538.623    536.983    536.983
 73.770    672.000    637.479     34.521    537.007    635.900    538.586    537.007    537.007
 73.870    595.876    623.666    -27.791    537.031    622.086    538.611    537.031    537.031
 73.970    653.000    614.307     38.693    537.053    612.663    538.698    537.053    537.053
 74.070    624.000    608.072     15.928    537.074    606.299    538.850    537.074    537.074
 74.170    646.000    604.107     41.893    537.094    602.137    539.070    537.094    537.094
 74.270    571.209    601.875    -30.666    537.113    599.636    539.361    537.113    537.113
 74.370    559.000    601.022    -42.022    537.131    598.444    539.722    537.131    537.131
 74.470    594.000    601.271     -7.271    537.147    598.291    540.146    537.147    537.147
 74.570    636.000    602.349     33.651    537.163    598.921    540.616    537.163    537.163
 74.670    622.000    603.938     18.062    537.178    600.041    541.105    537.178    537.178
 74.770    642.000    605.648     36.352    537.191    601.299    541.575    537.191    537.191
 74.870    563.542    607.023    -43.481    537.203    602.287    541.979    537.203    537.203
 74.970    669.000    607.599     61.401    537.215    602.589    542.267    537.215    537.215
 75.070    689.000    607.035     81.965    537.225    601.900    542.404    537.225    537.225
 75.170    609.369    605.256      4.113    537.234    600.149    542.384    537.234    537.234
 75.270    670.000    602.508     67.492    537.241    597.552    542.237    537.241    537.241
 75.370    721.000    599.269    121.731    537.248    594.529    542.023    537.248    537.248
 75.470    648.430    596.115     52.315    537.253    591.586    541.811    537.253    537.253
 75.570    562.484    593.626    -31.142    537.257    589.233    541.672    537.257    537.257
 75.670    547.915    592.363    -44.448    537.260    587.964    541.675    537.260    537.260
 75.770    554.987    592.875    -37.888    537.262    588.256    541.890    537.262    537.262
 75.870    655.000    595.692     59.308    537.262    590.574    542.382    537.262    537.262
 75.970    632.000    601.313     30.687    537.262    595.353    543.217    537.262    537.262
 76.070    601.000    610.162     -9.162    537.260    602.961    544.448    537.260    537.260
 76.170    628.000    622.522      5.478    537.257    613.643    546.115    537.257    537.257
 76.270    667.255    638.439     28.817    537.252    627.439    548.223    537.252    537.252
 76.370    659.000    657.627      1.373    537.246    644.098    550.738    537.246    537.246
 76.470    692.000    679.374     12.626    537.239    662.996    553.572    537.239    537.239
 76.570    700.850    702.456     -1.606    537.231    683.064    556.569    537.231    537.231
 76.670    746.000    725.084     20.916    537.221    702.742    559.502    537.221    537.221
 76.770    710.597    744.925    -34.328    537.210    719.991    562.078    537.210    537.210
 76.870    740.007    759.329    -19.322    537.198    732.501    563.959    537.198    537.198
 76.970    793.000    765.916     27.084    537.184    738.192    564.843    537.184    537.184
 77.070    723.000    763.419    -40.419    537.170    735.958    564.570    537.170    537.170
 77.170    744.123    752.243     -8.120    537.153    726.152    563.191    537.153    537.153
 77.270    698.000    734.256    -36.256    537.136    710.403    560.943    537.136    537.136
 77.370    680.000    712.026    -32.026    537.117    690.952    558.155    537.117    537.117
 77.470    670.859    688.066    -17.207    537.096    669.990    555.144    537.096    537.096
 77.570    693.000    664.424     28.576    537.075    649.305    552.172    537.075    537.075
 77.670    650.000    642.572      7.428    537.052    630.181    549.426    537.052    537.052
 77.770    594.116    623.422    -29.305    537.027    613.415    547.022    537.027    537.027
 77.870    657.782    607.399     50.382    537.001    599.377    545.015    537.001    537.001
 77.970    600.000    594.539      5.461    536.974    588.098    543.409    536.974    536.974
 78.070    586.000    584.595      1.405    536.945    579.363    542.173    536.945    536.945
 78.170    563.000    577.156    -14.156    536.915    572.811    541.257    536.915    536.915
 78.270    610.878    571.743     39.135    536.884    568.026    540.598    536.884    536.884
 78.370    516.260    567.889    -51.629    536.851    564.599    540.138    536.851    536.851
 78.470    562.000    565.186     -3.186    536.816    562.174    539.826    536.816    536.816
 78.570    525.006    563.307    -38.301    536.780    560.464    539.621    536.780    536.780
 78.670    565.000    562.008      2.992    536.743    559.256    539.493    536.743    536.743
 78.770    512.693    561.118    -48.426    536.704    558.401    539.420    536.704    536.704
 78.870    584.000    560.528     23.472    536.664    557.802    539.389    536.664    536.664
 78.970    527.000    560.172    -33.172    536.622    557.400    539.393    536.622    536.622
 79.070    552.000    560.016     -8.016    536.579    557.165    539.429    536.579    536.579
 79.170    575.775    560.050     15.726    536.534    557.086    539.497    536.534    536.534
 79.270    536.813    560.282    -23.469    536.488    557.168    539.601    536.488    536.488
 79.370    611.148    560.735     50.412    536.441    557.426    539.749    536.441    536.441
 79.470    577.000    561.447     15.553    536.391    557.885    539.951    536.391    536.391
 79.570    586.491    562.468     24.023    536.341    558.580    540.227    536.341    536.341
 79.670    592.004    563.869     28.135    536.288    559.551    540.603    536.288    536.288
 79.770    589.072    565.743     23.329    536.234    560.853    541.121    536.234    536.234
 79.870    529.000    568.217    -39.217    536.179    562.553    541.840    536.179    536.179
 79.970    558.934    571.460    -12.526    536.122    564.735    542.843    536.122    536.122
 80.070    579.000    575.693      3.307    536.064    567.511    544.241    536.064    536.064
 80.170    599.000    581.196     17.804    536.004    571.021    546.173    536.004    536.004
 80.270    596.000    588.307      7.693    535.942    575.438    548.805    535.942    535.942
 80.370    616.000    597.411     18.589    535.879    580.966    552.317    535.879    535.879
 80.470    661.584    608.916     52.668    535.814    587.838    556.885    535.814    535.814
 80.570    609.000    623.219    -14.219    535.748    596.308    562.652    535.748    535.748
 80.670    595.521    640.661    -45.140    535.680    606.641    569.695    535.680    535.680
 80.770    634.000    661.446    -27.446    535.611    619.066    577.987    535.611    535.611
 80.870    671.741    685.528    -13.787    535.540    633.711    587.356    535.540    535.540
 80.970    761.098    712.491     48.607    535.467    650.512    597.450    535.467    535.467
 81.070    741.000    741.452     -0.452    535.393    669.139    607.714    535.393    535.393
 81.170    758.839    771.014    -12.175    535.317    688.949    617.398    535.317    535.317
 81.270    839.030    799.357     39.674    535.240    709.005    625.614    535.240    535.240
 81.370    799.000    824.491    -25.491    535.160    728.188    631.496    535.160    535.160
 81.470    796.000    844.650    -48.650    535.080    745.376    634.395    535.080    535.080
 81.570    832.000    858.595    -26.595    534.997    759.603    634.041    534.997    534.997
 81.670    866.310    865.708      0.602    534.913    770.135    630.546    534.913    534.913
 81.770    898.000    865.962     32.038    534.828    776.519    624.337    534.828    534.828
 81.870    820.000    859.866    -39.866    534.740    778.615    616.064    534.740    534.740
 81.970    794.140    848.332    -54.192    534.652    776.547    606.512    534.652    534.652
 82.070    821.368    832.431    -11.063    534.561    770.588    596.483    534.561    534.561
 82.170    820.000    813.221      6.779    534.469    761.096    586.673    534.469    534.469
 82.270    773.000    791.744    -18.744    534.375    748.597    577.600    534.375    534.375
 82.370    762.000    769.076     -7.076    534.279    733.844    569.587    534.279    534.279
 82.470    754.000    746.238      7.762    534.182    717.715    562.778    534.182    534.182
 82.570    734.257    724.023     10.234    534.083    701.005    557.171    534.083    534.083
 82.670    705.000    702.907      2.093    533.983    684.290    552.664    533.983    533.983
 82.770    693.000    683.112      9.888    533.880    667.951    549.100    533.880    533.880
 82.870    676.000    664.774     11.226    533.777    652.301    546.302    533.777    533.777
 82.970    612.000    648.072    -36.072    533.671    637.680    544.109    533.671    533.671
 83.070    622.589    633.241    -10.652    533.564    624.459    542.384    533.564    533.564
 83.170    618.000    620.511     -2.511    533.455    612.974    541.023    533.455    533.455
 83.270    648.455    610.052     38.403    533.344    603.473    539.946    533.344    533.344
 83.370    585.000    601.949    -16.949    533.232    596.099    539.096    533.232    533.232
 83.470    575.000    596.203    -21.203    533.118    590.895    538.433    533.118    533.118
 83.570    607.000    592.737     14.263    533.002    587.811    537.927    533.002    533.002
 83.670    584.000    591.392     -7.392    532.884    586.711    537.557    532.884    532.884
 83.770    553.000    591.924    -38.924    532.765    587.371    537.303    532.765    532.765
 83.870    569.372    594.002    -24.630    532.644    589.480    537.143    532.644    532.644
 83.970    560.263    597.206    -36.942    532.522    592.642    537.055    532.522    532.522
 84.070    596.000    601.028     -5.028    532.397    596.377    537.012    532.397    532.397
 84.170    563.389    604.881    -41.492    532.271    600.127    536.984    532.271    532.271
 84.270    634.685    608.125     26.560    532.144    603.286    536.938    532.144    532.144
 84.370    593.000    610.134    -17.134    532.014    605.259    536.842    532.014    532.014
 84.470    571.000    610.417    -39.417    531.883    605.581    536.673    531.883    531.883
 84.570    598.000    608.755    -10.755    531.750    604.042    536.419    531.750    531.750
 84.670    581.000    605.262    -24.262    531.615    600.751    536.086    531.615    531.615
 84.770    575.000    600.326    -25.326    531.479    596.076    535.693    531.479    531.479
 84.870    622.506    594.458     28.048    531.341    590.501    535.266    531.341    531.341
 84.970    636.175    588.173     48.002    531.201    584.511    534.835    531.201    531.201
 85.070    595.000    581.913     13.087    531.060    578.524    534.426    531.060    531.060
 85.170    533.746    576.028    -42.282    530.916    572.863    534.063    530.916    530.916
 85.270    570.000    570.765     -0.765    530.771    567.754    533.768    530.771    530.771
 85.370    560.000    566.280     -6.280    530.625    563.332    533.561    530.625    530.625
 85.470    577.000    562.653     14.347    530.476    559.657    533.462    530.476    530.476
 85.570    570.000    559.895     10.105    530.326    556.723    533.489    530.326    530.326
 85.670    565.000    557.974      7.026    530.174    554.480    533.660    530.174    530.174
 85.770    575.000    556.830     18.170    530.021    552.855    533.988    530.021    530.021
 85.870    590.000    556.375     33.625    529.865    551.751    534.481    529.865    529.865
 85.970    587.000    556.537     30.463    529.708    551.093    535.143    529.708    529.708
 86.070    556.000    557.331     -1.331    529.549    550.901    535.970    529.549    529.549
 86.170    578.000    558.673     19.327    529.389    551.114    536.937    529.389    529.389
 86.270    571.000    560.531     10.469    529.227    551.738    538.007    529.227    529.227
 86.370    561.000    562.890     -1.890    529.063    552.816    539.122    529.063    529.063
 86.470    593.000    565.751     27.249    528.897    554.422    540.209    528.897    528.897
 86.570    524.000    569.122    -45.122    528.729    556.658    541.173    528.729    528.729
 86.670    567.000    573.021     -6.021    528.560    559.647    541.910    528.560    528.560
 86.770    603.000    577.477     25.523    528.389    563.518    542.319    528.389    528.389
 86.870    541.000    582.540    -41.540    528.217    568.397    542.325    528.217    528.217
 86.970    561.000    588.288    -27.288    528.043    574.383    541.905    528.043    528.043
 87.070    582.182    594.806    -12.624    527.867    581.530    541.091    527.867    527.867
 87.170    583.100    602.152    -19.052    527.689    589.816    539.965    527.689    527.689
 87.270    655.000    610.310     44.690    527.509    599.122    538.625    527.509    527.509
 87.370    598.174    619.138    -20.964    527.328    609.211    537.173    527.328    527.328
 87.470    626.000    628.349     -2.349    527.145    619.708    535.693    527.145    527.145
 87.570    601.379    637.495    -36.116    526.961    630.098    534.254    526.961    526.961
 87.670    673.000    645.976     27.024    526.774    639.730    532.907    526.774    526.774
 87.770    661.000    653.074      7.926    526.586    647.857    531.685    526.586    526.586
 87.870    730.000    658.061     71.939    526.397    653.731    530.605    526.397    526.397
 87.970    674.317    660.351     13.966    526.205    656.766    529.670    526.205    526.205
 88.070    679.000    659.682     19.318    526.012    656.705    528.875    526.012    526.012
 88.170    700.000    656.199     43.801    525.817    653.705    528.205    525.817    525.817
 88.270    642.000    650.405     -8.405    525.621    648.287    527.645    525.621    525.621
 88.370    664.000    643.017     20.983    525.423    641.182    527.176    525.423    525.423
 88.470    672.000    634.818     37.182    525.223    633.190    526.784    525.223    525.223
 88.570    633.000    626.564      6.436    525.022    625.078    526.454    525.022    525.022
 88.670    596.000    618.929    -22.929    524.818    617.530    526.176    524.818    524.818
 88.770    636.952    612.469     24.483    524.614    611.114    525.940    524.614    524.614
 88.870    608.000    607.604      0.396    524.407    606.254    525.740    524.407    524.407
 88.970    621.000    604.592     16.408    524.199    603.213    525.572    524.199    524.199
 89.070    583.000    603.526    -20.526    523.989    602.089    525.430    523.989    523.989
 89.170    614.470    604.334     10.137    523.778    602.814    525.310    523.778    523.778
 89.270    619.000    606.786     12.214    523.564    605.166    525.206    523.564    523.564
 89.370    610.000    610.512     -0.512    523.350    608.780    525.111    523.350    523.350
 89.470    663.000    615.015     47.985    523.133    613.168    525.018    523.133    523.133
 89.570    553.000    619.694    -66.694    522.915    617.738    524.916    522.915    522.915
 89.670    606.000    623.878    -17.878    522.696    621.832    524.794    522.696    522.696
 89.770    674.215    626.896     47.319    522.474    624.787    524.640    522.474    522.474
 89.870    592.468    628.170    -35.702    522.251    626.036    524.446    522.251    522.251
 89.970    633.000    627.344      5.656    522.027    625.228    524.206    522.027    522.027
 90.070    596.000    624.362    -28.362    521.801    622.306    523.920    521.801    521.801
 90.170    602.000    619.461    -17.461    521.573    617.502    523.593    521.573    521.573
 90.270    655.450    613.087     42.363    521.344    611.253    523.235    521.344    521.344
 90.370    571.000    605.768    -34.768    521.113    604.077    522.856    521.113    521.113
 90.470    584.498    598.019    -13.521    520.880    596.479    522.467    520.880    520.880
 90.570    596.711    590.287      6.424    520.646    588.898    522.076    520.646    520.646
 90.670    552.499    582.927    -30.428    520.411    581.681    521.691    520.411    520.411
 90.770    525.957    576.201    -50.244    520.174    575.085    521.317    520.174    520.174
 90.870    519.689    570.277    -50.588    519.935    569.277    520.957    519.935    519.935
 90.970    546.000    565.244    -19.244    519.695    564.343    520.614    519.695    519.695
 91.070    599.697    561.123     38.574    519.453    560.303    520.286    519.453    519.453
 91.170    547.000    557.882    -10.882    519.209    557.126    519.975    519.209    519.209
 91.270    560.000    555.456      4.544    518.965    554.750    519.677    518.965    518.965
 91.370    512.000    553.766    -41.766    518.718    553.095    519.393    518.718    518.718
 91.470    553.512    552.732      0.780    518.470    552.084    519.120    518.470    518.470
 91.570    561.476    552.287      9.189    518.221    551.651    518.857    518.221    518.221
 91.670    505.830    552.391    -46.561    517.970    551.757    518.603    517.970    517.970
 91.770    570.000    553.033     16.967    517.718    552.391    518.357    517.718    517.718
 91.870    561.000    554.238      6.762    517.464    553.577    518.121    517.464    517.464
 91.970    526.636    556.069    -29.432    517.209    555.377    517.894    517.209    517.209
 92.070    555.000    558.622     -3.622    516.952    557.887    517.678    516.952    516.952
 92.170    514.000    562.027    -48.027    516.694    561.233    517.476    516.694    516.694
 92.270    560.000    566.439     -6.439    516.434    565.569    517.290    516.434    516.434
 92.370    597.000    572.028     24.972    516.173    571.062    517.122    516.173    516.173
 92.470    568.650    578.968    -10.318    515.910    577.883    516.974    515.910    515.910
 92.570    537.898    587.417    -49.518    515.647    586.189    516.848    515.647    515.647
 92.670    561.000    597.504    -36.504    515.381    596.109    516.745    515.381    515.381
 92.770    617.339    609.309      8.030    515.115    607.722    516.665    515.115    515.115
 92.870    639.000    622.842     16.158    514.847    621.041    516.604    514.847    514.847
 92.970    617.000    638.032    -21.032    514.577    635.998    516.561    514.577    514.577
 93.070    630.842    654.705    -23.863    514.306    652.425    516.529    514.306    514.306
 93.170    654.000    672.577    -18.577    514.034    670.045    516.502    514.034    514.034
 93.270    708.445    691.234     17.211    513.761    688.453    516.471    513.761    513.761
 93.370    673.175    710.180    -37.005    513.486    707.162    516.428    513.486    513.486
 93.470    717.000    728.850    -11.850    513.210    725.616    516.364    513.210    513.210
 93.570    711.000    746.678    -35.678    512.932    743.254    516.273    512.932    512.932
 93.670    767.000    763.249      3.751    512.654    759.663    516.155    512.654    512.654
 93.770    751.000    778.405    -27.405    512.374    774.675    516.017    512.374    512.374
 93.870    754.336    792.263    -37.928    512.092    788.395    515.875    512.092    512.092
 93.970    841.000    805.146     35.854    511.810    801.121    515.750    511.810    511.810
 94.070    761.145    817.431    -56.286    511.526    813.207    515.667    511.526    511.526
 94.170    867.000    829.427     37.573    511.241    824.935    515.651    511.241    511.241
 94.270    800.776    841.306    -40.530    510.955    836.458    515.724    510.955    510.955
 94.370    845.000    853.127     -8.127    510.667    847.818    515.899    510.667    510.667
 94.470    858.000    864.903     -6.903    510.379    859.022    516.185    510.379    510.379
 94.570    909.000    876.656     32.344    510.089    870.095    516.578    510.089    510.089
 94.670    898.000    888.412      9.588    509.798    881.075    517.066    509.798    509.798
 94.770    887.000    900.108    -13.108    509.506    891.925    517.624    509.506    509.506
 94.870    864.745    911.471    -46.726    509.213    902.407    518.215    509.213    509.213
 94.970    927.000    921.922      5.078    508.918    911.989    518.793    508.918    508.918
 95.070    876.054    930.548    -54.494    508.623    919.817    519.302    508.623    508.623
 95.170    889.953    936.179    -46.227    508.326    924.781    519.679    508.326    508.326
 95.270    865.000    937.563    -72.563    508.028    925.690    519.865    508.028    508.028
 95.370    950.000    933.649     16.351    507.730    921.541    519.810    507.730    507.730
 95.470    924.000    923.895      0.105    507.430    911.819    519.487    507.430    507.430
 95.570    957.538    908.475     49.063    507.129    896.695    518.898    507.129    507.129
 95.670    901.000    888.279     12.721    506.827    877.029    518.073    506.827    506.827
 95.770    942.000    864.729     77.271    506.524    854.192    517.063    506.524    506.524
 95.870    900.000    839.517     60.483    506.220    829.816    515.926    506.220    506.220
 95.970    771.662    814.382    -42.720    505.916    805.579    514.725    505.916    505.916
 96.070    734.181    790.980    -56.799    505.610    783.082    513.513    505.610    505.610
 96.170    744.000    770.820    -26.820    505.303    763.789    512.339    505.303    505.303
 96.270    768.000    755.253     12.747    504.995    749.010    511.240    504.995    504.995
 96.370    751.000    745.463      5.537    504.687    739.901    510.245    504.687    504.687
 96.470    732.000    742.467    -10.467    504.377    737.462    509.372    504.377    504.377
 96.570    779.153    747.121     32.032    504.067    742.537    508.633    504.067    504.067
 96.670    815.033    760.104     54.929    503.755    755.800    508.033    503.755    503.755
 96.770    837.000    781.904     55.096    503.443    777.743    507.569    503.443    503.443
 96.870    784.000    812.794    -28.794    503.130    808.643    507.237    503.130    503.130
 96.970    902.000    852.787     49.213    502.816    848.522    507.026    502.816    502.816
 97.070    906.126    901.586      4.540    502.502    897.095    506.927    502.502    502.502
 97.170    900.508    958.525    -58.017    502.186    953.710    506.925    502.186    502.186
 97.270   1023.347   1022.507      0.840    501.870   1017.287    507.005    501.870    501.870
 97.370   1162.000   1091.948     70.052    501.553   1086.262    507.146    501.553    501.553
 97.470   1151.000   1164.735    -13.735    501.236   1158.544    507.326    501.236    501.236
 97.570   1294.365   1238.195     56.170    500.918   1231.490    507.519    500.918    500.918
 97.670   1312.000   1309.112      2.888    500.599   1301.915    507.692    500.599    500.599
 97.770   1305.698   1373.810    -68.112    500.279   1366.177    507.813    500.279    500.279
 97.870   1413.000   1428.370    -15.370    499.959   1420.392    507.846    499.959    499.959
 97.970   1465.000   1469.042     -4.042    499.638   1460.844    507.759    499.638    499.638
 98.070   1481.152   1492.819    -11.667    499.316   1484.549    507.526    499.316    499.316
 98.170   1444.907   1498.023    -53.116    498.994   1489.844    507.133    498.994    498.994
 98.270   1465.597   1484.665    -19.068    498.671   1476.734    506.582    498.671    498.671
 98.370   1416.802   1454.386    -37.584    498.348   1446.842    505.890    498.348    498.348
 98.470   1417.000   1410.030      6.970    498.024   1402.985    505.084    498.024    498.024
 98.570   1361.530   1355.315      6.216    497.700   1348.847    504.196    497.700    497.700
 98.670   1321.000   1293.992     27.008    497.375   1288.148    503.257    497.375    497.375
 98.770   1241.017   1229.743     11.275    497.050   1224.538    502.298    497.050    497.050
 98.870   1123.000   1165.933    -42.933    496.724   1161.358    501.343    496.724    496.724
 98.970   1053.000   1105.510    -52.510    496.398   1101.538    500.414    496.398    496.398
 99.070   1013.000   1050.976    -37.976    496.071   1047.562    499.526    496.071    496.071
 99.170    996.000   1004.390     -8.390    495.744   1001.480    498.689    495.744    495.744
 99.270    920.000    967.406    -47.406    495.417    964.942    497.909    495.417    495.417
 99.370    950.287    941.330      8.957    495.089    939.250    497.190    495.089    495.089
 99.470    959.000    927.126     31.874    494.762    925.371    496.530    494.762    494.762
 99.570    981.216    925.459     55.757    494.433    923.971    495.927    494.433    494.433
 99.670    968.000    936.712     31.288    494.105    935.439    495.375    494.105    494.105
 99.770    919.533    960.996    -41.463    493.776    959.896    494.868    493.776    493.776
 99.870   1064.359    998.155     66.204    493.447    997.188    494.400    493.447    493.447
 99.970   1038.000   1047.743     -9.743    493.118   1046.880    493.965    493.118    493.118
100.070   1148.593   1109.003     39.590    492.788   1108.218    493.556    492.788    492.788
100.170   1228.755   1180.822     47.933    492.459   1180.096    493.169    492.459    492.459
100.270   1291.000   1261.683     29.317    492.129   1261.002    492.800    492.129    492.129
100.370   1277.322   1349.615    -72.292    491.799   1348.967    492.443    491.799    491.799
100.470   1472.000   1442.157     29.843    491.469   1441.535    492.098    491.469    491.469
100.570   1644.000   1536.375    107.625    491.139   1535.774    491.761    491.139    491.139
100.670   1635.000   1628.956      6.044    490.809   1628.372    491.431    490.809    490.809
100.770   1657.669   1716.469    -58.800    490.479   1715.900    491.107    490.479    490.479
100.870   1855.000   1795.652     59.348    490.150   1795.094    490.788    490.150    490.150
100.970   1848.213   1863.776    -15.563    489.820   1863.226    490.474    489.820    489.820
101.070   1899.000   1918.862    -19.862    489.490   1918.314    490.165    489.490    489.490
101.170   2065.000   1959.658    105.342    489.160   1959.107    489.860    489.160    489.160
101.270   1952.000   1985.431    -33.431    488.830   1984.869    489.559    488.830    488.830
101.370   1957.000   1995.727    -38.727    488.501   1995.148    489.264    488.501    488.501
101.470   2076.852   1990.289     86.563    488.171   1989.683    488.974    488.171    488.171
101.570   2009.000   1969.186     39.814    487.842   1968.546    488.689    487.842    487.842
101.670   1954.000   1933.116     20.884    487.513   1932.434    488.408    487.513    487.513
101.770   1971.246   1883.676     87.570    487.185   1882.944    488.131    487.185    487.185
101.870   1847.733   1823.420     24.313    486.856   1822.630    487.857    486.856    486.856
101.970   1773.000   1755.635     17.365    486.528   1754.784    487.585    486.528    486.528
102.070   1690.000   1683.926      6.074    486.200   1683.010    487.312    486.200    486.200
102.170   1660.000   1611.766     48.234    485.873   1610.785    487.038    485.873    485.873
102.270   1519.000   1542.148    -23.148    485.546   1541.105    486.759    485.546    485.546
102.370   1399.000   1477.388    -78.388    485.219   1476.290    486.474    485.219    485.219
102.470   1372.000   1419.047    -47.047    484.893   1417.903    486.180    484.893    484.893
102.570   1341.000   1367.928    -26.928    484.567   1366.750    485.877    484.567    484.567
102.670   1255.000   1324.119    -69.119    484.242   1322.918    485.562    484.242    484.242
102.770   1240.000   1287.050    -47.050    483.917   1285.840    485.237    483.917    483.917
102.870   1327.064   1255.579     71.485    483.593   1254.374    484.901    483.593    483.593
102.970   1215.498   1228.103    -12.605    483.270   1226.914    484.555    483.270    483.270
103.070   1189.000   1202.733    -13.733    482.947   1201.574    484.199    482.947    482.947
103.170   1137.934   1177.592    -39.659    482.625   1176.474    483.834    482.625    482.625
103.270   1157.000   1150.954      6.046    482.303   1149.887    483.461    482.303    482.303
103.370   1054.000   1121.587    -67.587    481.982   1120.579    483.080    481.982    481.982
103.470   1158.472   1088.887     69.586    481.662   1087.944    482.694    481.662    481.662
103.570   1031.290   1052.872    -21.582    481.343   1052.000    482.304    481.343    481.343
103.670    989.850   1014.068    -24.217    481.024   1013.266    481.912    481.024    481.024
103.770    986.929    973.308     13.621    480.707    972.578    481.520    480.707    480.707
103.870    981.264    931.565     49.699    480.390    930.903    481.130    480.390    480.390
103.970    897.000    889.811      7.189    480.074    889.215    480.744    480.074    480.074
104.070    859.000    848.948     10.052    479.759    848.411    480.363    479.759    479.759
104.170    854.935    809.753     45.182    479.445    809.272    479.988    479.445    479.445
104.270    850.000    772.869     77.131    479.132    772.437    479.620    479.132    479.132
104.370    773.360    738.785     34.575    478.820    738.397    479.258    478.820    478.820
104.470    744.000    707.839     36.161    478.509    707.488    478.904    478.509    478.509
104.570    694.000    680.219     13.781    478.199    679.900    478.556    478.199    478.199
104.670    617.747    655.977    -38.230    477.890    655.684    478.215    477.890    477.890
104.770    647.000    635.045     11.955    477.583    634.774    477.880    477.583    477.583
104.870    701.000    617.262     83.738    477.276    617.008    477.552    477.276    477.276
104.970    644.000    602.396     41.604    476.971    602.156    477.229    476.971    476.971
105.070    587.000    590.172     -3.172    476.667    589.942    476.912    476.667    476.667
105.170    647.000    580.298     66.702    476.365    580.075    476.599    476.365    476.365
105.270    619.000    572.485     46.515    476.063    572.265    476.291    476.063    476.063
105.370    580.000    566.459     13.541    475.764    566.240    475.988    475.764    475.764
105.470    602.000    561.983     40.017    475.465    561.762    475.689    475.465    475.465
105.570    574.000    558.855     15.145    475.168    558.629    475.395    475.168    475.168
105.670    586.000    556.917     29.083    474.873    556.684    475.105    474.873    474.873
105.770    556.000    556.054     -0.054    474.579    555.810    474.819    474.579    474.579
105.870    530.000    556.190    -26.190    474.286    555.932    474.539    474.286    474.286
105.970    570.684    557.287     13.397    473.995    557.010    474.265    473.995    473.995
106.070    520.000    559.336    -39.336    473.706    559.036    473.996    473.706    473.706
106.170    584.730    562.352     22.378    473.418    562.023    473.735    473.418    473.418
106.270    576.000    566.366      9.634    473.132    566.004    473.480    473.132    473.132
106.370    604.000    571.418     32.582    472.848    571.016    473.233    472.848    472.848
106.470    602.000    577.546     24.454    472.566    577.098    472.993    472.566    472.566
106.570    631.448    584.775     46.673    472.285    584.274    472.762    472.285    472.285
106.670    587.767    593.092     -5.326    472.006    592.532    472.539    472.006    472.006
106.770    576.118    602.509    -26.391    471.729    601.883    472.325    471.729    471.729
106.870    664.000    612.949     51.051    471.454    612.252    472.118    471.454    471.454
106.970    571.596    624.290    -52.694    471.181    623.517    471.917    471.181    471.181
107.070    632.815    636.365     -3.550    470.911    635.512    471.722    470.911    470.911
107.170    656.000    648.950      7.050    470.642    648.017    471.532    470.642    470.642
107.270    628.000    661.769    -33.769    470.375    660.755    471.343    470.375    470.375
107.370    618.000    674.493    -56.493    470.110    673.401    471.153    470.110    470.110
107.470    698.000    686.746     11.254    469.847    685.583    470.961    469.847    469.847
107.570    725.000    698.127     26.873    469.587    696.901    470.763    469.587    469.587
107.670    738.000    708.229     29.771    469.329    706.953    470.556    469.329    469.329
107.770    752.735    716.687     36.048    469.073    715.374    470.337    469.073    469.073
107.870    694.000    723.222    -29.222    468.820    721.891    470.104    468.820    468.820
107.970    710.000    727.698    -17.698    468.568    726.366    469.856    468.568    468.568
108.070    719.000    730.150    -11.150    468.320    728.836    469.594    468.320    468.320
108.170    692.578    730.785    -38.207    468.073    729.506    469.317    468.073    468.073
108.270    729.719    729.952     -0.233    467.830    728.722    469.028    467.830    467.830
108.370    688.000    728.083    -40.083    467.588    726.915    468.729    467.588    467.588
108.470    752.000    725.636     26.364    467.350    724.538    468.424    467.350    467.350
108.570    728.670    723.037      5.632    467.113    722.016    468.115    467.113    467.113
108.670    692.000    720.650    -28.650    466.880    719.709    467.806    466.880    466.880
108.770    684.000    718.748    -34.748    466.649    717.887    467.498    466.649    466.649
108.870    672.719    717.504    -44.785    466.421    716.723    467.195    466.421    466.421
108.970    751.446    716.985     34.462    466.196    716.279    466.897    466.196    466.196
109.070    705.000    717.148    -12.148    465.974    716.515    466.606    465.974    465.974
109.170    717.000    717.854     -0.854    465.755    717.287    466.323    465.755    465.755
109.270    701.752    718.864    -17.112    465.538    718.358    466.048    465.538    465.538
109.370    725.567    719.861      5.706    465.325    719.410    465.783    465.325    465.325
109.470    758.587    720.474     38.113    465.114    720.072    465.526    465.114    465.114
109.570    699.000    720.313    -21.313    464.907    719.954    465.278    464.907    464.907
109.670    671.861    719.012    -47.150    464.702    718.691    465.038    464.702    464.702
109.770    677.066    716.280    -39.214    464.501    715.992    464.806    464.501    464.501
109.870    758.000    711.942     46.058    464.303    711.682    464.581    464.303    464.303
109.970    653.000    705.956    -52.956    464.108    705.721    464.364    464.108    464.108
110.070    686.000    698.417    -12.417    463.917    698.202    464.153    463.917    463.917
110.170    675.000    689.529    -14.529    463.729    689.331    463.947    463.729    463.729
110.270    700.000    679.567     20.433    463.544    679.384    463.748    463.544    463.544
110.370    717.329    668.845     48.484    463.363    668.675    463.554    463.363    463.363
110.470    665.000    657.684      7.316    463.185    657.523    463.365    463.185    463.185
110.570    678.000    646.387     31.613    463.011    646.235    463.181    463.011    463.011
110.670    663.000    635.231     27.769    462.840    635.086    463.001    462.840    462.840
110.770    667.000    624.459     42.541    462.673    624.321    462.827    462.673    462.673
110.870    639.000    614.276     24.724    462.510    614.141    462.657    462.510    462.510
110.970    576.000    604.843    -28.843    462.350    604.713    462.492    462.350    462.350
111.070    605.000    596.287      8.713    462.195    596.159    462.331    462.195    462.195
111.170    624.324    588.690     35.634    462.043    588.565    462.174    462.043    462.043
111.270    570.000    582.101    -12.101    461.894    581.978    462.023    461.894    461.894
111.370    523.186    576.533    -53.347    461.750    576.412    461.875    461.750    461.750
111.470    588.000    571.971     16.029    461.610    571.852    461.731    461.610    461.610
111.570    534.000    568.379    -34.379    461.474    568.261    461.592    461.474    461.474
111.670    556.809    565.703     -8.895    461.342    565.585    461.458    461.342    461.342
111.770    611.000    563.880     47.120    461.214    563.761    461.329    461.214    461.214
111.870    601.000    562.828     38.172    461.090    562.709    461.205    461.090    461.090
111.970    556.000    562.466     -6.466    460.970    562.346    461.085    460.970    460.970
112.070    556.000    562.716     -6.716    460.855    562.595    460.969    460.855    460.855
112.170    557.000    563.500     -6.500    460.744    563.379    460.858    460.744    460.744
112.270    520.408    564.751    -44.342    460.638    564.628    460.752    460.638    460.638
112.370    534.361    566.406    -32.045    460.536    566.282    460.650    460.536    460.536
112.470    580.288    568.414     11.874    460.438    568.289    460.553    460.438    460.438
112.570    567.000    570.737     -3.737    460.345    570.611    460.460    460.345    460.345
112.670    583.000    573.347      9.653    460.257    573.220    460.372    460.257    460.257
112.770    561.000    576.232    -15.232    460.173    576.104    460.289    460.173    460.173
112.870    592.542    579.393     13.148    460.094    579.264    460.211    460.094    460.094
112.970    597.000    582.847     14.153    460.020    582.716    460.138    460.020    460.020
113.070    532.000    586.623    -54.623    459.950    586.490    460.070    459.950    459.950
113.170    615.250    590.764     24.486    459.886    590.630    460.007    459.886    459.886
113.270    566.000    595.332    -29.332    459.826    595.195    459.949    459.826    459.826
113.370    574.000    600.402    -26.402    459.771    600.263    459.897    459.771    459.771
113.470    598.000    606.075     -8.075    459.722    605.931    459.851    459.722    459.722
113.570    617.000    612.476      4.524    459.677    612.328    459.810    459.677    459.677
113.670    581.000    619.767    -38.767    459.638    619.612    459.776    459.638    459.638
113.770    574.000    628.151    -54.151    459.604    627.990    459.747    459.604    459.604
113.870    640.808    637.890      2.918    459.575    637.719    459.726    459.575    459.575
113.970    606.000    649.311    -43.311    459.552    649.130    459.711    459.552    459.552
114.070    638.098    662.828    -24.730    459.534    662.633    459.702    459.534    459.534
114.170    684.416    678.954      5.461    459.521    678.744    459.702    459.521    459.521
114.270    722.793    698.324     24.469    459.514    698.095    459.708    459.514    459.514
114.370    674.929    721.711    -46.782    459.512    721.459    459.723    459.512    459.512
114.470    713.000    750.047    -37.047    459.516    749.768    459.745    459.516    459.516
114.570    799.000    784.434     14.566    459.526    784.125    459.776    459.526    459.526
114.670    812.000    826.166    -14.166    459.542    825.821    459.815    459.542    459.542
114.770    916.000    876.725     39.275    459.563    876.339    459.863    459.563    459.563
114.870    878.508    937.786    -59.278    459.590    937.353    459.919    459.590    459.590
114.970    999.000   1011.200    -12.200    459.623   1010.715    459.985    459.623    459.623
115.070   1062.869   1098.968    -36.099    459.662   1098.423    460.059    459.662    459.662
115.170   1190.000   1203.196    -13.196    459.707   1202.587    460.142    459.707    459.707
115.270   1256.467   1326.038    -69.571    459.759   1325.357    460.233    459.759    459.759
115.370   1509.000   1469.613     39.387    459.816   1468.856    460.333    459.816    459.816
115.470   1687.000   1635.914     51.086    459.880   1635.075    460.442    459.880    459.880
115.570   1822.199   1826.689     -4.490    459.950   1825.764    460.558    459.950    459.950
115.670   2056.953   2043.323     13.630    460.026   2042.308    460.682    460.026    460.026
115.770   2336.050   2286.702     49.348    460.109   2285.595    460.813    460.109    460.109
115.870   2631.000   2557.080     73.920    460.198   2555.881    460.950    460.198    460.198
115.970   3011.000   2853.950    157.050    460.293   2852.659    461.094    460.293    460.293
116.070   3283.000   3175.928    107.072    460.396   3174.549    461.244    460.396    460.396
116.170   3516.000   3520.656     -4.656    460.505   3519.194    461.399    460.505    460.505
116.270   3964.247   3884.726     79.520    460.621   3883.189    461.559    460.621    460.621
116.370   4263.800   4263.636      0.164    460.743   4262.031    461.725    460.743    460.743
116.470   4678.292   4651.765     26.528    460.872   4650.103    461.896    460.872    460.872
116.570   4884.000   5042.390   -158.390    461.009   5040.684    462.072    461.009    461.009
116.670   5262.000   5427.731   -165.731    461.152   5425.994    462.255    461.152    461.152
116.770   5688.014   5799.049   -111.035    461.303   5797.295    462.445    461.303    461.303
116.870   6033.000   6146.809   -113.809    461.460   6145.052    462.643    461.460    461.460
116.970   6456.000   6460.958     -4.958    461.625   6459.212    462.848    461.625    461.625
117.070   6852.000   6731.344    120.656    461.797   6729.625    463.062    461.797    461.797
117.170   6812.143   6948.315   -136.172    461.976   6946.637    463.284    461.976    461.976
117.270   7061.080   7103.452    -42.372    462.163   7101.825    463.514    462.163    462.163
117.370   7221.000   7190.372     30.628    462.357   7188.804    463.752    462.357    462.357
117.470   7278.000   7205.590     72.410    462.559   7204.086    463.998    462.559    462.559
117.570   7043.107   7148.698   -105.590    462.768   7147.256    464.250    462.768    462.768
117.670   7007.287   7022.583    -15.296    462.985   7021.201    464.507    462.985    462.985
117.770   6811.000   6833.026    -22.026    463.210   6831.695    464.769    463.210    463.210
117.870   6721.077   6588.009    133.068    463.442   6586.723    465.033    463.442    463.442
117.970   6138.000   6296.914   -158.914    463.682   6295.665    465.298    463.682    463.682
118.070   5798.000   5969.744   -171.744    463.931   5968.524    465.562    463.931    463.931
118.170   5678.058   5616.495     61.562    464.187   5615.300    465.825    464.187    464.187
118.270   5317.667   5246.701     70.966    464.452   5245.527    466.085    464.452    464.452
118.370   4757.000   4869.130   -112.130    464.724   4867.975    466.342    464.724    464.724
118.470   4551.000   4491.601     59.399    465.005   4490.466    466.596    465.005    465.005
118.570   4215.079   4120.882     94.197    465.294   4119.768    466.848    465.294    465.294
118.670   3748.000   3762.634    -14.634    465.592   3761.542    467.098    465.592    465.592
118.770   3541.000   3421.407    119.593    465.897   3420.340    467.349    465.897    465.897
118.870   3212.282   3100.663    111.619    466.212   3099.622    467.602    466.212    466.212
118.970   2795.000   2802.834     -7.834    466.535   2801.822    467.859    466.535    466.535
119.070   2471.000   2529.408    -58.408    466.867   2528.428    468.122    466.867    466.867
119.170   2381.776   2281.036    100.740    467.207   2280.088    468.392    467.207    467.207
119.270   1993.853   2057.649    -63.796    467.556   2056.734    468.672    467.556    467.556
119.370   1849.000   1858.586     -9.586    467.914   1857.705    468.962    467.914    467.914
119.470   1738.000   1682.720     55.280    468.281   1681.872    469.265    468.281    468.281
119.570   1468.601   1528.571    -59.970    468.657   1527.755    469.581    468.657    468.657
119.670   1370.000   1394.422    -24.422    469.043   1393.637    469.912    469.043    469.043
119.770   1304.000   1278.418     25.582    469.437   1277.661    470.258    469.437    469.437
119.870   1213.000   1178.650     34.350    469.840   1177.917    470.620    469.840    469.840
119.970   1191.000   1093.229     97.771    470.253   1092.516    470.998    470.253    470.253
120.070    972.000   1020.345    -48.345    470.676   1019.648    471.393    470.676    470.676
120.170    952.333    958.310     -5.977    471.108    957.624    471.806    471.108    471.108
120.270    866.000    905.584    -39.584    471.549    904.904    472.236    471.549    471.549
120.370    863.000    860.796      2.204    472.000    860.115    472.683    472.000    472.000
120.470    886.000    822.740     63.260    472.461    822.052    473.147    472.461    472.461
120.570    779.000    790.378    -11.378    472.931    789.678    473.629    472.931    472.931
120.670    816.000    762.829     53.171    473.412    762.111    474.127    473.412    473.412
120.770    724.000    739.353    -15.353    473.902    738.609    474.643    473.902    473.902
120.870    687.074    719.332    -32.258    474.402    718.556    475.175    474.402    474.402
120.970    678.207    702.261    -24.054    474.913    701.448    475.724    474.913    474.913
121.070    691.000    687.724      3.276    475.433    686.867    476.291    475.433    475.433
121.170    655.000    675.384    -20.384    475.964    674.476    476.873    475.964    475.964
121.270    626.000    664.966    -38.966    476.505    664.000    477.473    476.505    476.505
121.370    670.176    656.244     13.931    477.057    655.215    478.090    477.057    477.057
121.470    703.328    649.036     54.292    477.619    647.936    478.724    477.619    477.619
121.570    591.000    643.191    -52.191    478.192    642.013    479.376    478.192    478.192
121.670    620.000    638.581    -18.581    478.775    637.318    480.045    478.775    478.775
121.770    663.000    635.099     27.901    479.369    633.743    480.733    479.369    479.369
121.870    604.176    632.651    -28.475    479.974    631.195    481.440    479.974    479.974
121.970    601.000    631.153    -30.153    480.590    629.588    482.167    480.590    480.590
122.070    653.696    630.528     23.169    481.217    628.845    482.914    481.217    481.217
122.170    602.796    630.699    -27.904    481.855    628.889    483.680    481.855    481.855
122.270    598.000    631.595    -33.595    482.504    629.648    484.468    482.504    482.504
122.370    624.000    633.138     -9.138    483.165    631.046    485.276    483.165    483.165
122.470    660.618    635.250     25.367    483.836    633.004    486.104    483.836    483.836
122.570    606.383    637.849    -31.466    484.519    635.441    486.952    484.519    484.519
122.670    622.000    640.846    -18.846    485.214    638.269    487.818    485.214    485.214
122.770    618.639    644.145    -25.506    485.920    641.394    488.701    485.920    485.920
122.870    676.000    647.645     28.355    486.638    644.715    489.600    486.638    486.638
122.970    599.003    651.238    -52.235    487.367    648.128    490.513    487.367    487.367
123.070    688.000    654.807     33.193    488.109    651.519    491.436    488.109    488.109
123.170    676.000    658.234     17.766    488.862    654.771    492.367    488.862    488.862
123.270    667.000    661.396      5.604    489.628    657.765    493.303    489.628    489.628
123.370    668.000    664.172      3.828    490.405    660.384    494.241    490.405    490.405
123.470    620.872    666.446    -45.574    491.195    662.514    495.177    491.195    491.195
123.570    686.000    668.114     17.886    491.996    664.055    496.108    491.996    491.996
123.670    673.000    669.092      3.908    492.811    664.925    497.032    492.811    492.811
123.770    680.000    669.317     10.683    493.637    665.065    497.945    493.637    493.637
123.870    690.000    668.757     21.243    494.477    664.444    498.846    494.477    494.477
123.970    674.000    667.408      6.592    495.328    663.059    499.735    495.328    495.328
124.070    654.000    665.296    -11.296    496.193    660.937    500.610    496.193    496.193
124.170    685.000    662.468     22.532    497.070    658.124    501.471    497.070    497.070
124.270    618.000    658.992    -40.992    497.961    654.689    502.320    497.961    497.961
124.370    631.000    654.945    -23.945    498.864    650.708    503.156    498.864    498.864
124.470    664.545    650.396     14.149    499.780    646.247    503.982    499.780    499.780
124.570    674.756    645.455     29.301    500.710    641.416    504.799    500.710    500.710
124.670    631.000    640.236     -9.236    501.652    636.328    505.609    501.652    501.652
124.770    633.850    634.809     -0.959    502.608    631.048    506.415    502.608    502.608
124.870    629.349    629.256      0.094    503.578    625.657    507.220    503.578    503.578
124.970    647.000    623.657     23.343    504.561    620.233    508.025    504.561    504.561
