neutron_powder_diffraction_0142
R_wp: 3.962
Temperature (K): 1074.000
Counts: 83086.00
Wavelength (Ã…): 2.52098
COMMENTS
Test file for demonstrating the .xyy file format in Reel1.0
END OF HEADER
   tth       Y_obs     Y_calc      Y_res    Background    Phase_1_Nuc    Phase_1_Mag    Phase_2_Nuc    Phase_2_Mag
  9.970    539.990    573.201    -33.211    572.318    573.138    572.318    572.382    572.318
 10.070    625.000    573.244     51.756    572.289    573.180    572.289    572.352    572.289
 10.170    606.397    573.293     33.104    572.255    573.229    572.255    572.319    572.255
 10.270    613.000    573.350     39.650    572.218    573.286    572.218    572.282    572.218
 10.370    615.000    573.420     41.580    572.176    573.355    572.176    572.240    572.176
 10.470    550.000    573.505    -23.505    572.130    573.440    572.130    572.194    572.130
 10.570    607.136    573.610     33.526    572.080    573.545    572.080    572.144    572.080
 10.670    571.343    573.739     -2.396    572.026    573.673    572.026    572.091    572.026
 10.770    561.642    573.901    -12.259    571.968    573.835    571.968    572.033    571.968
 10.870    614.000    574.108     39.892    571.906    574.041    571.906    571.971    571.906
 10.970    559.558    574.374    -14.817    571.840    574.307    571.840    571.906    571.840
 11.070    576.000    574.723      1.277    571.771    574.655    571.771    571.837    571.771
 11.170    609.000    575.185     33.815    571.697    575.117    571.697    571.764    571.697
 11.270    558.000    575.812    -17.812    571.620    575.743    571.620    571.687    571.620
 11.370    594.692    576.696     17.996    571.540    576.626    571.540    571.607    571.540
 11.470    542.339    578.045    -35.706    571.455    577.975    571.455    571.522    571.455
 11.570    602.000    580.390     21.610    571.367    580.318    571.367    571.435    571.367
 11.670    661.000    584.983     76.017    571.275    584.907    571.275    571.343    571.275
 11.770    631.000    594.195     36.805    571.180    594.114    571.180    571.248    571.180
 11.870    570.000    611.144    -41.144    571.082    611.053    571.082    571.150    571.082
 11.970    676.000    637.495     38.505    570.980    637.390    570.980    571.048    570.980
 12.070    664.000    669.320     -5.320    570.874    669.197    570.874    570.943    570.874
 12.170    738.423    693.474     44.949    570.765    693.338    570.765    570.835    570.765
 12.270    697.410    694.140      3.270    570.653    694.002    570.653    570.723    570.653
 12.370    670.575    670.659     -0.084    570.537    670.534    570.537    570.607    570.537
 12.470    609.000    638.554    -29.554    570.419    638.446    570.419    570.489    570.419
 12.570    644.000    611.498     32.502    570.296    611.405    570.296    570.367    570.296
 12.670    601.203    593.844      7.359    570.171    593.760    570.171    570.242    570.171
 12.770    567.000    584.091    -17.091    570.043    584.012    570.043    570.114    570.043
 12.870    600.000    579.114     20.886    569.911    579.038    569.911    569.983    569.911
 12.970    615.000    576.477     38.523    569.777    576.401    569.777    569.849    569.777
 13.070    546.447    574.875    -28.428    569.639    574.800    569.639    569.712    569.639
 13.170    555.000    573.757    -18.757    569.499    573.682    569.499    569.571    569.499
 13.270    574.368    572.905      1.463    569.355    572.830    569.355    569.428    569.355
 13.370    599.137    572.220     26.917    569.209    572.145    569.209    569.282    569.209
 13.470    556.000    571.650    -15.650    569.059    571.575    569.059    569.133    569.059
 13.570    569.000    571.164     -2.164    568.907    571.089    568.907    568.981    568.907
 13.670    566.982    570.740     -3.759    568.752    570.665    568.752    568.827    568.752
 13.770    562.000    570.363     -8.363    568.594    570.287    568.594    568.669    568.594
 13.870    539.000    570.021    -31.021    568.434    569.945    568.434    568.509    568.434
 13.970    586.000    569.706     16.294    568.270    569.630    568.270    568.346    568.270
 14.070    541.692    569.412    -27.720    568.105    569.336    568.105    568.180    568.105
 14.170    597.000    569.135     27.865    567.936    569.058    567.936    568.012    567.936
 14.270    574.000    568.871      5.129    567.765    568.794    567.765    567.842    567.765
 14.370    542.502    568.617    -26.115    567.591    568.539    567.591    567.668    567.591
 14.470    595.235    568.371     26.865    567.415    568.293    567.415    567.492    567.415
 14.570    520.000    568.131    -48.131    567.236    568.053    567.236    567.314    567.236
 14.670    554.000    567.897    -13.897    567.055    567.818    567.055    567.133    567.055
 14.770    526.000    567.666    -41.666    566.871    567.587    566.871    566.950    566.871
 14.870    566.000    567.439     -1.439    566.685    567.359    566.685    566.764    566.685
 14.970    548.004    567.215    -19.211    566.497    567.135    566.497    566.577    566.497
 15.070    575.605    566.994      8.611    566.306    566.912    566.306    566.388    566.306
 15.170    568.745    566.772      1.973    566.113    566.689    566.113    566.196    566.113
 15.270    560.773    566.551     -5.778    565.918    566.467    565.918    566.001    565.918
 15.370    556.000    566.330    -10.330    565.721    566.246    565.721    565.804    565.721
 15.470    573.199    566.112      7.087    565.521    566.027    565.521    565.605    565.521
 15.570    598.089    565.891     32.197    565.319    565.807    565.319    565.404    565.319
 15.670    541.000    565.670    -24.670    565.115    565.585    565.115    565.200    565.115
 15.770    545.000    565.449    -20.449    564.909    565.363    564.909    564.995    564.909
 15.870    526.245    565.227    -38.982    564.701    565.141    564.701    564.787    564.701
 15.970    527.335    565.005    -37.670    564.491    564.918    564.491    564.578    564.491
 16.070    585.431    564.781     20.650    564.279    564.694    564.279    564.366    564.279
 16.170    604.049    564.557     39.492    564.065    564.469    564.065    564.152    564.065
 16.270    538.000    564.332    -26.332    563.849    564.243    563.849    563.937    563.849
 16.370    560.000    564.105     -4.105    563.631    564.017    563.631    563.720    563.631
 16.470    549.000    563.878    -14.878    563.411    563.789    563.411    563.500    563.411
 16.570    611.000    563.650     47.350    563.189    563.560    563.189    563.279    563.189
 16.670    561.000    563.421     -2.421    562.966    563.330    562.966    563.056    562.966
 16.770    569.000    563.190      5.810    562.741    563.099    562.741    562.832    562.741
 16.870    534.000    562.959    -28.959    562.514    562.867    562.514    562.605    562.514
 16.970    534.000    562.726    -28.726    562.285    562.634    562.285    562.377    562.285
 17.070    570.000    562.492      7.508    562.055    562.400    562.055    562.147    562.055
 17.170    552.000    562.257    -10.257    561.823    562.164    561.823    561.916    561.823
 17.270    536.822    562.021    -25.199    561.589    561.927    561.589    561.683    561.589
 17.370    558.000    561.784     -3.784    561.354    561.690    561.354    561.448    561.354
 17.470    591.554    561.545     30.008    561.117    561.451    561.117    561.212    561.117
 17.570    557.000    561.307     -4.307    560.879    561.212    560.879    560.975    560.879
 17.670    527.000    561.081    -34.081    560.639    560.985    560.639    560.735    560.639
 17.770    583.000    560.851     22.149    560.398    560.754    560.398    560.495    560.398
 17.870    564.000    560.609      3.391    560.155    560.512    560.155    560.253    560.155
 17.970    565.000    560.365      4.635    559.911    560.267    559.911    560.009    559.911
 18.070    549.002    560.121    -11.119    559.665    560.022    559.665    559.764    559.665
 18.170    516.894    559.875    -42.981    559.419    559.776    559.419    559.518    559.419
 18.270    544.000    559.629    -15.629    559.170    559.528    559.170    559.270    559.170
 18.370    577.342    559.381     17.961    558.921    559.280    558.921    559.022    558.921
 18.470    563.886    559.132      4.753    558.670    559.031    558.670    558.772    558.670
 18.570    546.000    558.883    -12.883    558.418    558.780    558.418    558.520    558.418
 18.670    577.000    558.632     18.368    558.165    558.529    558.165    558.268    558.165
 18.770    522.000    558.381    -36.381    557.910    558.277    557.910    558.014    557.910
 18.870    568.000    558.129      9.871    557.654    558.024    557.654    557.759    557.654
 18.970    543.000    557.876    -14.876    557.398    557.771    557.398    557.503    557.398
 19.070    540.000    557.623    -17.623    557.140    557.517    557.140    557.246    557.140
 19.170    550.068    557.372     -7.304    556.881    557.265    556.881    556.988    556.881
 19.270    560.000    557.117      2.883    556.621    557.009    556.621    556.728    556.621
 19.370    594.000    556.861     37.139    556.359    556.753    556.359    556.468    556.359
 19.470    524.816    556.605    -31.789    556.097    556.495    556.097    556.207    556.097
 19.570    565.000    556.348      8.652    555.834    556.238    555.834    555.945    555.834
 19.670    503.000    556.093    -53.093    555.570    555.981    555.570    555.682    555.570
 19.770    562.000    555.839      6.161    555.305    555.726    555.305    555.418    555.305
 19.870    537.000    555.581    -18.581    555.039    555.467    555.039    555.153    555.039
 19.970    558.556    555.322      3.234    554.772    555.208    554.772    554.887    554.772
 20.070    576.709    555.063     21.646    554.505    554.948    554.505    554.620    554.505
 20.170    552.000    554.805     -2.805    554.236    554.689    554.236    554.353    554.236
 20.270    599.303    554.546     44.757    553.967    554.428    553.967    554.084    553.967
 20.370    562.000    554.286      7.714    553.697    554.167    553.697    553.815    553.697
 20.470    551.000    554.026     -3.026    553.426    553.906    553.426    553.546    553.426
 20.570    492.000    553.766    -61.766    553.155    553.645    553.155    553.275    553.155
 20.670    520.000    553.507    -33.507    552.882    553.385    552.882    553.004    552.882
 20.770    492.000    553.247    -61.247    552.610    553.124    552.610    552.733    552.610
 20.870    581.364    552.987     28.377    552.336    552.863    552.336    552.460    552.336
 20.970    575.745    552.728     23.017    552.062    552.602    552.062    552.187    552.062
 21.070    541.785    552.469    -10.683    551.787    552.342    551.787    551.914    551.787
 21.170    538.170    552.218    -14.048    551.511    552.090    551.511    551.639    551.511
 21.270    553.000    552.038      0.962    551.235    551.909    551.235    551.365    551.235
 21.370    513.883    551.801    -37.918    550.959    551.671    550.959    551.090    550.959
 21.470    527.000    551.547    -24.547    550.682    551.415    550.682    550.814    550.682
 21.570    589.137    551.292     37.845    550.404    551.159    550.404    550.538    550.404
 21.670    527.110    551.039    -23.929    550.126    550.904    550.126    550.261    550.126
 21.770    532.000    550.787    -18.787    549.848    550.650    549.848    549.985    549.848
 21.870    504.000    550.537    -46.537    549.569    550.399    549.569    549.707    549.569
 21.970    553.000    550.294      2.706    549.290    550.154    549.290    549.430    549.290
 22.070    564.000    550.094     13.906    549.010    549.952    549.010    549.152    549.010
 22.170    575.000    549.870     25.130    548.730    549.727    548.730    548.873    548.730
 22.270    569.043    549.633     19.410    548.450    549.488    548.450    548.595    548.450
 22.370    539.000    549.399    -10.399    548.169    549.252    548.169    548.316    548.169
 22.470    543.000    549.169     -6.169    547.888    549.021    547.888    548.037    547.888
 22.570    551.000    548.946      2.054    547.607    548.795    547.607    547.758    547.607
 22.670    542.000    548.729     -6.729    547.325    548.576    547.325    547.478    547.325
 22.770    556.000    548.521      7.479    547.043    548.366    547.043    547.199    547.043
 22.870    548.717    548.340      0.376    546.761    548.183    546.761    546.919    546.761
 22.970    549.612    548.177      1.435    546.479    548.018    546.479    546.639    546.479
 23.070    547.000    548.007     -1.007    546.197    547.845    546.197    546.359    546.197
 23.170    572.000    547.852     24.148    545.914    547.688    545.914    546.079    545.914
 23.270    532.708    547.721    -15.013    545.632    547.554    545.632    545.799    545.632
 23.370    527.065    547.618    -20.554    545.349    547.449    545.349    545.519    545.349
 23.470    518.228    547.559    -29.332    545.066    547.387    545.066    545.239    545.066
 23.570    582.273    547.558     34.715    544.783    547.384    544.783    544.959    544.783
 23.670    561.000    547.610     13.390    544.500    547.432    544.500    544.679    544.500
 23.770    553.000    547.760      5.240    544.217    547.579    544.217    544.399    544.217
 23.870    532.000    548.032    -16.032    543.934    547.849    543.934    544.120    543.934
 23.970    585.525    548.516     37.009    543.651    548.330    543.651    543.840    543.651
 24.070    509.330    549.407    -40.077    543.368    549.218    543.368    543.561    543.368
 24.170    546.495    551.174     -4.680    543.085    550.982    543.085    543.282    543.085
 24.270    589.827    554.810     35.017    542.802    554.617    542.802    543.003    542.802
 24.370    574.000    561.940     12.060    542.520    561.748    542.520    542.725    542.520
 24.470    559.293    574.287    -14.995    542.237    574.100    542.237    542.446    542.237
 24.570    640.000    592.106     47.894    541.954    591.927    541.954    542.169    541.954
 24.670    608.938    611.765     -2.826    541.672    611.595    541.672    541.891    541.672
 24.770    621.000    624.293     -3.293    541.390    624.128    541.390    541.614    541.390
 24.870    588.340    621.219    -32.879    541.107    621.046    541.107    541.338    541.107
 24.970    643.049    604.820     38.228    540.825    604.630    540.825    541.062    540.825
 25.070    558.979    584.714    -25.735    540.544    584.503    540.544    540.786    540.544
 25.170    525.765    568.087    -42.322    540.262    567.858    540.262    540.511    540.262
 25.270    533.260    557.080    -23.820    539.981    556.835    539.981    540.237    539.981
 25.370    556.000    550.769      5.231    539.700    550.513    539.700    539.964    539.700
 25.470    560.835    547.380     13.455    539.419    547.113    539.419    539.691    539.419
 25.570    580.000    545.516     34.484    539.139    545.240    539.139    539.419    539.139
 25.670    546.713    544.347      2.366    538.859    544.060    538.859    539.148    538.859
 25.770    511.000    543.491    -32.491    538.579    543.193    538.579    538.878    538.579
 25.870    557.000    542.821     14.179    538.300    542.513    538.300    538.609    538.300
 25.970    523.866    542.277    -18.411    538.020    541.957    538.020    538.341    538.020
 26.070    559.000    541.836     17.164    537.742    541.504    537.742    538.075    537.742
 26.170    513.000    541.481    -28.481    537.463    541.135    537.463    537.810    537.463
 26.270    562.583    541.163     21.420    537.186    540.803    537.186    537.547    537.186
 26.370    583.000    540.896     42.104    536.908    540.520    536.908    537.285    536.908
 26.470    576.000    540.681     35.319    536.631    540.287    536.631    537.025    536.631
 26.570    550.000    540.515      9.485    536.354    540.103    536.354    536.767    536.354
 26.670    555.000    540.403     14.597    536.078    539.970    536.078    536.511    536.078
 26.770    539.464    540.343     -0.879    535.803    539.888    535.803    536.258    535.803
 26.870    577.335    540.357     36.978    535.528    539.877    535.528    536.007    535.528
 26.970    553.000    540.445     12.555    535.253    539.938    535.253    535.760    535.253
 27.070    559.243    540.619     18.624    534.979    540.081    534.979    535.516    534.979
 27.170    535.000    540.916     -5.916    534.705    540.344    534.705    535.277    534.705
 27.270    573.771    541.376     32.396    534.432    540.766    534.432    535.042    534.432
 27.370    559.000    542.063     16.937    534.160    541.410    534.160    534.812    534.160
 27.470    563.822    543.093     20.729    533.888    542.391    533.888    534.588    533.888
 27.570    522.000    544.773    -22.773    533.617    544.016    533.617    534.372    533.617
 27.670    570.000    548.290     21.710    533.346    547.469    533.346    534.164    533.346
 27.770    615.000    558.038     56.962    533.076    557.142    533.076    533.966    533.076
 27.870    635.000    586.056     48.944    532.807    585.068    532.807    533.780    532.807
 27.970    687.254    652.498     34.757    532.538    651.391    532.538    533.608    532.538
 28.070    750.475    767.745    -17.270    532.270    766.492    532.270    533.454    532.270
 28.170    850.732    898.490    -47.758    532.003    897.073    532.003    533.322    532.003
 28.270    927.032    962.781    -35.749    531.736    961.204    531.736    533.218    531.736
 28.370    919.000    907.535     11.465    531.470    905.796    531.470    533.151    531.470
 28.470    774.000    788.790    -14.790    531.205    786.840    531.205    533.134    531.205
 28.570    654.248    697.708    -43.459    530.940    695.453    530.940    533.187    530.940
 28.670    700.826    680.379     20.447    530.677    677.702    530.677    533.341    530.677
 28.770    692.250    729.583    -37.333    530.414    726.342    530.414    533.636    530.414
 28.870    814.000    802.021     11.979    530.152    798.030    530.152    534.132    530.152
 28.970    805.000    836.204    -31.204    529.890    831.201    529.890    534.898    529.890
 29.070    843.654    796.627     47.026    529.629    790.261    529.629    536.010    529.629
 29.170    735.352    714.609     20.743    529.370    706.456    529.370    537.537    529.370
 29.270    643.000    638.976      4.024    529.111    628.588    529.111    539.507    529.111
 29.370    558.000    591.903    -33.903    528.853    578.912    528.853    541.847    528.853
 29.470    572.000    570.303      1.697    528.595    554.622    528.595    544.276    528.595
 29.570    592.629    562.394     30.235    528.339    544.517    528.339    546.215    528.339
 29.670    575.000    559.079     15.921    528.083    540.242    528.083    546.918    528.083
 29.770    556.000    556.174     -0.174    527.828    538.022    527.828    545.979    527.828
 29.870    545.060    552.731     -7.671    527.575    536.602    527.575    543.702    527.575
 29.970    583.000    549.109     33.891    527.322    535.620    527.322    540.809    527.322
 30.070    537.000    545.819     -8.819    527.070    534.965    527.070    537.922    527.070
 30.170    607.000    543.175     63.825    526.819    534.622    526.819    535.370    526.819
 30.270    551.000    541.399      9.601    526.568    534.710    526.568    533.255    526.568
 30.370    607.000    540.927     66.073    526.319    535.679    526.319    531.563    526.319
 30.470    537.000    542.869     -5.869    526.071    538.702    526.071    530.232    526.071
 30.570    554.372    549.308      5.065    525.824    545.935    525.824    529.185    525.824
 30.670    555.000    562.490     -7.490    525.577    559.696    525.577    528.349    525.577
 30.770    600.000    582.211     17.789    525.332    579.841    525.332    527.666    525.332
 30.870    658.000    602.564     55.436    525.088    600.513    525.088    527.089    525.088
 30.970    615.054    611.834      3.220    524.844    610.037    524.844    526.588    524.844
 31.070    583.000    602.351    -19.351    524.602    600.768    524.602    526.140    524.602
 31.170    562.000    581.221    -19.221    524.361    579.821    524.361    525.732    524.361
 31.270    566.000    560.155      5.845    524.121    558.907    524.121    525.353    524.121
 31.370    547.000    545.316      1.684    523.881    544.192    523.881    524.998    523.881
 31.470    546.356    537.061      9.295    523.643    536.038    523.643    524.662    523.643
 31.570    541.203    533.121      8.082    523.406    532.184    523.406    524.341    523.406
 31.670    519.306    531.293    -11.987    523.170    530.429    523.170    524.033    523.170
 31.770    551.000    530.336     20.664    522.935    529.534    522.935    523.735    522.935
 31.870    536.428    529.744      6.684    522.701    528.997    522.701    523.447    522.701
 31.970    548.982    529.346     19.636    522.468    528.647    522.468    523.166    522.468
 32.070    528.000    529.084     -1.084    522.237    528.427    522.237    522.893    522.237
 32.170    513.000    528.934    -15.934    522.006    528.314    522.006    522.625    522.006
 32.270    502.196    528.891    -26.695    521.777    528.304    521.777    522.363    521.777
 32.370    485.759    528.956    -43.197    521.548    528.398    521.548    522.105    521.548
 32.470    577.000    529.138     47.862    521.321    528.606    521.321    521.852    521.321
 32.570    541.000    529.455     11.545    521.095    528.947    521.095    521.602    521.095
 32.670    543.358    529.932     13.426    520.870    529.445    520.870    521.356    520.870
 32.770    563.000    530.610     32.390    520.646    530.142    520.646    521.113    520.646
 32.870    491.976    531.544    -39.567    520.424    531.093    520.424    520.874    520.424
 32.970    545.155    532.818     12.337    520.203    532.382    520.203    520.637    520.203
 33.070    560.000    534.565     25.435    519.982    534.143    519.982    520.402    519.982
 33.170    576.415    537.028     39.387    519.763    536.619    519.763    520.171    519.763
 33.270    572.000    540.783     31.217    519.545    540.385    519.545    519.941    519.545
 33.370    544.054    547.376     -3.323    519.329    546.988    519.329    519.714    519.329
 33.470    545.861    560.749    -14.888    519.113    560.368    519.113    519.489    519.113
 33.570    638.000    589.117     48.883    518.899    588.740    518.899    519.266    518.899
 33.670    679.578    644.938     34.640    518.686    644.559    518.686    519.045    518.686
 33.770    690.949    738.811    -47.862    518.475    738.426    518.475    518.825    518.475
 33.870    916.577    866.064     50.513    518.264    865.671    518.264    518.608    518.264
 33.970   1001.000    992.198      8.802    518.055    991.803    518.055    518.393    518.055
 34.070   1075.000   1053.606     21.394    517.847   1053.227    517.847    518.179    517.847
 34.170   1001.000   1007.574     -6.574    517.640   1007.225    517.640    517.967    517.640
 34.270    841.201    887.521    -46.320    517.435    887.199    517.435    517.757    517.435
 34.370    761.000    757.340      3.660    517.230    757.031    517.230    517.548    517.230
 34.470    644.000    656.760    -12.760    517.027    656.456    517.027    517.341    517.027
 34.570    540.000    594.604    -54.604    516.826    594.300    516.826    517.136    516.826
 34.670    571.000    561.923      9.077    516.625    561.619    516.625    516.932    516.625
 34.770    557.000    546.102     10.898    516.426    545.799    516.426    516.730    516.426
 34.870    558.887    538.171     20.716    516.228    537.870    516.228    516.529    516.228
 34.970    540.000    533.580      6.420    516.032    533.281    516.032    516.331    516.032
 35.070    486.000    530.472    -44.472    515.837    530.175    515.837    516.133    515.837
 35.170    538.000    528.150      9.850    515.643    527.856    515.643    515.937    515.643
 35.270    477.000    526.328    -49.328    515.450    526.036    515.450    515.743    515.450
 35.370    546.000    524.858     21.142    515.259    524.567    515.259    515.550    515.259
 35.470    530.000    523.648      6.352    515.069    523.358    515.069    515.359    515.069
 35.570    527.000    522.634      4.366    514.881    522.346    514.881    515.169    514.881
 35.670    510.985    521.772    -10.787    514.693    521.485    514.693    514.981    514.693
 35.770    490.239    521.030    -30.792    514.507    520.744    514.507    514.794    514.507
 35.870    536.000    520.384     15.616    514.323    520.098    514.323    514.608    514.323
 35.970    504.794    519.816    -15.023    514.140    519.531    514.140    514.425    514.140
 36.070    528.000    519.314      8.686    513.958    519.029    513.958    514.242    513.958
 36.170    522.000    518.867      3.133    513.777    518.582    513.777    514.061    513.777
 36.270    495.000    518.468    -23.468    513.598    518.184    513.598    513.882    513.598
 36.370    498.000    518.113    -20.113    513.420    517.829    513.420    513.704    513.420
 36.470    542.960    517.799     25.161    513.244    517.515    513.244    513.528    513.244
 36.570    505.000    517.525    -12.525    513.069    517.241    513.069    513.353    513.069
 36.670    517.000    517.293     -0.293    512.895    517.009    512.895    513.180    512.895
 36.770    549.460    517.116     32.344    512.723    516.831    512.723    513.008    512.723
 36.870    512.000    517.027     -5.027    512.552    516.741    512.552    512.837    512.552
 36.970    519.000    517.088      1.912    512.382    516.802    512.382    512.668    512.382
 37.070    528.219    517.425     10.794    512.214    517.138    512.214    512.501    512.214
 37.170    529.000    518.231     10.769    512.047    517.944    512.047    512.335    512.047
 37.270    524.432    519.724      4.708    511.882    519.436    511.882    512.171    511.882
 37.370    526.000    522.027      3.973    511.718    521.739    511.718    512.008    511.718
 37.470    566.352    524.981     41.372    511.556    524.692    511.556    511.846    511.556
 37.570    550.000    527.942     22.058    511.394    527.653    511.394    511.686    511.394
 37.670    507.089    529.779    -22.690    511.235    529.491    511.235    511.528    511.235
 37.770    490.951    529.573    -38.622    511.076    529.285    511.076    511.371    511.076
 37.870    512.000    527.536    -15.536    510.919    527.249    510.919    511.215    510.919
 37.970    514.000    524.650    -10.650    510.764    524.363    510.764    511.061    510.764
 38.070    492.000    521.708    -29.708    510.610    521.419    510.610    510.909    510.610
 38.170    480.000    519.098    -39.098    510.457    518.806    510.457    510.758    510.457
 38.270    533.000    517.018     15.982    510.306    516.723    510.306    510.608    510.306
 38.370    492.000    515.514    -23.514    510.156    515.214    510.156    510.460    510.156
 38.470    502.357    514.496    -12.140    510.007    514.193    510.007    510.314    510.007
 38.570    496.000    513.826    -17.826    509.860    513.519    509.860    510.169    509.860
 38.670    528.000    513.376     14.624    509.715    513.066    509.715    510.025    509.715
 38.770    489.000    513.051    -24.051    509.570    512.738    509.570    509.883    509.570
 38.870    522.000    512.795      9.205    509.428    512.480    509.428    509.743    509.428
 38.970    546.408    512.578     33.830    509.286    512.260    509.286    509.604    509.286
 39.070    500.000    512.385    -12.385    509.146    512.066    509.146    509.467    509.146
 39.170    507.012    512.211     -5.199    509.008    511.888    509.008    509.331    509.008
 39.270    545.997    512.051     33.947    508.871    511.726    508.871    509.197    508.871
 39.370    471.118    511.903    -40.785    508.735    511.575    508.735    509.064    508.735
 39.470    497.545    511.765    -14.220    508.601    511.434    508.601    508.933    508.601
 39.570    454.000    511.638    -57.638    508.468    511.304    508.468    508.803    508.468
 39.670    548.000    511.519     36.481    508.337    511.182    508.337    508.675    508.337
 39.770    481.735    511.409    -29.674    508.207    511.068    508.207    508.548    508.207
 39.870    516.000    511.307      4.693    508.079    510.964    508.079    508.423    508.079
 39.970    490.000    511.214    -21.214    507.952    510.867    507.952    508.299    507.952
 40.070    495.474    511.130    -15.657    507.826    510.780    507.826    508.177    507.826
 40.170    529.126    511.055     18.071    507.702    510.701    507.702    508.057    507.702
 40.270    542.000    510.991     31.009    507.580    510.633    507.580    507.938    507.580
 40.370    510.000    510.936     -0.936    507.458    510.574    507.458    507.821    507.458
 40.470    525.685    510.894     14.791    507.339    510.528    507.339    507.705    507.339
 40.570    519.265    510.865      8.400    507.220    510.495    507.220    507.591    507.220
 40.670    530.000    510.851     19.149    507.103    510.477    507.103    507.478    507.103
 40.770    542.689    510.855     31.835    506.988    510.476    506.988    507.367    506.988
 40.870    476.000    510.879    -34.879    506.874    510.496    506.874    507.258    506.874
 40.970    468.558    510.927    -42.369    506.761    510.539    506.761    507.150    506.761
 41.070    502.000    511.005     -9.005    506.650    510.612    506.650    507.043    506.650
 41.170    492.000    511.119    -19.119    506.540    510.721    506.540    506.939    506.540
 41.270    474.478    511.278    -36.800    506.432    510.876    506.432    506.836    506.432
 41.370    489.244    511.495    -22.251    506.325    511.087    506.325    506.734    506.325
 41.470    477.855    511.787    -33.932    506.220    511.374    506.220    506.634    506.220
 41.570    460.000    512.183    -52.183    506.116    511.764    506.116    506.536    506.116
 41.670    501.571    512.737    -11.166    506.013    512.313    506.013    506.439    506.013
 41.770    519.000    513.571      5.429    505.912    513.141    505.912    506.344    505.912
 41.870    517.956    514.961      2.995    505.812    514.525    505.812    506.251    505.812
 41.970    508.000    517.500     -9.500    505.714    517.059    505.714    506.159    505.714
 42.070    488.217    522.275    -34.058    505.617    521.829    505.617    506.069    505.617
 42.170    497.000    530.881    -33.881    505.522    530.433    505.522    505.981    505.522
 42.270    533.000    544.977    -11.977    505.428    544.528    505.428    505.894    505.428
 42.370    529.000    565.207    -36.207    505.335    564.761    505.335    505.809    505.335
 42.470    545.188    589.735    -44.548    505.244    589.294    505.244    505.726    505.244
 42.570    602.224    612.979    -10.756    505.155    612.543    505.155    505.644    505.155
 42.670    598.000    626.146    -28.146    505.066    625.711    505.066    505.564    505.066
 42.770    627.000    622.608      4.392    504.979    622.166    504.979    505.486    504.979
 42.870    537.000    604.372    -67.372    504.894    603.913    504.894    505.410    504.894
 42.970    540.941    579.743    -38.802    504.810    579.261    504.810    505.335    504.810
 43.070    520.000    556.439    -36.439    504.727    555.934    504.727    505.263    504.727
 43.170    533.000    538.484     -5.484    504.646    537.957    504.646    505.191    504.646
 43.270    497.000    526.583    -29.583    504.566    526.039    504.566    505.122    504.566
 43.370    527.000    519.557      7.443    504.488    518.997    504.488    505.055    504.488
 43.470    506.000    515.697     -9.697    504.411    515.123    504.411    504.989    504.411
 43.570    480.417    513.595    -33.177    504.335    513.007    504.335    504.926    504.335
 43.670    541.000    512.373     28.627    504.261    511.772    504.261    504.864    504.261
 43.770    503.000    511.582     -8.582    504.188    510.967    504.188    504.805    504.188
 43.870    484.754    511.015    -26.262    504.117    510.387    504.117    504.747    504.117
 43.970    546.827    510.585     36.242    504.047    509.942    504.047    504.691    504.047
 44.070    515.000    510.248      4.752    503.978    509.589    503.978    504.638    503.978
 44.170    523.000    509.981     13.019    503.911    509.307    503.911    504.586    503.911
 44.270    479.275    509.769    -30.495    503.845    509.078    503.845    504.537    503.845
 44.370    468.512    509.602    -41.090    503.780    508.893    503.780    504.490    503.780
 44.470    534.000    509.471     24.529    503.717    508.744    503.717    504.445    503.717
 44.570    549.000    509.371     39.629    503.655    508.624    503.655    504.402    503.655
 44.670    505.000    509.297     -4.297    503.595    508.530    503.595    504.362    503.595
 44.770    505.000    509.247     -4.247    503.536    508.459    503.536    504.325    503.536
 44.870    529.000    509.218     19.782    503.478    508.407    503.478    504.290    503.478
 44.970    517.095    509.208      7.887    503.422    508.373    503.422    504.257    503.422
 45.070    480.000    509.217    -29.217    503.367    508.357    503.367    504.228    503.367
 45.170    530.295    509.244     21.051    503.313    508.356    503.313    504.201    503.313
 45.270    539.000    509.288     29.712    503.261    508.372    503.261    504.177    503.261
 45.370    527.000    509.349     17.651    503.210    508.402    503.210    504.157    503.210
 45.470    490.000    509.428    -19.428    503.161    508.449    503.161    504.140    503.161
 45.570    544.021    509.525     34.495    503.113    508.512    503.113    504.126    503.113
 45.670    488.900    509.642    -20.742    503.066    508.591    503.066    504.116    503.066
 45.770    498.515    509.780    -11.265    503.020    508.689    503.020    504.110    503.020
 45.870    503.121    509.940     -6.819    502.976    508.807    502.976    504.109    502.976
 45.970    497.000    510.126    -13.126    502.933    508.947    502.933    504.111    502.933
 46.070    487.000    510.339    -23.339    502.891    509.111    502.891    504.119    502.891
 46.170    520.979    510.584     10.394    502.851    509.303    502.851    504.132    502.851
 46.270    532.262    510.866     21.396    502.812    509.527    502.812    504.151    502.812
 46.370    515.051    511.192      3.859    502.774    509.790    502.774    504.176    502.774
 46.470    521.000    511.569      9.431    502.738    510.098    502.738    504.208    502.738
 46.570    533.000    512.009     20.991    502.703    510.464    502.703    504.247    502.703
 46.670    541.000    512.531     28.469    502.669    510.904    502.669    504.295    502.669
 46.770    534.906    513.161     21.745    502.637    511.444    502.637    504.352    502.637
 46.870    495.935    513.983    -18.048    502.606    512.168    502.606    504.419    502.606
 46.970    587.000    515.139     71.861    502.576    513.214    502.576    504.498    502.576
 47.070    519.000    516.920      2.080    502.547    514.872    502.547    504.591    502.547
 47.170    516.000    519.839     -3.839    502.520    517.654    502.520    504.699    502.520
 47.270    505.000    524.653    -19.653    502.494    522.314    502.494    504.824    502.494
 47.370    526.000    532.221     -6.221    502.469    529.706    502.469    504.969    502.469
 47.470    543.000    543.125     -0.125    502.445    540.410    502.445    505.137    502.445
 47.570    557.000    557.100     -0.100    502.423    554.157    502.423    505.333    502.423
 47.670    553.000    572.451    -19.451    502.402    569.248    502.402    505.562    502.402
 47.770    617.125    585.712     31.413    502.382    582.212    502.382    505.831    502.382
 47.870    582.000    592.358    -10.358    502.363    588.519    502.363    506.148    502.363
 47.970    600.000    589.743     10.257    502.346    585.513    502.346    506.526    502.346
 48.070    573.000    579.675     -6.675    502.330    574.980    502.330    506.984    502.330
 48.170    609.765    566.567     43.197    502.315    561.303    502.315    507.548    502.315
 48.270    571.000    554.311     16.689    502.301    548.330    502.301    508.260    502.301
 48.370    546.000    545.113      0.887    502.288    538.208    502.288    509.180    502.288
 48.470    538.000    539.672     -1.672    502.277    531.547    502.277    510.393    502.277
 48.570    551.000    537.726     13.274    502.267    527.970    502.267    512.016    502.267
 48.670    572.608    538.653     33.955    502.258    526.706    502.258    514.200    502.258
 48.770    581.064    541.903     39.161    502.250    527.030    502.250    517.120    502.250
 48.870    524.000    547.180    -23.180    502.244    528.464    502.244    520.956    502.244
 48.970    513.884    554.442    -40.558    502.238    530.815    502.238    525.861    502.238
 49.070    523.000    563.863    -40.863    502.234    534.185    502.234    531.907    502.234
 49.170    609.698    575.925     33.773    502.231    539.147    502.231    539.003    502.231
 49.270    563.000    591.943    -28.943    502.229    547.388    502.229    546.777    502.229
 49.370    583.000    615.487    -32.487    502.228    563.287    502.228    554.415    502.228
 49.470    685.286    655.126     30.160    502.229    596.737    502.229    560.594    502.229
 49.570    680.206    728.011    -47.805    502.230    666.421    502.230    563.777    502.230
 49.670    856.000    861.203     -5.203    502.233    800.366    502.233    562.994    502.233
 49.770   1143.000   1084.667     58.333    502.236   1028.272    502.236    558.513    502.236
 49.870   1448.000   1412.090     35.910    502.241   1362.545    502.241    551.631    502.241
 49.970   1869.000   1815.397     53.603    502.247   1773.621    502.247    543.856    502.247
 50.070   2269.000   2209.768     59.232    502.254   2175.582    502.254    536.313    502.254
 50.170   2504.234   2469.334     34.900    502.263   2441.936    502.263    529.628    502.263
 50.270   2465.000   2487.710    -22.710    502.272   2466.020    502.272    524.050    502.272
 50.370   2242.751   2254.717    -11.966    502.282   2237.579    502.282    519.598    502.282
 50.470   1883.384   1866.027     17.356    502.294   1852.367    502.294    516.162    502.294
 50.570   1353.000   1451.302    -98.302    502.306   1440.223    502.306    513.573    502.306
 50.670   1064.436   1105.800    -41.364    502.320   1096.612    502.320    511.651    502.320
 50.770    852.000    867.733    -15.733    502.335    859.937    502.335    510.228    502.335
 50.870    727.000    728.909     -1.909    502.351    722.157    502.351    509.168    502.351
 50.970    678.000    658.962     19.038    502.367    653.010    502.367    508.365    502.367
 51.070    604.000    626.339    -22.339    502.385    621.017    502.385    507.745    502.385
 51.170    605.000    608.816     -3.816    502.404    603.997    502.404    507.255    502.404
 51.270    599.000    595.213      3.787    502.424    590.804    502.424    506.861    502.424
 51.370    610.000    582.246     27.754    502.445    578.174    502.445    506.539    502.445
 51.470    585.428    570.159     15.269    502.467    566.370    502.467    506.274    502.467
 51.570    590.000    559.873     30.127    502.490    556.322    502.490    506.053    502.490
 51.670    568.976    551.948     17.028    502.514    548.601    502.514    505.870    502.514
 51.770    567.514    546.444     21.070    502.539    543.271    502.539    505.718    502.539
 51.870    562.000    543.067     18.933    502.565    540.044    502.565    505.593    502.565
 51.970    572.587    541.385     31.202    502.591    538.490    502.591    505.490    502.591
 52.070    574.738    541.010     33.728    502.619    538.226    502.619    505.407    502.619
 52.170    554.000    541.720     12.280    502.648    539.029    502.648    505.342    502.648
 52.270    560.000    543.511     16.489    502.678    540.900    502.678    505.291    502.678
 52.370    573.569    546.692     26.877    502.709    544.149    502.709    505.254    502.709
 52.470    581.000    552.069     28.931    502.740    549.582    502.740    505.229    502.740
 52.570    600.000    561.268     38.732    502.773    558.827    502.773    505.215    502.773
 52.670    594.000    577.138     16.862    502.807    574.734    502.807    505.212    502.807
 52.770    618.000    603.993     14.007    502.841    601.617    502.841    505.217    502.841
 52.870    659.400    647.255     12.145    502.877    644.900    502.877    505.231    502.877
 52.970    732.000    712.080     19.920    502.913    709.738    502.913    505.253    502.913
 53.070    837.000    800.839     36.161    502.950    798.505    502.950    505.283    502.950
 53.170    887.000    909.965    -22.965    502.988    907.635    502.988    505.320    502.988
 53.270   1092.000   1027.032     64.968    503.027   1024.703    503.027    505.364    503.027
 53.370   1145.000   1129.368     15.632    503.067   1127.037    503.067    505.415    503.067
 53.470   1224.410   1188.004     36.406    503.108   1185.669    503.108    505.472    503.108
 53.570   1160.000   1181.938    -21.938    503.149   1179.592    503.149    505.535    503.149
 53.670   1065.851   1113.795    -47.945    503.192   1111.427    503.192    505.606    503.192
 53.770    946.000   1007.456    -61.456    503.235   1005.053    503.235    505.682    503.235
 53.870    922.360    891.272     31.089    503.279    888.823    503.279    505.765    503.279
 53.970    775.000    786.025    -11.025    503.324    783.525    503.324    505.855    503.324
 54.070    658.000    702.346    -44.346    503.370    699.786    503.370    505.951    503.370
 54.170    647.524    642.484      5.040    503.417    639.861    503.417    506.054    503.417
 54.270    571.116    603.347    -32.232    503.464    600.656    503.464    506.165    503.464
 54.370    603.000    579.595     23.405    503.512    576.830    503.512    506.283    503.512
 54.470    561.000    565.952     -4.952    503.561    563.109    503.561    506.408    503.561
 54.570    582.000    558.379     23.621    503.611    555.450    503.611    506.542    503.611
 54.670    556.956    554.267      2.689    503.661    551.246    503.661    506.685    503.661
 54.770    580.000    552.149     27.851    503.713    549.027    503.713    506.837    503.713
 54.870    587.000    551.280     35.720    503.765    548.048    503.765    506.999    503.765
 54.970    573.000    551.319     21.681    503.818    547.966    503.818    507.171    503.818
 55.070    560.000    552.124      7.876    503.871    548.641    503.871    507.356    503.871
 55.170    541.510    553.661    -12.151    503.925    550.035    503.925    507.552    503.925
 55.270    601.668    555.957     45.711    503.980    552.176    503.980    507.762    503.980
 55.370    541.000    559.102    -18.102    504.036    555.152    504.036    507.988    504.036
 55.470    579.000    563.271     15.729    504.093    559.136    504.093    508.229    504.093
 55.570    563.768    568.816     -5.048    504.150    564.478    504.150    508.488    504.150
 55.670    590.000    576.476     13.524    504.208    571.917    504.208    508.768    504.208
 55.770    590.220    587.844      2.377    504.266    583.041    504.266    509.069    504.266
 55.870    598.000    606.206     -8.206    504.325    601.134    504.325    509.395    504.325
 55.970    614.000    637.811    -23.811    504.385    632.442    504.385    509.749    504.385
 56.070    650.000    693.222    -43.222    504.446    687.523    504.446    510.134    504.446
 56.170    779.702    787.782     -8.080    504.507    781.715    504.507    510.554    504.507
 56.270    884.847    939.681    -54.834    504.569    933.204    504.569    511.015    504.569
 56.370   1179.000   1164.269     14.731    504.631   1157.336    504.631    511.520    504.631
 56.470   1426.688   1464.885    -38.197    504.694   1457.452    504.694    512.078    504.694
 56.570   1795.000   1822.800    -27.800    504.758   1814.822    504.758    512.697    504.758
 56.670   2274.141   2190.263     83.878    504.822   2181.691    504.822    513.385    504.822
 56.770   2404.000   2491.338    -87.338    504.887   2482.120    504.887    514.156    504.887
 56.870   2591.000   2640.439    -49.439    504.952   2630.499    504.952    515.023    504.952
 56.970   2582.000   2586.606     -4.606    505.019   2575.828    505.019    516.007    505.019
 57.070   2258.000   2350.578    -92.578    505.085   2338.789    505.085    517.134    505.085
 57.170   1992.862   2007.768    -14.906    505.152   1994.746    505.152    518.441    505.152
 57.270   1652.000   1641.757     10.243    505.220   1627.234    505.220    519.980    505.220
 57.370   1257.000   1314.309    -57.309    505.288   1297.958    505.288    521.828    505.288
 57.470   1099.010   1057.515     41.495    505.357   1038.909    505.357    524.100    505.357
 57.570    872.000    877.668     -5.668    505.427    856.227    505.427    526.958    505.427
 57.670    806.000    764.457     41.543    505.496    739.376    505.496    530.632    505.496
 57.770    697.000    701.137     -4.137    505.567    671.304    505.567    535.430    505.567
 57.870    702.000    672.197     29.803    505.638    636.108    505.638    541.741    505.638
 57.970    688.000    667.173     20.827    505.709    622.863    505.709    550.021    505.709
 58.070    688.000    681.202      6.798    505.781    626.211    505.781    560.764    505.781
 58.170    726.000    713.663     12.337    505.853    645.064    505.853    574.434    505.853
 58.270    765.000    765.993     -0.993    505.926    680.511    505.926    591.379    505.926
 58.370    856.745    839.364     17.381    505.999    733.611    505.999    611.712    505.999
 58.470    948.000    932.589     15.411    506.073    803.463    506.073    635.150    506.073
 58.570   1013.000   1040.579    -27.579    506.147    885.882    506.147    660.793    506.147
 58.670   1116.000   1153.816    -37.816    506.222    973.177    506.222    686.814    506.222
 58.770   1285.000   1259.718     25.282    506.297   1055.771    506.297    710.209    506.297
 58.870   1299.901   1345.637    -45.736    506.372   1125.003    506.372    726.988    506.372
 58.970   1417.000   1400.709     16.291    506.448   1173.784    506.448    733.376    506.448
 59.070   1403.472   1416.725    -13.253    506.524   1195.548    506.524    727.723    506.524
 59.170   1397.000   1391.380      5.620    506.601   1186.473    506.601    711.544    506.601
 59.270   1435.000   1332.427    102.573    506.678   1150.593    506.678    688.552    506.678
 59.370   1262.789   1256.323      6.466    506.755   1100.352    506.755    662.754    506.755
 59.470   1165.059   1181.814    -16.755    506.833   1051.437    506.833    637.212    506.833
 59.570   1244.000   1125.686    118.314    506.911   1018.761    506.911    613.804    506.911
 59.670   1150.000   1102.253     47.747    506.990   1015.694    506.990    593.471    506.990
 59.770   1177.558   1121.924     55.634    507.068   1052.341    507.068    576.523    507.068
 59.870   1243.000   1186.896     56.104    507.147   1130.997    507.147    562.863    507.147
 59.970   1378.000   1287.138     90.862    507.227   1241.978    507.227    552.153    507.227
 60.070   1453.000   1399.465     53.535    507.306   1362.570    507.306    543.932    507.306
 60.170   1446.000   1490.477    -44.477    507.386   1459.876    507.386    537.708    507.386
 60.270   1565.000   1525.516     39.484    507.467   1499.702    507.467    533.023    507.467
 60.370   1557.229   1484.744     72.485    507.547   1462.599    507.547    529.486    507.547
 60.470   1433.000   1374.946     58.054    507.628   1355.642    507.628    526.787    507.628
 60.570   1220.000   1223.306     -3.306    507.709   1206.228    507.709    524.697    507.709
 60.670   1035.000   1061.549    -26.549    507.790   1046.240    507.790    523.053    507.790
 60.770    868.872    914.808    -45.937    507.872    900.917    507.872    521.744    507.872
 60.870    807.409    797.580      9.829    507.954    784.831    507.954    520.696    507.954
 60.970    692.000    714.272    -22.272    508.036    702.443    508.036    519.861    508.036
 61.070    631.000    662.439    -31.439    508.118    651.346    508.118    519.206    508.118
 61.170    695.000    637.013     57.987    508.200    626.496    508.200    518.706    508.200
 61.270    669.000    633.894     35.106    508.283    623.816    508.283    518.342    508.283
 61.370    686.000    651.964     34.036    508.366    642.205    508.366    518.094    508.366
 61.470    694.890    693.233      1.657    508.449    683.696    508.449    517.937    508.449
 61.570    746.000    761.308    -15.308    508.532    751.928    508.532    517.840    508.532
 61.670    845.000    858.561    -13.561    508.615    849.315    508.615    517.762    508.615
 61.770    955.918    982.733    -26.815    508.699    973.650    508.699    517.653    508.699
 61.870   1145.634   1124.017     21.618    508.782   1115.178    508.782    517.466    508.782
 61.970   1251.314   1263.705    -12.391    508.866   1255.224    508.866    517.176    508.866
 62.070   1357.000   1375.552    -18.552    508.950   1367.544    508.950    516.789    508.950
 62.170   1389.500   1432.046    -42.546    509.034   1424.597    509.034    516.338    509.034
 62.270   1350.449   1416.625    -66.176    509.118   1409.775    509.118    515.864    509.118
 62.370   1400.827   1333.756     67.071    509.202   1327.496    509.202    515.400    509.202
 62.470   1152.513   1205.801    -53.288    509.286   1200.091    509.286    514.971    509.286
 62.570   1057.000   1060.721     -3.721    509.371   1055.502    509.371    514.590    509.371
 62.670    891.000    922.098    -31.098    509.455    917.304    509.455    514.261    509.455
 62.770    762.298    804.985    -42.687    509.540    800.556    509.540    513.984    509.540
 62.870    708.324    715.623     -7.298    509.624    711.503    509.624    513.757    509.624
 62.970    606.946    653.307    -46.361    509.709    649.451    509.709    513.574    509.709
 63.070    618.000    613.265      4.735    509.793    609.634    509.793    513.429    509.793
 63.170    562.000    589.443    -27.443    509.878    586.005    509.878    513.316    509.878
 63.270    563.191    576.439    -13.248    509.962    573.169    509.962    513.230    509.962
 63.370    563.000    570.425     -7.425    510.047    567.302    510.047    513.165    510.047
 63.470    636.000    569.311     66.689    510.131    566.317    510.131    513.118    510.131
 63.570    604.000    572.554     31.446    510.216    569.675    510.216    513.085    510.216
 63.670    598.000    580.867     17.133    510.301    578.090    510.301    513.063    510.301
 63.770    600.000    595.910      4.090    510.385    593.223    510.385    513.052    510.385
 63.870    670.000    619.885     50.115    510.469    617.276    510.469    513.048    510.469
 63.970    711.000    654.933     56.067    510.554    652.392    510.554    513.052    510.554
 64.070    696.000    702.292     -6.292    510.638    699.808    510.638    513.062    510.638
 64.170    785.000    761.326     23.674    510.722    758.892    510.722    513.078    510.722
 64.270    836.000    828.626      7.374    510.807    826.236    510.807    513.100    510.807
 64.370    922.000    897.424     24.576    510.891    895.077    510.891    513.125    510.891
 64.470    959.000    957.825      1.175    510.975    955.524    510.975    513.155    510.975
 64.570   1066.000    998.856     67.144    511.059    996.607    511.059    513.190    511.059
 64.670   1044.000   1012.667     31.333    511.142   1010.478    511.142    513.227    511.142
 64.770   1026.000    997.956     28.044    511.226    995.831    511.226    513.269    511.226
 64.870   1015.079    959.610     55.470    511.310    957.550    511.310    513.313    511.310
 64.970    943.823    906.076     37.748    511.393    904.077    511.393    513.360    511.393
 65.070    878.512    846.629     31.883    511.476    844.685    511.476    513.410    511.476
 65.170    841.327    788.968     52.359    511.559    787.072    511.559    513.463    511.559
 65.270    742.000    737.818      4.182    511.642    735.960    511.642    513.518    511.642
 65.370    651.000    695.003    -44.003    511.725    693.176    511.725    513.576    511.725
 65.470    683.000    660.489     22.511    511.807    658.686    511.807    513.635    511.807
 65.570    590.000    633.440    -43.440    511.889    631.654    511.889    513.697    511.889
 65.670    586.000    612.758    -26.758    511.972    610.986    511.972    513.761    511.972
 65.770    546.000    597.289    -51.289    512.053    595.529    512.053    513.827    512.053
 65.870    603.047    585.971     17.076    512.135    584.221    512.135    513.895    512.135
 65.970    591.028    577.938     13.089    512.217    576.196    512.217    513.964    512.217
 66.070    527.000    572.538    -45.538    512.298    570.804    512.298    514.035    512.298
 66.170    543.000    569.297    -26.297    512.379    567.569    512.379    514.108    512.379
 66.270    509.000    567.868    -58.868    512.459    566.145    512.459    514.183    512.459
 66.370    587.315    568.016     19.299    512.540    566.298    512.540    514.260    512.540
 66.470    561.000    569.638     -8.638    512.620    567.921    512.620    514.338    512.620
 66.570    555.000    572.833    -17.833    512.700    571.116    512.700    514.417    512.700
 66.670    592.185    578.037     14.148    512.779    576.319    512.779    514.499    512.779
 66.770    584.616    586.250     -1.635    512.858    584.528    512.858    514.582    512.858
 66.870    633.950    599.375     34.575    512.937    597.647    512.937    514.667    512.937
 66.970    650.261    620.660     29.600    513.016    618.923    513.016    514.753    513.016
 67.070    697.339    655.130     42.209    513.094    653.380    513.094    514.842    513.094
 67.170    662.000    709.776    -47.776    513.172    708.011    513.172    514.932    513.172
 67.270    830.036    793.153     36.883    513.249    791.369    513.249    515.024    513.249
 67.370    944.000    914.041     29.959    513.326    912.238    513.326    515.118    513.326
 67.470   1110.000   1079.029     30.971    513.403   1077.209    513.403    515.214    513.403
 67.570   1266.404   1289.291    -22.887    513.480   1287.458    513.480    515.312    513.480
 67.670   1638.000   1537.298    100.702    513.556   1535.461    513.556    515.412    513.556
 67.770   1755.000   1804.413    -49.413    513.631   1802.584    513.631    515.515    513.631
 67.870   2094.000   2060.244     33.756    513.707   2058.435    513.707    515.620    513.707
 67.970   2186.954   2265.091    -78.137    513.781   2263.313    513.781    515.728    513.781
 68.070   2384.000   2378.246      5.754    513.856   2376.501    513.856    515.839    513.856
 68.170   2447.000   2373.193     73.807    513.930   2371.468    513.930    515.953    513.930
 68.270   2210.259   2251.279    -41.020    514.003   2249.545    514.003    516.070    514.003
 68.370   2020.000   2040.890    -20.890    514.077   2039.113    514.077    516.191    514.077
 68.470   1749.000   1783.102    -34.102    514.149   1781.249    514.149    516.315    514.149
 68.570   1555.417   1517.001     38.416    514.221   1515.048    514.221    516.444    514.221
 68.670   1282.000   1272.015      9.985    514.293   1269.950    514.293    516.577    514.293
 68.770    986.000   1065.789    -79.789    514.364   1063.605    514.364    516.716    514.364
 68.870    906.756    905.010      1.747    514.435    902.707    514.435    516.859    514.435
 68.970    792.000    787.919      4.081    514.505    785.499    514.505    517.009    514.505
 69.070    714.000    707.632      6.368    514.575    705.098    514.575    517.165    514.575
 69.170    657.000    655.313      1.687    514.644    652.666    514.644    517.329    514.644
 69.270    674.000    622.500     51.500    514.713    619.736    514.713    517.501    514.713
 69.370    583.618    602.349    -18.731    514.781    599.465    514.781    517.681    514.781
 69.470    579.000    589.972    -10.972    514.849    586.960    514.849    517.872    514.849
 69.570    569.000    582.208    -13.208    514.916    579.059    514.916    518.074    514.916
 69.670    603.000    577.177     25.823    514.982    573.877    514.982    518.288    514.982
 69.770    586.000    573.832     12.168    515.048    570.369    515.048    518.516    515.048
 69.870    581.000    571.626      9.374    515.114    567.983    515.114    518.760    515.114
 69.970    596.000    570.283     25.717    515.179    566.442    515.179    519.022    515.179
 70.070    563.000    569.678     -6.678    515.243    565.618    515.243    519.304    515.243
 70.170    601.000    569.775     31.225    515.306    565.472    515.306    519.610    515.306
 70.270    532.000    570.613    -38.613    515.369    566.040    515.369    519.942    515.369
 70.370    565.934    572.331     -6.397    515.432    567.457    515.432    520.304    515.432
 70.470    532.899    575.225    -42.325    515.494    570.012    515.494    520.703    515.494
 70.570    546.511    579.851    -33.341    515.555    574.258    515.555    521.144    515.555
 70.670    571.319    587.198    -15.878    515.615    581.170    515.615    521.635    515.615
 70.770    628.000    598.891     29.109    515.675    592.365    515.675    522.189    515.675
 70.870    594.000    617.428    -23.428    515.734    610.321    515.734    522.823    515.734
 70.970    613.363    646.335    -32.972    515.793    638.539    515.793    523.560    515.793
 71.070    689.000    690.121     -1.121    515.851    681.493    515.851    524.436    515.851
 71.170    727.914    753.874    -25.960    515.908    744.218    515.908    525.504    515.908
 71.270    858.000    842.377     15.623    515.965    831.419    515.965    526.840    515.965
 71.370    982.197    958.750     23.446    516.021    946.111    516.021    528.550    516.021
 71.470   1161.000   1102.816     58.184    516.076   1087.973    516.076    530.780    516.076
 71.570   1266.000   1269.550     -3.550    516.130   1251.797    516.130    533.719    516.130
 71.670   1417.000   1448.011    -31.011    516.184   1426.411    516.184    537.599    516.184
 71.770   1568.693   1621.096    -52.403    516.237   1594.454    516.237    542.685    516.237
 71.870   1808.000   1766.687     41.313    516.289   1733.533    516.289    549.255    516.289
 71.970   1878.000   1861.385     16.615    516.341   1819.993    516.341    557.565    516.341
 72.070   1902.712   1887.735     14.977    516.392   1836.189    516.392    567.804    516.392
 72.170   1912.000   1842.099     69.901    516.442   1778.410    516.442    580.034    516.442
 72.270   1740.124   1736.638      3.485    516.491   1658.938    516.491    594.130    516.491
 72.370   1655.748   1593.178     62.570    516.540   1499.976    516.540    609.707    516.540
 72.470   1533.000   1434.710     98.290    516.587   1325.234    516.587    626.047    516.587
 72.570   1339.323   1279.916     59.407    516.634   1154.528    516.634    642.018    516.634
 72.670   1089.546   1141.083    -51.536    516.680   1001.711    516.680    656.053    516.680
 72.770    985.000   1024.018    -39.018    516.726    874.449    516.726    666.296    516.726
 72.870    887.000    929.264    -42.264    516.770    774.983    516.770    671.052    516.770
 72.970    865.584    854.144     11.440    516.814    701.527    516.814    669.430    516.814
 73.070    749.241    794.830    -45.589    516.857    649.923    516.857    661.761    516.857
 73.170    705.000    747.692    -42.692    516.899    615.155    516.899    649.432    516.899
 73.270    672.000    709.807    -37.807    516.941    592.459    516.941    634.286    516.941
 73.370    672.955    679.008     -6.053    516.981    577.931    516.981    618.055    516.981
 73.470    639.978    653.782    -13.804    517.021    568.716    517.021    602.086    517.021
 73.570    615.000    633.144    -18.144    517.060    562.915    517.060    587.289    517.060
 73.670    624.000    616.476      7.524    517.098    559.373    517.098    574.204    517.098
 73.770    558.000    603.368    -45.368    517.135    557.435    517.135    563.073    517.135
 73.870    622.234    593.480     28.754    517.171    556.741    517.171    553.920    517.171
 73.970    633.000    586.459     46.541    517.206    557.071    517.206    546.609    517.206
 74.070    553.261    581.886    -28.624    517.241    558.234    517.241    540.911    517.241
 74.170    565.000    579.260    -14.260    517.274    560.004    517.274    536.555    517.274
 74.270    538.628    578.008    -39.380    517.307    562.080    517.307    533.266    517.307
 74.370    624.000    577.496     46.504    517.339    564.077    517.339    530.794    517.339
 74.470    615.684    577.073     38.611    517.369    565.555    517.369    528.929    517.369
 74.570    607.655    576.155     31.500    517.399    566.093    517.399    527.504    517.399
 74.670    637.000    574.356     62.644    517.428    565.432    517.428    526.396    517.428
 74.770    646.000    571.601     74.399    517.456    563.586    517.456    525.513    517.456
 74.870    586.423    568.115     18.308    517.484    560.844    517.484    524.792    517.484
 74.970    583.978    564.314     19.664    517.510    557.665    517.510    524.191    517.510
 75.070    608.000    560.678     47.322    517.535    554.560    517.535    523.679    517.535
 75.170    589.000    557.685     31.315    517.559    552.028    517.559    523.237    517.559
 75.270    587.000    555.805     31.195    517.583    550.551    517.583    522.850    517.583
 75.370    567.000    555.504     11.496    517.605    550.607    517.605    522.510    517.605
 75.470    566.772    557.267      9.505    517.626    552.688    517.626    522.208    517.626
 75.570    528.419    561.588    -33.169    517.647    557.293    517.647    521.938    517.647
 75.670    556.000    568.936    -12.936    517.666    564.896    517.666    521.696    517.666
 75.770    566.000    579.676    -13.676    517.685    575.865    517.685    521.479    517.685
 75.870    610.246    593.947     16.299    517.702    590.342    517.702    521.283    517.702
 75.970    592.000    611.521    -19.521    517.719    608.102    517.719    521.105    517.719
 76.070    621.000    631.676    -10.676    517.734    628.426    517.734    520.944    517.734
 76.170    606.947    653.113    -46.165    517.749    650.016    517.749    520.797    517.749
 76.270    744.000    673.930     70.070    517.762    670.976    517.762    520.662    517.762
 76.370    712.000    691.722     20.278    517.774    688.898    517.774    520.538    517.774
 76.470    745.802    703.869     41.933    517.786    701.169    517.786    520.425    517.786
 76.570    651.000    708.193    -57.193    517.796    705.610    517.796    520.320    517.796
 76.670    724.000    703.783     20.217    517.805    701.313    517.805    520.223    517.805
 76.770    704.996    691.439     13.558    517.814    689.074    517.814    520.132    517.814
 76.870    722.000    673.269     48.731    517.821    671.004    517.821    520.048    517.821
 76.970    669.729    651.867     17.862    517.827    649.696    517.827    519.969    517.827
 77.070    612.000    629.644    -17.644    517.832    627.559    517.832    519.895    517.832
 77.170    559.000    608.502    -49.502    517.836    606.496    517.836    519.826    517.836
 77.270    592.000    589.735      2.265    517.839    587.803    517.839    519.760    517.839
 77.370    527.000    574.039    -47.039    517.841    572.174    517.841    519.699    517.841
 77.470    601.891    561.587     40.304    517.842    559.784    517.842    519.640    517.842
 77.570    545.000    552.153     -7.153    517.841    550.407    517.841    519.584    517.841
 77.670    544.000    545.304     -1.304    517.840    543.611    517.840    519.531    517.840
 77.770    539.119    540.526     -1.407    517.837    538.882    517.837    519.480    517.837
 77.870    535.000    537.272     -2.272    517.834    535.674    517.834    519.430    517.834
 77.970    546.929    535.088     11.841    517.829    533.533    517.829    519.383    517.829
 78.070    494.000    533.626    -39.626    517.823    532.111    517.823    519.337    517.823
 78.170    522.000    532.635    -10.635    517.816    531.158    517.816    519.293    517.816
 78.270    513.000    531.953    -18.953    517.808    530.510    517.808    519.250    517.808
 78.370    515.000    531.476    -16.476    517.799    530.066    517.799    519.208    517.799
 78.470    538.022    531.149      6.873    517.789    529.770    517.789    519.168    517.789
 78.570    491.000    530.944    -39.944    517.777    529.593    517.777    519.128    517.777
 78.670    537.758    530.854      6.904    517.765    529.528    517.765    519.090    517.765
 78.770    526.000    530.883     -4.883    517.751    529.581    517.751    519.052    517.751
 78.870    541.000    531.046      9.954    517.736    529.765    517.736    519.016    517.736
 78.970    521.149    531.362    -10.213    517.720    530.100    517.720    518.981    517.720
 79.070    544.395    531.855     12.540    517.703    530.609    517.703    518.948    517.703
 79.170    526.427    532.548     -6.121    517.685    531.314    517.685    518.917    517.685
 79.270    527.000    533.464     -6.464    517.666    532.239    517.666    518.888    517.666
 79.370    529.000    534.626     -5.626    517.645    533.406    517.645    518.862    517.645
 79.470    500.070    536.062    -35.992    517.623    534.843    517.623    518.839    517.623
 79.570    485.000    537.811    -52.811    517.600    536.588    517.600    518.820    517.600
 79.670    521.028    539.937    -18.909    517.576    538.705    517.576    518.804    517.576
 79.770    557.000    542.541     14.459    517.551    541.296    517.551    518.791    517.551
 79.870    588.387    545.783     42.604    517.524    544.520    517.524    518.783    517.524
 79.970    533.000    549.899    -16.899    517.497    548.614    517.497    518.777    517.497
 80.070    597.412    555.223     42.190    517.468    553.912    517.468    518.775    517.468
 80.170    514.000    562.173    -48.173    517.438    560.835    517.438    518.773    517.438
 80.270    545.000    571.207    -26.207    517.407    569.841    517.407    518.772    517.407
 80.370    599.000    582.725     16.275    517.374    581.334    517.374    518.767    517.374
 80.470    589.000    596.969     -7.969    517.341    595.559    517.341    518.756    517.341
 80.570    576.288    613.909    -37.621    517.306    612.489    517.306    518.736    517.306
 80.670    631.000    633.178     -2.178    517.270    631.759    517.270    518.704    517.270
 80.770    650.130    654.030     -3.900    517.233    652.626    517.233    518.657    517.233
 80.870    705.000    675.380     29.620    517.194    674.005    517.194    518.596    517.194
 80.970    727.412    695.914     31.498    517.155    694.580    517.155    518.522    517.155
 81.070    753.006    714.277     38.729    517.114    712.993    517.114    518.438    517.114
 81.170    754.000    729.252     24.748    517.072    728.022    517.072    518.349    517.072
 81.270    731.000    739.874     -8.874    517.028    738.700    517.028    518.256    517.028
 81.370    746.394    745.504      0.890    516.984    744.385    516.984    518.162    516.984
 81.470    717.000    745.890    -28.890    516.938    744.823    516.938    518.069    516.938
 81.570    733.000    741.174     -8.174    516.891    740.153    516.891    517.979    516.891
 81.670    738.000    731.842      6.158    516.843    730.863    516.843    517.891    516.843
 81.770    703.161    718.707    -15.545    516.794    717.763    516.794    517.807    516.794
 81.870    751.162    702.866     48.296    516.743    701.952    516.743    517.725    516.743
 81.970    680.095    685.555     -5.460    516.691    684.665    516.691    517.647    516.691
 82.070    667.000    667.896     -0.896    516.638    667.025    516.638    517.572    516.638
 82.170    643.594    650.702     -7.108    516.584    649.846    516.584    517.498    516.584
 82.270    603.000    634.432    -31.432    516.528    633.587    516.528    517.427    516.528
 82.370    581.000    619.290    -38.290    516.471    618.454    516.471    517.357    516.471
 82.470    624.302    605.381     18.921    516.413    604.551    516.413    517.288    516.413
 82.570    586.000    592.824     -6.824    516.354    591.997    516.354    517.219    516.354
 82.670    558.000    581.779    -23.779    516.293    580.954    516.293    517.151    516.293
 82.770    562.000    572.417    -10.417    516.231    571.591    516.231    517.083    516.231
 82.870    584.467    564.885     19.582    516.168    564.057    516.168    517.014    516.168
 82.970    544.206    559.292    -15.087    516.104    558.462    516.104    516.945    516.104
 83.070    533.000    555.694    -22.694    516.038    554.861    516.038    516.876    516.038
 83.170    543.000    554.074    -11.074    515.971    553.237    515.971    516.806    515.971
 83.270    584.000    554.326     29.674    515.903    553.485    515.903    516.735    515.903
 83.370    560.000    556.242      3.758    515.834    555.395    515.834    516.663    515.834
 83.470    553.813    559.496     -5.683    515.763    558.645    515.763    516.590    515.763
 83.570    531.000    563.656    -32.656    515.691    562.800    515.691    516.517    515.691
 83.670    551.000    568.188    -17.188    515.618    567.328    515.618    516.443    515.618
 83.770    520.000    572.492    -52.492    515.544    571.628    515.544    516.368    515.544
 83.870    596.000    575.943     20.057    515.468    575.077    515.468    516.292    515.468
 83.970    542.000    577.976    -35.976    515.391    577.109    515.391    516.215    515.391
 84.070    637.000    578.196     58.804    515.313    577.329    515.313    516.137    515.313
 84.170    605.000    576.481     28.519    515.234    575.616    515.234    516.058    515.234
 84.270    537.000    573.012    -36.012    515.153    572.150    515.153    515.978    515.153
 84.370    600.546    568.196     32.350    515.071    567.337    515.071    515.897    515.071
 84.470    533.874    562.546    -28.672    514.988    561.691    514.988    515.816    514.988
 84.570    537.000    556.571    -19.571    514.904    555.719    514.904    515.733    514.904
 84.670    545.573    550.714     -5.141    514.818    549.864    514.818    515.650    514.818
 84.770    523.000    545.313    -22.313    514.731    544.465    514.731    515.565    514.731
 84.870    522.000    540.593    -18.593    514.643    539.745    514.643    515.479    514.643
 84.970    548.000    536.668     11.332    514.553    535.819    514.553    515.393    514.553
 85.070    521.076    533.557    -12.481    514.463    532.708    514.463    515.306    514.463
 85.170    544.104    531.213     12.891    514.371    530.361    514.371    515.217    514.371
 85.270    548.000    529.544     18.456    514.278    528.689    514.278    515.128    514.278
 85.370    531.000    528.448      2.552    514.183    527.589    514.183    515.038    514.183
 85.470    546.000    527.830     18.170    514.087    526.966    514.087    514.946    514.087
 85.570    520.535    527.617     -7.082    513.990    526.748    513.990    514.854    513.990
 85.670    532.065    527.773      4.292    513.892    526.899    513.892    514.761    513.892
 85.770    541.000    528.299     12.701    513.793    527.418    513.793    514.667    513.793
 85.870    554.000    529.239     24.761    513.692    528.350    513.692    514.572    513.692
 85.970    510.682    530.676    -19.994    513.590    529.779    513.590    514.476    513.590
 86.070    547.000    532.733     14.267    513.487    531.827    513.487    514.380    513.487
 86.170    575.000    535.560     39.440    513.382    534.643    513.382    514.282    513.382
 86.270    533.115    539.324     -6.209    513.277    538.395    513.277    514.184    513.277
 86.370    530.000    544.187    -14.187    513.170    543.245    513.170    514.085    513.170
 86.470    592.000    550.281     41.719    513.062    549.323    513.062    513.985    513.062
 86.570    557.000    557.674     -0.674    512.952    556.699    512.952    513.884    512.952
 86.670    574.000    566.337      7.663    512.842    565.343    512.842    513.782    512.842
 86.770    559.000    576.111    -17.111    512.730    575.097    512.730    513.679    512.730
 86.870    566.000    586.684    -20.684    512.617    585.648    512.617    513.576    512.617
 86.970    635.152    597.578     37.575    512.502    596.521    512.502    513.472    512.502
 87.070    631.357    608.152     23.205    512.387    607.074    512.387    513.368    512.387
 87.170    649.000    617.631     31.369    512.270    616.533    512.270    513.262    512.270
 87.270    621.000    625.174     -4.174    512.152    624.059    512.152    513.156    512.152
 87.370    656.000    630.008     25.992    512.033    628.878    512.033    513.049    512.033
 87.470    619.000    631.603    -12.603    511.912    630.463    511.912    512.942    511.912
 87.570    665.143    629.832     35.311    511.791    628.684    511.791    512.834    511.791
 87.670    601.926    625.011    -23.085    511.668    623.859    511.668    512.726    511.668
 87.770    678.000    617.804     60.196    511.544    616.648    511.544    512.617    511.544
 87.870    606.000    609.059     -3.059    511.418    607.899    511.418    512.508    511.418
 87.970    616.000    599.670     16.330    511.292    598.506    511.292    512.398    511.292
 88.070    627.000    590.479     36.521    511.164    589.310    511.164    512.288    511.164
 88.170    603.000    582.217     20.783    511.035    581.042    511.035    512.178    511.035
 88.270    613.000    575.465     37.535    510.905    574.281    510.905    512.067    510.905
 88.370    559.000    570.630    -11.630    510.774    569.435    510.774    511.957    510.774
 88.470    613.000    567.934     45.066    510.642    566.727    510.642    511.846    510.642
 88.570    562.000    567.421     -5.421    510.508    566.199    510.508    511.735    510.508
 88.670    589.000    568.956     20.044    510.374    567.718    510.374    511.625    510.374
 88.770    576.000    572.248      3.752    510.238    570.993    510.238    511.514    510.238
 88.870    590.000    576.869     13.131    510.101    575.594    510.101    511.404    510.101
 88.970    598.000    582.272     15.728    509.962    580.977    509.962    511.294    509.962
 89.070    613.000    587.826     25.174    509.823    586.507    509.823    511.185    509.823
 89.170    606.112    592.849     13.263    509.682    591.506    509.682    511.076    509.682
 89.270    640.000    596.671     43.329    509.541    595.299    509.541    510.968    509.541
 89.370    561.000    598.706    -37.706    509.398    597.303    509.398    510.861    509.398
 89.470    582.520    598.603    -16.082    509.254    597.163    509.254    510.756    509.254
 89.570    623.913    596.283     27.630    509.109    594.803    509.109    510.651    509.109
 89.670    577.693    591.947    -14.254    508.962    590.422    508.962    510.549    508.962
 89.770    561.541    586.024    -24.483    508.815    584.448    508.815    510.448    508.815
 89.870    536.000    579.048    -43.048    508.667    577.417    508.667    510.349    508.667
 89.970    583.107    571.563     11.543    508.517    569.872    508.517    510.253    508.517
 90.070    570.000    564.058      5.942    508.366    562.303    508.366    510.161    508.366
 90.170    530.000    556.931    -26.931    508.215    555.106    508.215    510.071    508.215
 90.270    521.538    550.474    -28.936    508.062    548.575    508.062    509.987    508.062
 90.370    533.000    544.874    -11.874    507.908    542.895    507.908    509.907    507.908
 90.470    571.000    540.215     30.785    507.753    538.150    507.753    509.834    507.753
 90.570    533.000    536.502     -3.502    507.596    534.342    507.596    509.768    507.596
 90.670    537.000    533.678      3.322    507.439    531.413    507.439    509.712    507.439
 90.770    559.000    531.650     27.350    507.281    529.267    507.281    509.669    507.281
 90.870    503.000    530.313    -27.313    507.122    527.798    507.122    509.641    507.122
 90.970    518.000    529.567    -11.567    506.961    526.899    506.961    509.631    506.961
 91.070    555.000    529.335     25.665    506.800    526.488    506.800    509.647    506.800
 91.170    565.787    529.575     36.212    506.637    526.519    506.637    509.693    506.637
 91.270    501.000    530.277    -29.277    506.474    526.971    506.474    509.777    506.474
 91.370    520.000    531.475    -11.475    506.309    527.872    506.309    509.909    506.309
 91.470    549.000    533.249     15.751    506.144    529.290    506.144    510.098    506.144
 91.570    526.683    535.720     -9.037    505.977    531.333    505.977    510.358    505.977
 91.670    522.000    539.046    -17.046    505.809    534.146    505.809    510.701    505.809
 91.770    528.417    543.386    -14.969    505.641    537.875    505.641    511.142    505.641
 91.870    541.000    549.026     -8.026    505.471    542.790    505.471    511.694    505.471
 91.970    570.000    556.179     13.821    505.301    549.092    505.301    512.371    505.301
 92.070    538.617    565.040    -26.423    505.129    556.963    505.129    513.185    505.129
 92.170    599.000    575.776     23.224    504.957    566.561    504.957    514.145    504.957
 92.270    552.000    588.491    -36.491    504.783    577.985    504.783    515.256    504.783
 92.370    586.000    603.195    -17.195    504.609    591.246    504.609    516.519    504.609
 92.470    616.000    619.783     -3.783    504.433    606.245    504.433    517.926    504.433
 92.570    642.000    638.014      3.986    504.257    622.757    504.257    519.462    504.257
 92.670    634.000    657.499    -23.499    504.080    640.418    504.080    521.102    504.080
 92.770    689.000    677.711     11.289    503.902    658.740    503.902    522.808    503.902
 92.870    734.333    698.001     36.333    503.723    677.125    503.723    524.528    503.723
 92.970    728.000    717.638     10.362    503.543    694.909    503.543    526.197    503.543
 93.070    739.000    735.922      3.078    503.362    711.478    503.362    527.730    503.362
 93.170    707.000    752.306    -45.306    503.180    726.379    503.180    529.030    503.180
 93.270    799.000    766.492     32.508    502.997    739.414    502.997    529.998    502.997
 93.370    749.000    778.461    -29.461    502.814    750.657    502.814    530.543    502.814
 93.470    851.000    788.422     62.578    502.630    760.378    502.630    530.600    502.630
 93.570    830.000    796.717     33.283    502.444    768.940    502.444    530.149    502.444
 93.670    838.000    803.759     34.241    502.258    776.730    502.258    529.219    502.258
 93.770    832.000    810.013     21.987    502.072    784.142    502.072    527.876    502.072
 93.870    826.000    816.007      9.993    501.884    791.612    501.884    526.214    501.884
 93.970    846.989    822.326     24.663    501.695    799.624    501.695    524.336    501.695
 94.070    781.292    829.523    -48.231    501.506    808.635    501.506    522.334    501.506
 94.170    835.197    837.970     -2.773    501.316    818.936    501.316    520.292    501.316
 94.270    811.845    847.705    -35.860    501.125    830.500    501.125    518.274    501.125
 94.370    872.475    858.331     14.145    500.933    842.882    500.933    516.329    500.933
 94.470    876.000    869.007      6.993    500.741    855.205    500.741    514.493    500.741
 94.570    944.000    878.513     65.487    500.548    866.225    500.548    512.790    500.548
 94.670    969.000    885.392     83.608    500.354    874.472    500.354    511.234    500.354
 94.770    919.000    888.160     30.840    500.160    878.457    500.160    509.831    500.160
 94.870    866.000    885.583    -19.583    499.964    876.943    499.964    508.581    499.964
 94.970    896.000    876.957     19.043    499.768    869.233    499.768    507.477    499.768
 95.070    857.000    862.299     -5.299    499.571    855.354    499.571    506.510    499.571
 95.170    857.434    842.366     15.068    499.374    836.071    499.374    505.669    499.374
 95.270    891.000    818.503     72.497    499.176    812.746    499.176    504.939    499.176
 95.370    743.066    792.423    -49.357    498.977    787.103    498.977    504.306    498.977
 95.470    819.000    765.996     53.004    498.778    761.027    498.778    503.758    498.778
 95.570    741.443    741.082      0.361    498.578    736.391    498.578    503.280    498.578
 95.670    752.000    719.487     32.513    498.377    715.011    498.377    502.862    498.377
 95.770    696.000    702.820     -6.820    498.176    698.508    498.176    502.492    498.176
 95.870    714.000    692.495     21.505    497.974    688.305    497.974    502.164    497.974
 95.970    706.000    689.719     16.281    497.772    685.615    497.772    501.868    497.772
 96.070    669.197    695.483    -26.286    497.569    691.436    497.569    501.600    497.569
 96.170    725.000    710.553     14.447    497.365    706.539    497.365    501.354    497.365
 96.270    752.000    735.455     16.545    497.161    731.454    497.161    501.128    497.161
 96.370    800.000    770.436     29.564    496.956    766.429    496.956    500.919    496.956
 96.470    768.142    815.398    -47.255    496.751    811.369    496.751    500.724    496.751
 96.570    811.000    869.820    -58.820    496.546    865.757    496.546    500.542    496.546
 96.670    956.000    932.675     23.325    496.339    928.565    496.339    500.373    496.339
 96.770    970.000   1002.358    -32.358    496.133    998.190    496.133    500.215    496.133
 96.870   1019.392   1076.635    -57.243    495.926   1072.401    495.926    500.069    495.926
 96.970   1128.000   1152.642    -24.642    495.718   1148.332    495.718    499.935    495.718
 97.070   1233.000   1226.919      6.081    495.510   1222.524    495.510    499.812    495.510
 97.170   1321.474   1295.527     25.947    495.302   1291.039    495.302    499.701    495.302
 97.270   1380.000   1354.279     25.721    495.093   1349.689    495.093    499.603    495.093
 97.370   1384.000   1399.136    -15.136    494.883   1394.436    494.883    499.519    494.883
 97.470   1428.135   1426.766      1.369    494.674   1421.943    494.674    499.449    494.674
 97.570   1497.000   1435.139     61.861    494.464   1430.180    494.464    499.396    494.464
 97.670   1490.547   1423.937     66.610    494.253   1418.823    494.253    499.360    494.253
 97.770   1412.219   1394.566     17.653    494.043   1389.277    494.043    499.345    494.043
 97.870   1457.000   1349.807    107.193    493.831   1344.315    493.831    499.354    493.831
 97.970   1238.156   1293.276    -55.120    493.620   1287.549    493.620    499.391    493.620
 98.070   1213.000   1228.931    -15.931    493.408   1222.930    493.408    499.463    493.408
 98.170   1147.000   1160.717    -13.717    493.196   1154.398    493.196    499.575    493.196
 98.270   1071.000   1092.337    -21.337    492.984   1085.646    492.984    499.736    492.984
 98.370   1077.025   1027.116     49.909    492.772   1019.988    492.772    499.959    492.772
 98.470   1010.605    967.924     42.681    492.559    960.280    492.559    500.257    492.559
 98.570    891.000    917.150    -26.150    492.346    908.896    492.346    500.647    492.346
 98.670    789.000    876.712    -87.712    492.133    867.732    492.133    501.152    492.133
 98.770    831.000    848.093    -17.093    491.920    838.247    491.920    501.795    491.920
 98.870    826.000    832.394     -6.394    491.706    821.512    491.706    502.608    491.706
 98.970    847.000    830.389     16.611    491.492    818.269    491.492    503.623    491.492
 99.070    864.816    842.578     22.237    491.279    828.979    491.279    504.879    491.279
 99.170    868.000    869.207     -1.207    491.065    853.848    491.065    506.417    491.065
 99.270    859.575    910.265    -50.690    490.851    892.822    490.851    508.281    490.851
 99.370    928.000    965.446    -37.446    490.637    945.550    490.637    510.515    490.637
 99.470   1037.000   1034.082      2.918    490.422   1011.324    490.422    513.162    490.422
 99.570   1133.000   1115.118     17.882    490.208   1089.050    490.208    516.259    490.208
 99.670   1187.000   1206.966    -19.966    489.994   1177.107    489.994    519.840    489.994
 99.770   1339.000   1307.468     31.532    489.780   1273.318    489.780    523.926    489.780
 99.870   1366.884   1413.868    -46.984    489.565   1374.918    489.565    528.524    489.565
 99.970   1527.000   1522.820      4.180    489.351   1478.570    489.351    533.625    489.351
100.070   1602.364   1630.474    -28.110    489.137   1580.456    489.137    539.200    489.137
100.170   1811.282   1732.676     78.606    488.923   1676.474    488.923    545.192    488.923
100.270   1807.520   1825.277    -17.757    488.708   1762.558    488.708    551.521    488.708
100.370   1908.000   1904.494      3.506    488.494   1835.039    488.494    558.069    488.494
100.470   2008.000   1967.212     40.788    488.280   1890.951    488.280    564.686    488.280
100.570   1945.743   2011.119    -65.376    488.067   1928.174    488.067    571.181    488.067
100.670   1970.522   2034.688    -64.166    487.853   1945.410    487.853    577.322    487.853
100.770   2068.128   2037.133     30.995    487.640   1942.139    487.640    582.841    487.640
100.870   1988.000   2018.483    -30.483    487.426   1918.680    487.426    587.450    487.426
100.970   1955.000   1979.789    -24.789    487.213   1876.367    487.213    590.864    487.213
101.070   1903.000   1923.306    -20.306    487.000   1817.697    487.000    592.840    487.000
101.170   1854.000   1852.473      1.527    486.788   1746.267    486.788    593.221    486.788
101.270   1812.406   1771.598     40.809    486.575   1666.432    486.575    591.961    486.575
101.370   1681.000   1685.353     -4.353    486.363   1582.784    486.363    589.140    486.363
101.470   1610.396   1598.247     12.149    486.151   1499.647    486.151    584.945    486.151
101.570   1435.000   1514.214    -79.214    485.940   1420.698    485.940    579.635    485.940
101.670   1443.000   1436.361      6.639    485.729   1348.754    485.729    573.498    485.729
101.770   1396.853   1366.847     30.006    485.518   1285.691    485.518    566.820    485.518
101.870   1283.000   1306.869    -23.869    485.307   1232.448    485.307    559.861    485.307
101.970   1209.342   1256.699    -47.357    485.097   1189.076    485.097    552.839    485.097
102.070   1222.000   1215.773      6.227    484.888   1154.835    484.888    545.934    484.888
102.170   1215.191   1182.812     32.379    484.679   1128.303    484.679    539.288    484.679
102.270   1174.000   1155.976     18.024    484.470   1107.536    484.470    533.005    484.470
102.370   1122.000   1133.057    -11.057    484.262   1090.251    484.262    527.159    484.262
102.470   1117.000   1111.724      5.276    484.054   1074.070    484.054    521.799    484.054
102.570   1038.000   1089.802    -51.802    483.847   1056.793    483.847    516.946    483.847
102.670   1025.000   1065.553    -40.553    483.640   1036.678    483.640    512.607    483.640
102.770   1051.000   1037.886     13.114    483.434   1012.645    483.434    508.767    483.434
102.870   1058.000   1006.427     51.573    483.229    984.344    483.229    505.403    483.229
102.970    999.000    971.442     27.558    483.024    952.075    483.024    502.480    483.024
103.070    878.504    933.662    -55.158    482.820    916.609    482.820    499.959    482.820
103.170    881.000    894.083    -13.083    482.616    878.986    482.616    497.795    482.616
103.270    865.601    853.797     11.804    482.413    840.342    482.413    495.945    482.413
103.370    786.000    813.876    -27.876    482.211    801.792    482.211    494.365    482.211
103.470    758.548    775.289    -16.740    482.010    764.346    482.010    493.016    482.010
103.570    755.000    738.855     16.145    481.809    728.861    481.809    491.859    481.809
103.670    700.000    705.214     -5.214    481.609    696.009    481.609    490.864    481.609
103.770    688.160    674.810     13.349    481.410    666.263    481.410    490.000    481.410
103.870    621.350    647.895    -26.545    481.212    639.899    481.212    489.244    481.212
103.970    627.242    624.539      2.704    481.015    617.007    481.015    488.576    481.015
104.070    645.669    604.660     41.009    480.818    597.523    480.818    487.980    480.818
104.170    580.000    588.056     -8.056    480.622    581.256    480.622    487.442    480.622
104.270    594.000    574.438     19.562    480.428    567.930    480.428    486.951    480.428
104.370    544.696    563.470    -18.774    480.234    557.217    480.234    486.499    480.234
104.470    575.068    554.798     20.270    480.041    548.768    480.041    486.080    480.041
104.570    510.109    548.078    -37.969    479.849    542.245    479.849    485.688    479.849
104.670    567.000    542.997     24.003    479.659    537.340    479.659    485.320    479.659
104.770    528.000    539.280    -11.280    479.469    533.779    479.469    484.972    479.469
104.870    556.813    536.699     20.114    479.280    531.339    479.280    484.641    479.280
104.970    498.000    535.086    -37.086    479.093    529.852    479.093    484.326    479.093
105.070    553.000    534.318     18.682    478.906    529.196    478.906    484.026    478.906
105.170    519.242    534.322    -15.080    478.721    529.300    478.721    483.739    478.721
105.270    541.000    535.070      5.930    478.537    530.136    478.537    483.465    478.537
105.370    583.000    536.571     46.429    478.354    531.715    478.354    483.202    478.354
105.470    528.000    538.860    -10.860    478.172    534.074    478.172    482.949    478.172
105.570    498.111    542.018    -43.907    477.992    537.292    477.992    482.707    477.992
105.670    527.052    546.123    -19.071    477.813    541.448    477.813    482.474    477.813
105.770    539.000    551.257    -12.257    477.635    546.626    477.635    482.250    477.635
105.870    531.651    557.495    -25.844    477.458    552.900    477.458    482.034    477.458
105.970    538.519    564.886    -26.367    477.283    560.321    477.283    481.827    477.283
106.070    569.000    573.445     -4.445    477.109    568.902    477.109    481.628    477.109
106.170    594.000    583.137     10.863    476.937    578.610    476.937    481.437    476.937
106.270    593.000    593.872     -0.872    476.766    589.354    476.766    481.253    476.766
106.370    630.907    605.497     25.409    476.597    600.983    476.597    481.077    476.597
106.470    588.000    617.801    -29.801    476.429    613.285    476.429    480.907    476.429
106.570    584.044    630.507    -46.463    476.262    625.985    476.262    480.745    476.262
106.670    611.243    643.289    -32.046    476.097    638.754    476.097    480.591    476.097
106.770    648.539    655.774     -7.234    475.934    651.222    475.934    480.443    475.934
106.870    635.000    667.561    -32.561    475.772    662.988    475.772    480.302    475.772
106.970    689.000    678.247     10.753    475.612    673.648    475.612    480.168    475.612
107.070    730.048    687.459     42.589    475.454    682.830    475.454    480.041    475.454
107.170    684.000    694.902    -10.902    475.297    690.238    475.297    479.921    475.297
107.270    692.000    700.401     -8.401    475.142    695.698    475.142    479.808    475.142
107.370    729.534    703.942     25.592    474.989    699.195    474.989    479.702    474.989
107.470    688.000    705.677    -17.677    474.838    700.881    474.838    479.604    474.838
107.570    642.000    705.900    -63.900    474.688    701.050    474.688    479.512    474.688
107.670    649.000    704.996    -55.996    474.540    700.086    474.540    479.429    474.540
107.770    709.411    703.386      6.025    474.395    698.411    474.395    479.353    474.395
107.870    667.476    701.468    -33.992    474.251    696.422    474.251    479.284    474.251
107.970    689.000    699.583    -10.583    474.109    694.458    474.109    479.224    474.109
108.070    717.000    697.980     19.020    473.969    692.772    473.969    479.172    473.969
108.170    653.548    696.807    -43.259    473.830    691.508    473.830    479.129    473.830
108.270    647.314    696.097    -48.783    473.694    690.700    473.694    479.094    473.694
108.370    723.280    695.769     27.510    473.560    690.268    473.560    479.069    473.560
108.470    708.000    695.638     12.362    473.429    690.024    473.429    479.053    473.429
108.570    721.000    695.423     25.577    473.299    689.689    473.299    479.047    473.299
108.670    784.000    694.783     89.217    473.171    688.920    473.171    479.051    473.171
108.770    680.780    693.353    -12.573    473.046    687.353    473.046    479.066    473.046
108.870    728.000    690.794     37.206    472.923    684.647    472.923    479.092    472.923
108.970    720.000    686.846     33.154    472.802    680.542    472.802    479.130    472.802
109.070    689.000    681.370      7.630    472.683    674.898    472.683    479.180    472.683
109.170    641.000    674.362    -33.362    472.567    667.712    472.567    479.243    472.567
109.270    643.000    665.953    -22.953    472.453    659.112    472.453    479.320    472.453
109.370    670.541    656.369     14.172    472.341    649.324    472.341    479.412    472.341
109.470    634.000    645.903    -11.903    472.232    638.640    472.232    479.519    472.232
109.570    642.000    634.870      7.130    472.125    627.376    472.125    479.643    472.125
109.670    646.000    623.589     22.411    472.021    615.847    472.021    479.785    472.021
109.770    645.000    612.356     32.644    471.919    604.350    471.919    479.946    471.919
109.870    639.000    601.440     37.560    471.820    593.150    471.820    480.129    471.820
109.970    589.815    591.070     -1.255    471.723    582.476    471.723    480.334    471.723
110.070    584.000    581.433      2.567    471.629    572.511    471.629    480.565    471.629
110.170    538.695    572.672    -33.977    471.538    563.397    471.538    480.825    471.538
110.270    523.172    564.885    -41.713    471.449    555.227    471.449    481.117    471.449
110.370    562.000    558.129      3.871    471.364    548.055    471.364    481.445    471.364
110.470    545.000    552.423     -7.423    471.280    541.895    471.280    481.814    471.280
110.570    527.000    547.750    -20.750    471.200    536.723    471.200    482.231    471.200
110.670    526.496    544.048    -17.552    471.122    532.469    471.122    482.704    471.122
110.770    504.859    541.289    -36.430    471.048    529.097    471.048    483.241    471.048
110.870    545.000    539.421      5.579    470.976    526.543    470.976    483.853    470.976
110.970    492.339    538.348    -46.009    470.907    524.698    470.907    484.555    470.907
111.070    531.000    537.991     -6.991    470.841    523.468    470.841    485.361    470.841
111.170    574.000    538.280     35.720    470.778    522.764    470.778    486.291    470.778
111.270    556.000    539.152     16.848    470.719    522.501    470.719    487.365    470.719
111.370    519.792    540.556    -20.763    470.662    522.601    470.662    488.610    470.662
111.470    614.000    542.450     71.550    470.608    522.998    470.608    490.054    470.608
111.570    576.000    544.809     31.191    470.558    523.630    470.558    491.729    470.558
111.670    525.001    547.621    -22.620    470.511    524.451    470.511    493.673    470.511
111.770    530.000    550.886    -20.886    470.466    525.420    470.466    495.924    470.466
111.870    579.000    554.620     24.380    470.426    526.510    470.426    498.527    470.426
111.970    556.000    558.854     -2.854    470.388    527.705    470.388    501.528    470.388
112.070    524.000    563.627    -39.627    470.354    528.998    470.354    504.974    470.354
112.170    541.000    568.994    -27.994    470.323    530.392    470.323    508.916    470.323
112.270    533.000    575.017    -42.017    470.296    531.901    470.296    513.402    470.296
112.370    597.000    581.765     15.235    470.272    533.547    470.272    518.480    470.272
112.470    619.157    589.313     29.844    470.252    535.362    470.252    524.192    470.252
112.570    547.000    597.739    -50.739    470.235    537.386    470.235    530.577    470.235
112.670    558.000    607.126    -49.126    470.222    539.673    470.222    537.664    470.222
112.770    637.000    617.562     19.438    470.212    542.289    470.212    545.473    470.212
112.870    618.000    629.141    -11.141    470.206    545.323    470.206    554.011    470.206
112.970    598.000    641.968    -43.968    470.204    548.890    470.204    563.269    470.204
113.070    672.000    656.169     15.831    470.205    553.139    470.205    573.221    470.205
113.170    643.006    671.895    -28.888    470.210    558.267    470.210    583.822    470.210
113.270    690.000    689.335      0.665    470.219    564.534    470.219    595.003    470.219
113.370    756.687    708.733     47.954    470.232    572.274    470.232    606.671    470.232
113.470    704.000    730.403    -26.403    470.249    581.923    470.249    618.705    470.249
113.570    784.560    754.749     29.811    470.270    594.035    470.270    630.957    470.270
113.670    733.000    782.289    -49.289    470.294    609.310    470.294    643.242    470.294
113.770    807.000    813.678     -6.678    470.323    628.618    470.323    655.346    470.323
113.870    883.953    849.732     34.222    470.356    653.025    470.356    667.017    470.356
113.970    934.000    891.454     42.546    470.393    683.816    470.393    677.976    470.393
114.070    892.000    940.057    -48.057    470.434    722.508    470.434    687.917    470.434
114.170    976.000    996.988    -20.988    470.479    770.864    470.479    696.522    470.479
114.270   1024.000   1063.935    -39.935    470.528    830.882    470.528    703.482    470.528
114.370   1140.822   1142.839     -2.017    470.582    904.778    470.582    708.523    470.582
114.470   1271.000   1235.876     35.124    470.640    994.942    470.640    711.430    470.640
114.570   1417.000   1345.417     71.583    470.702   1103.874    470.702    712.072    470.702
114.670   1485.537   1473.952     11.585    470.769   1234.092    470.769    710.423    470.769
114.770   1619.713   1623.981     -4.268    470.840   1388.016    470.840    706.562    470.840
114.870   1937.000   1797.858    139.142    470.916   1567.826    470.916    700.662    470.916
114.970   2135.000   1997.608    137.392    470.996   1775.302    470.996    692.973    470.996
115.070   2275.742   2224.726     51.016    471.081   2011.640    471.081    683.789    471.081
115.170   2418.937   2479.967    -61.030    471.170   2277.284    471.170    673.427    471.170
115.270   2828.357   2763.150     65.207    471.264   2571.739    471.264    662.201    471.264
115.370   3097.000   3072.989     24.011    471.363   2893.426    471.363    650.404    471.363
115.470   3423.041   3406.957     16.085    471.467   3239.553    471.467    638.304    471.467
115.570   3899.000   3761.201    137.799    471.575   3606.037    471.575    626.135    471.575
115.670   4145.000   4130.518     14.482    471.688   3987.476    471.688    614.094    471.688
115.770   4631.138   4508.379    122.759    471.806   4377.178    471.806    602.350    471.806
115.870   4880.129   4887.031     -6.902    471.929   4767.256    471.929    591.036    471.929
115.970   5247.000   5257.650    -10.650    472.057   5148.783    472.057    580.261    472.057
116.070   5487.252   5610.578   -123.326    472.190   5512.019    472.190    570.103    472.190
116.170   6094.000   5935.624    158.376    472.328   5846.720    472.328    560.620    472.328
116.270   6281.292   6222.470     58.822    472.471   6142.530    472.471    551.849    472.471
116.370   6517.000   6461.176     55.824    472.620   6389.494    472.620    543.805    472.620
116.470   6829.000   6642.798    186.202    472.773   6578.668    472.773    536.486    472.773
116.570   6902.000   6760.083    141.917    472.932   6702.804    472.932    529.886    472.932
116.670   6813.194   6808.117      5.077    473.096   6757.011    473.096    523.977    473.096
116.770   6840.448   6784.842     55.606    473.265   6739.262    473.265    518.725    473.265
116.870   6669.000   6691.273    -22.273    473.440   6650.609    473.440    514.089    473.440
116.970   6453.138   6531.374    -78.236    473.621   6495.055    473.621    510.022    473.621
117.070   6310.000   6311.615     -1.615    473.806   6279.116    473.806    506.479    473.806
117.170   5925.000   6040.347   -115.347    473.998   6011.187    473.998    503.408    473.998
117.270   5502.000   5727.108   -225.108    474.195   5700.856    474.195    500.761    474.195
117.370   5056.000   5381.992   -325.992    474.397   5358.262    474.397    498.492    474.397
117.470   4840.000   5015.109   -175.109    474.605   4993.559    474.605    496.554    474.605
117.570   4518.000   4636.162   -118.162    474.819   4616.493    474.819    494.907    474.819
117.670   4228.000   4254.123    -26.123    475.039   4236.077    475.039    493.511    475.039
117.770   3884.000   3876.988      7.012    475.265   3860.340    475.265    492.334    475.265
117.870   3586.000   3511.608     74.392    475.496   3496.168    475.496    491.342    475.496
117.970   3151.000   3163.578    -12.578    475.734   3149.190    475.734    490.505    475.734
118.070   2888.048   2837.242     50.806    475.977   2823.763    475.977    489.811    475.977
118.170   2451.000   2535.715    -84.715    476.226   2523.028    476.226    489.234    476.226
118.270   2196.065   2260.885    -64.820    476.482   2248.894    476.482    488.758    476.482
118.370   2011.000   2013.602     -2.602    476.744   2002.228    476.744    488.366    476.744
118.470   1858.649   1793.803     64.845    477.011   1782.979    477.011    488.049    477.011
118.570   1512.000   1600.667    -88.667    477.285   1590.337    477.285    487.794    477.285
118.670   1474.000   1432.779     41.221    477.566   1422.896    477.566    487.595    477.566
118.770   1254.000   1288.292    -34.292    477.853   1278.818    477.853    487.445    477.853
118.870   1165.000   1165.081     -0.081    478.146   1155.983    478.146    487.337    478.146
118.970   1049.000   1060.880    -11.880    478.445   1052.129    478.445    487.268    478.445
119.070    973.061    973.395     -0.334    478.751    964.966    478.751    487.234    478.751
119.170    911.000    900.401     10.599    479.064    892.273    479.064    487.232    479.064
119.270    827.000    839.810    -12.810    479.383    831.962    479.383    487.260    479.383
119.370    785.000    789.714     -4.714    479.709    782.128    479.709    487.315    479.709
119.470    770.000    748.416     21.584    480.041    741.074    480.041    487.396    480.041
119.570    753.569    714.434     39.136    480.381    707.320    480.381    487.502    480.381
119.670    656.088    686.501    -30.413    480.727    679.600    480.727    487.633    480.727
119.770    630.000    663.551    -33.551    481.080    656.847    481.080    487.787    481.080
119.870    599.000    644.700    -45.700    481.440    638.178    481.440    487.963    481.440
119.970    602.302    629.225    -26.922    481.807    622.870    481.807    488.163    481.807
120.070    629.282    616.539     12.743    482.181    610.336    482.181    488.384    482.181
120.170    592.233    606.174    -13.941    482.562    600.109    482.562    488.628    482.562
120.270    618.191    597.757     20.434    482.950    591.815    482.950    488.894    482.950
120.370    561.000    590.993    -29.993    483.345    585.158    483.345    489.182    483.345
120.470    549.120    585.650    -36.530    483.748    579.909    483.748    489.492    483.748
120.570    584.000    581.547      2.453    484.158    575.884    484.158    489.825    484.158
120.670    580.000    578.541      1.459    484.575    572.940    484.575    490.180    484.575
120.770    613.829    576.519     37.310    485.000    570.966    485.000    490.558    485.000
120.870    606.000    575.392     30.608    485.432    569.871    485.432    490.959    485.432
120.970    573.997    575.086     -1.089    485.872    569.582    485.872    491.383    485.872
121.070    557.000    575.539    -18.539    486.319    570.037    486.319    491.829    486.319
121.170    577.450    576.695      0.755    486.774    571.180    486.774    492.299    486.774
121.270    592.000    578.504     13.496    487.237    572.961    487.237    492.791    487.237
121.370    571.688    580.913     -9.226    487.707    575.327    487.707    493.306    487.707
121.470    582.000    583.869     -1.869    488.185    578.226    488.185    493.842    488.185
121.570    580.000    587.312     -7.312    488.672    581.600    488.672    494.400    488.672
121.670    613.000    591.180     21.820    489.166    585.386    489.166    494.978    489.166
121.770    563.000    595.400    -32.400    489.668    589.513    489.668    495.576    489.668
121.870    612.000    599.894     12.106    490.178    593.904    490.178    496.191    490.178
121.970    616.000    604.576     11.424    490.696    598.475    490.696    496.823    490.696
122.070    632.000    609.353     22.647    491.222    603.134    491.222    497.470    491.222
122.170    608.000    614.124     -6.124    491.757    607.783    491.757    498.129    491.757
122.270    575.041    618.785    -43.743    492.300    612.320    492.300    498.799    492.300
122.370    665.750    623.228     42.523    492.851    616.640    492.851    499.476    492.851
122.470    655.255    627.345     27.910    493.411    620.638    493.411    500.157    493.411
122.570    612.000    631.035    -19.035    493.979    624.215    493.979    500.839    493.979
122.670    657.000    634.201     22.799    494.555    627.281    494.555    501.519    494.555
122.770    649.000    636.765     12.235    495.141    629.758    495.141    502.193    495.141
122.870    592.802    638.666    -45.864    495.734    631.590    495.734    502.856    495.734
122.970    637.000    639.864     -2.864    496.337    632.742    496.337    503.507    496.337
123.070    610.388    640.348    -29.960    496.948    633.203    496.948    504.140    496.948
123.170    666.055    640.129     25.926    497.569    632.989    497.569    504.755    497.569
123.270    645.812    639.239      6.573    498.198    632.134    498.198    505.349    498.198
123.370    665.000    637.732     27.268    498.836    630.691    498.836    505.922    498.836
123.470    615.847    635.672    -19.825    499.483    628.724    499.483    506.474    499.483
123.570    674.274    633.134     41.140    500.139    626.307    500.139    507.007    500.139
123.670    654.000    630.197     23.803    500.804    623.517    500.804    507.523    500.804
123.770    633.406    626.940      6.466    501.479    620.430    501.479    508.025    501.479
123.870    643.000    623.443     19.557    502.162    617.123    502.162    508.517    502.162
123.970    675.000    619.781     55.219    502.855    613.666    502.855    509.001    502.855
124.070    572.528    616.021    -43.493    503.558    610.125    503.558    509.482    503.558
124.170    586.271    612.223    -25.952    504.270    606.554    504.270    509.964    504.270
124.270    643.000    608.437     34.563    504.991    603.002    504.991    510.449    504.991
124.370    591.000    604.704    -13.704    505.722    599.506    505.722    510.940    505.722
124.470    647.000    601.055     45.945    506.463    596.094    506.463    511.441    506.463
124.570    555.931    597.511    -41.580    507.213    592.785    507.213    511.954    507.213
124.670    562.109    594.085    -31.976    507.974    589.590    507.974    512.481    507.974
124.770    570.000    590.784    -20.784    508.744    586.515    508.744    513.023    508.744
124.870    603.000    587.609     15.391    509.524    583.558    509.524    513.583    509.524
124.970    590.000    584.558      5.442    510.314    580.718    510.314    514.161    510.314
