neutron_powder_diffraction_0112
R_wp: 3.978
Temperature (K): 948.074
Counts: 83748.00
Wavelength (Ã…): 2.52098
COMMENTS
Test file for demonstrating the .xyy file format in Reel1.0
END OF HEADER
   tth       Y_obs     Y_calc      Y_res    Background    Phase_1_Nuc    Phase_1_Mag    Phase_2_Nuc    Phase_2_Mag
  9.970    559.000    551.833      7.167    550.728    551.698    550.728    550.863    550.728
 10.070    594.425    552.306     42.119    551.117    552.170    551.117    551.253    551.117
 10.170    550.029    552.781     -2.752    551.496    552.644    551.496    551.633    551.496
 10.270    579.000    553.261     25.739    551.867    553.123    551.867    552.004    551.867
 10.370    587.000    553.748     33.252    552.228    553.610    552.228    552.365    552.228
 10.470    552.000    554.248     -2.248    552.580    554.110    552.580    552.717    552.580
 10.570    532.072    554.765    -22.694    552.922    554.626    552.922    553.061    552.922
 10.670    589.000    555.307     33.693    553.256    555.167    553.256    553.395    553.256
 10.770    535.504    555.881    -20.376    553.580    555.740    553.580    553.720    553.580
 10.870    580.000    556.500     23.500    553.896    556.358    553.896    554.036    553.896
 10.970    595.889    557.181     38.708    554.203    557.039    554.203    554.344    554.203
 11.070    559.000    557.951      1.049    554.501    557.808    554.501    554.643    554.501
 11.170    598.788    558.837     39.950    554.791    558.693    554.791    554.933    554.791
 11.270    605.783    559.896     45.886    555.072    559.751    555.072    555.215    555.072
 11.370    597.000    561.226     35.774    555.344    561.079    555.344    555.488    555.344
 11.470    604.273    563.033     41.240    555.608    562.885    555.608    555.752    555.608
 11.570    580.053    565.812     14.240    555.864    565.663    555.864    556.008    555.864
 11.670    580.670    570.678      9.992    556.111    570.525    556.111    556.256    556.111
 11.770    588.594    579.694      8.899    556.350    579.536    556.350    556.496    556.350
 11.870    592.532    595.637     -3.105    556.581    595.469    556.581    556.728    556.581
 11.970    573.529    620.358    -46.829    556.804    620.175    556.804    556.951    556.804
 12.070    663.000    651.440     11.560    557.019    651.239    557.019    557.167    557.019
 12.170    647.743    678.466    -30.724    557.226    678.249    557.226    557.375    557.226
 12.270    661.000    685.516    -24.516    557.425    685.294    557.425    557.574    557.425
 12.370    617.000    666.955    -49.955    557.617    666.743    557.617    557.766    557.617
 12.470    599.000    636.040    -37.040    557.800    635.845    557.800    557.951    557.800
 12.570    600.998    607.688     -6.690    557.976    607.509    557.976    558.127    557.976
 12.670    541.000    587.897    -46.897    558.144    587.728    558.144    558.296    558.144
 12.770    607.226    576.306     30.920    558.305    576.144    558.305    558.458    558.305
 12.870    571.739    570.210      1.528    558.459    570.051    558.459    558.612    558.459
 12.970    609.427    567.061     42.366    558.605    566.902    558.605    558.759    558.605
 13.070    584.451    565.300     19.150    558.744    565.142    558.744    558.898    558.744
 13.170    578.000    564.192     13.808    558.875    564.034    558.875    559.030    558.875
 13.270    530.000    563.429    -33.429    558.999    563.270    558.999    559.155    558.999
 13.370    532.057    562.877    -30.821    559.117    562.719    559.117    559.273    559.117
 13.470    590.904    562.469     28.436    559.227    562.310    559.227    559.384    559.227
 13.570    574.000    562.162     11.838    559.330    562.002    559.330    559.488    559.330
 13.670    527.000    561.931    -34.931    559.427    561.770    559.427    559.586    559.427
 13.770    526.000    561.751    -35.751    559.516    561.590    559.516    559.676    559.516
 13.870    545.087    561.612    -16.525    559.599    561.450    559.599    559.759    559.599
 13.970    558.000    561.503     -3.503    559.675    561.341    559.675    559.836    559.675
 14.070    539.000    561.417    -22.417    559.744    561.254    559.744    559.907    559.744
 14.170    563.335    561.347      1.988    559.807    561.184    559.807    559.970    559.807
 14.270    592.000    561.291     30.709    559.864    561.126    559.864    560.028    559.864
 14.370    577.263    561.243     16.020    559.914    561.078    559.914    560.078    559.914
 14.470    529.839    561.203    -31.364    559.957    561.037    559.957    560.123    559.957
 14.570    583.000    561.166     21.834    559.995    561.000    559.995    560.161    559.995
 14.670    510.000    561.133    -51.133    560.026    560.966    560.026    560.193    560.026
 14.770    555.000    561.102     -6.102    560.051    560.933    560.051    560.219    560.051
 14.870    570.000    561.071      8.929    560.069    560.901    560.069    560.238    560.069
 14.970    548.000    561.039    -13.039    560.082    560.869    560.082    560.252    560.082
 15.070    558.000    561.007     -3.007    560.089    560.836    560.089    560.260    560.089
 15.170    537.857    560.973    -23.115    560.090    560.801    560.090    560.261    560.090
 15.270    518.499    560.937    -42.438    560.085    560.764    560.085    560.257    560.085
 15.370    597.697    560.898     36.799    560.074    560.724    560.074    560.247    560.074
 15.470    512.000    560.856    -48.856    560.057    560.682    560.057    560.232    560.057
 15.570    605.632    560.813     44.819    560.035    560.637    560.035    560.210    560.035
 15.670    486.000    560.766    -74.766    560.007    560.590    560.007    560.183    560.007
 15.770    548.000    560.715    -12.715    559.974    560.537    559.974    560.151    559.974
 15.870    520.946    560.660    -39.714    559.935    560.481    559.935    560.113    559.935
 15.970    534.000    560.601    -26.601    559.890    560.421    559.890    560.070    559.890
 16.070    573.587    560.540     13.048    559.840    560.359    559.840    560.021    559.840
 16.170    551.000    560.491     -9.491    559.785    560.310    559.785    559.967    559.785
 16.270    560.616    560.430      0.186    559.725    560.247    559.725    559.908    559.725
 16.370    519.000    560.356    -41.356    559.660    560.172    559.660    559.843    559.660
 16.470    512.000    560.277    -48.277    559.589    560.092    559.589    559.773    559.589
 16.570    585.000    560.194     24.806    559.513    560.008    559.513    559.699    559.513
 16.670    521.000    560.107    -39.107    559.432    559.920    559.432    559.619    559.432
 16.770    581.000    560.016     20.984    559.347    559.828    559.347    559.535    559.347
 16.870    569.736    559.921      9.815    559.256    559.732    559.256    559.445    559.256
 16.970    556.000    559.821     -3.821    559.161    559.631    559.161    559.351    559.161
 17.070    516.000    559.718    -43.718    559.060    559.526    559.060    559.252    559.060
 17.170    554.000    559.610     -5.610    558.955    559.418    558.955    559.148    558.955
 17.270    603.396    559.508     43.887    558.845    559.314    558.845    559.039    558.845
 17.370    522.000    559.492    -37.492    558.731    559.297    558.731    558.926    558.731
 17.470    589.887    559.398     30.488    558.612    559.202    558.612    558.809    558.612
 17.570    604.318    559.276     45.041    558.489    559.079    558.489    558.686    558.489
 17.670    552.198    559.149     -6.951    558.361    558.950    558.361    558.560    558.361
 17.770    560.000    559.017      0.983    558.229    558.817    558.229    558.429    558.229
 17.870    567.264    558.882      8.382    558.092    558.681    558.092    558.294    558.092
 17.970    591.956    558.743     33.213    557.951    558.540    557.951    558.154    557.951
 18.070    584.330    558.600     25.730    557.806    558.396    557.806    558.010    557.806
 18.170    511.000    558.453    -47.453    557.656    558.247    557.656    557.862    557.656
 18.270    516.673    558.303    -41.630    557.503    558.096    557.503    557.710    557.503
 18.370    527.000    558.149    -31.149    557.345    557.940    557.345    557.554    557.345
 18.470    536.335    557.991    -21.656    557.184    557.781    557.184    557.394    557.184
 18.570    575.159    557.830     17.330    557.018    557.618    557.018    557.230    557.018
 18.670    550.768    557.667     -6.899    556.849    557.454    556.849    557.062    556.849
 18.770    528.004    557.504    -29.500    556.675    557.289    556.675    556.890    556.675
 18.870    575.000    557.333     17.667    556.498    557.116    556.498    556.714    556.498
 18.970    528.016    557.158    -29.142    556.317    556.940    556.317    556.535    556.317
 19.070    556.000    556.979     -0.979    556.132    556.760    556.132    556.352    556.132
 19.170    557.000    556.798      0.202    555.944    556.577    555.944    556.165    555.944
 19.270    567.000    556.621     10.379    555.752    556.398    555.752    555.975    555.752
 19.370    566.000    556.497      9.503    555.556    556.272    555.556    555.781    555.556
 19.470    540.306    556.313    -16.007    555.357    556.086    555.357    555.584    555.357
 19.570    534.000    556.121    -22.121    555.155    555.892    555.155    555.383    555.155
 19.670    566.000    555.928     10.072    554.949    555.698    554.949    555.179    554.949
 19.770    571.000    555.729     15.271    554.739    555.497    554.739    554.972    554.739
 19.870    532.000    555.527    -23.527    554.527    555.293    554.527    554.761    554.527
 19.970    528.388    555.323    -26.935    554.311    555.087    554.311    554.547    554.311
 20.070    536.000    555.116    -19.116    554.091    554.878    554.091    554.330    554.091
 20.170    546.000    554.906     -8.906    553.869    554.666    553.869    554.109    553.869
 20.270    522.000    554.694    -32.694    553.644    554.452    553.644    553.886    553.644
 20.370    559.000    554.480      4.520    553.415    554.235    553.415    553.660    553.415
 20.470    559.000    554.264      4.736    553.183    554.017    553.183    553.430    553.183
 20.570    542.000    554.045    -12.045    552.949    553.796    552.949    553.198    552.949
 20.670    564.000    553.828     10.172    552.711    553.576    552.711    552.963    552.711
 20.770    585.282    553.644     31.638    552.471    553.390    552.471    552.725    552.471
 20.870    533.000    553.431    -20.431    552.228    553.175    552.228    552.484    552.228
 20.970    558.000    553.207      4.793    551.982    552.948    551.982    552.241    551.982
 21.070    533.000    552.990    -19.990    551.733    552.729    551.733    551.994    551.733
 21.170    539.000    552.770    -13.770    551.481    552.505    551.481    551.746    551.481
 21.270    538.000    552.546    -14.546    551.227    552.279    551.227    551.494    551.227
 21.370    575.674    552.318     23.356    550.970    552.048    550.970    551.240    550.970
 21.470    592.000    552.094     39.906    550.711    551.821    550.711    550.984    550.711
 21.570    576.000    551.880     24.120    550.449    551.605    550.449    550.725    550.449
 21.670    539.000    551.649    -12.649    550.184    551.371    550.184    550.463    550.184
 21.770    535.000    551.417    -16.417    549.918    551.135    549.918    550.200    549.918
 21.870    526.000    551.184    -25.184    549.648    550.899    549.648    549.934    549.648
 21.970    541.000    550.952     -9.952    549.377    550.664    549.377    549.665    549.377
 22.070    544.000    550.721     -6.721    549.103    550.429    549.103    549.395    549.103
 22.170    536.000    550.494    -14.494    548.826    550.199    548.826    549.122    548.826
 22.270    566.221    550.289     15.932    548.548    549.990    548.548    548.848    548.548
 22.370    545.000    550.072     -5.072    548.267    549.769    548.267    548.571    548.267
 22.470    516.236    549.858    -33.622    547.985    549.551    547.985    548.292    547.985
 22.570    581.000    549.665     31.335    547.700    549.354    547.700    548.011    547.700
 22.670    532.000    549.460    -17.460    547.413    549.144    547.413    547.729    547.413
 22.770    572.944    549.290     23.654    547.124    548.971    547.124    547.444    547.124
 22.870    562.312    549.121     13.191    546.833    548.797    546.833    547.158    546.833
 22.970    544.000    548.940     -4.940    546.540    548.611    546.540    546.869    546.540
 23.070    527.376    548.771    -21.396    546.245    548.438    546.245    546.579    546.245
 23.170    552.000    548.631      3.369    545.949    548.292    545.949    546.288    545.949
 23.270    555.980    548.535      7.445    545.650    548.191    545.650    545.995    545.650
 23.370    507.459    548.468    -41.009    545.350    548.119    545.350    545.700    545.350
 23.470    541.290    548.410     -7.120    545.048    548.055    545.048    545.404    545.048
 23.570    562.000    548.395     13.605    544.744    548.035    544.744    545.106    544.744
 23.670    544.000    548.444     -4.444    544.439    548.078    544.439    544.807    544.439
 23.770    618.000    548.585     69.415    544.132    548.213    544.132    544.506    544.132
 23.870    555.000    548.849      6.151    543.823    548.470    543.823    544.204    543.823
 23.970    536.000    549.306    -13.306    543.513    548.921    543.513    543.901    543.513
 24.070    549.123    550.117     -0.994    543.202    549.725    543.202    543.597    543.202
 24.170    546.196    551.614     -5.418    542.888    551.215    542.888    543.291    542.888
 24.270    591.052    554.553     36.499    542.574    554.149    542.574    542.985    542.574
 24.370    561.000    560.295      0.705    542.258    559.886    542.258    542.678    542.258
 24.470    614.000    570.594     43.406    541.941    570.185    541.941    542.369    541.941
 24.570    596.000    586.557      9.443    541.622    586.149    541.622    542.060    541.622
 24.670    636.000    606.592     29.408    541.302    606.189    541.302    541.750    541.302
 24.770    695.000    624.125     70.875    540.981    623.724    540.981    541.439    540.981
 24.870    613.000    628.959    -15.959    540.659    628.551    540.659    541.127    540.659
 24.970    595.000    617.037    -22.037    540.335    616.610    540.335    540.815    540.335
 25.070    611.136    596.510     14.626    540.010    596.056    540.010    540.503    540.010
 25.170    575.000    577.124     -2.124    539.685    576.643    539.685    540.190    539.685
 25.270    604.947    563.110     41.837    539.358    562.606    539.358    539.877    539.358
 25.370    547.389    554.532     -7.143    539.030    554.008    539.030    539.563    539.030
 25.470    552.328    549.766      2.562    538.701    549.223    538.701    539.250    538.701
 25.570    531.000    547.133    -16.133    538.371    546.572    538.371    538.936    538.371
 25.670    542.000    545.540     -3.540    538.040    544.961    538.040    538.623    538.040
 25.770    541.470    544.448     -2.979    537.708    543.850    537.708    538.309    537.708
 25.870    565.734    543.625     22.109    537.376    543.006    537.376    537.997    537.376
 25.970    572.925    542.972     29.954    537.042    542.331    537.042    537.685    537.042
 26.070    549.875    542.440      7.435    536.708    541.776    536.708    537.373    536.708
 26.170    533.000    542.004     -9.004    536.373    541.315    536.373    537.063    536.373
 26.270    539.000    541.647     -2.647    536.037    540.932    536.037    536.753    536.037
 26.370    567.000    541.359     25.641    535.701    540.615    535.701    536.445    535.701
 26.470    531.000    541.137    -10.137    535.364    540.362    535.364    536.139    535.364
 26.570    546.000    540.979      5.021    535.026    540.170    535.026    535.835    535.026
 26.670    514.992    540.889    -25.897    534.687    540.044    534.687    535.533    534.687
 26.770    501.933    540.875    -38.942    534.348    539.990    534.348    535.233    534.348
 26.870    543.702    540.947      2.755    534.009    540.019    534.009    534.937    534.009
 26.970    584.214    541.125     43.089    533.669    540.149    533.669    534.644    533.669
 27.070    523.711    541.432    -17.720    533.328    540.404    533.328    534.356    533.328
 27.170    564.701    541.906     22.795    532.987    540.820    532.987    534.072    532.987
 27.270    516.128    542.602    -26.474    532.646    541.453    532.646    533.794    532.646
 27.370    539.000    543.605     -4.605    532.304    542.386    532.304    533.523    532.304
 27.470    534.000    545.073    -11.073    531.962    543.775    531.962    533.259    531.962
 27.570    545.000    547.402     -2.402    531.619    546.016    531.619    533.004    531.619
 27.670    545.000    551.881     -6.881    531.277    550.396    531.277    532.759    531.277
 27.770    532.000    562.473    -30.473    530.933    560.874    530.933    532.526    530.933
 27.870    582.422    588.484     -6.063    530.590    586.751    530.590    532.306    530.590
 27.970    690.000    644.035     45.965    530.246    642.143    530.246    532.103    530.246
 28.070    710.014    736.935    -26.921    529.903    734.857    529.903    531.918    529.903
 28.170    803.000    848.017    -45.017    529.559    845.735    529.559    531.754    529.559
 28.270    885.595    922.165    -36.570    529.215    919.677    529.215    531.614    529.215
 28.370    880.839    908.872    -28.034    528.871    906.179    528.871    531.502    528.871
 28.470    863.000    826.682     36.318    528.526    823.756    528.526    531.421    528.526
 28.570    755.000    741.906     13.094    528.182    738.700    528.182    531.373    528.182
 28.670    733.000    705.074     27.926    527.838    701.536    527.838    531.363    527.838
 28.770    752.000    725.655     26.345    527.493    721.738    527.493    531.392    527.493
 28.870    822.000    778.008     43.992    527.149    773.676    527.149    531.461    527.149
 28.970    813.000    815.273     -2.273    526.805    810.498    526.805    531.567    526.805
 29.070    766.000    799.665    -33.665    526.460    794.423    526.460    531.704    526.460
 29.170    729.000    738.391     -9.391    526.116    732.659    526.116    531.860    526.116
 29.270    686.000    666.678     19.322    525.772    660.451    525.772    532.013    525.772
 29.370    580.000    610.623    -30.623    525.429    603.926    525.429    532.136    525.429
 29.470    606.000    576.633     29.367    525.085    569.531    525.085    532.192    525.085
 29.570    592.000    559.343     32.657    524.741    551.942    524.741    532.146    524.741
 29.670    546.000    551.175     -5.175    524.398    543.611    524.398    531.964    524.398
 29.770    580.000    546.995     33.005    524.055    539.424    524.055    531.628    524.055
 29.870    503.422    544.386    -40.964    523.713    536.964    523.713    531.136    523.713
 29.970    599.000    542.461     56.539    523.370    535.324    523.370    530.508    523.370
 30.070    546.000    540.947      5.053    523.028    534.201    523.028    529.774    523.028
 30.170    571.651    539.808     31.843    522.687    533.522    522.687    528.972    522.687
 30.270    503.087    539.171    -36.084    522.345    533.377    522.345    528.138    522.345
 30.370    540.000    539.439      0.561    522.004    534.141    522.004    527.300    522.004
 30.470    564.000    541.507     22.493    521.664    536.687    521.664    526.480    521.664
 30.570    586.000    546.846     39.154    521.324    542.470    521.324    525.690    521.324
 30.670    534.217    556.985    -22.768    520.984    553.013    520.984    524.938    520.984
 30.770    575.890    572.063      3.827    520.645    568.453    520.645    524.227    520.645
 30.870    606.000    588.825     17.175    520.307    585.536    520.307    523.555    520.307
 30.970    644.000    599.725     44.275    519.969    596.727    519.969    522.922    519.969
 31.070    644.000    597.536     46.464    519.631    594.804    519.631    522.323    519.631
 31.170    592.335    583.397      8.938    519.294    580.905    519.294    521.756    519.294
 31.270    617.000    565.195     51.805    518.958    562.916    518.958    521.217    518.958
 31.370    565.000    549.613     15.387    518.622    547.521    518.622    520.703    518.622
 31.470    531.628    539.064     -7.436    518.287    537.134    518.287    520.211    518.287
 31.570    500.860    532.977    -32.116    517.953    531.187    517.953    519.739    517.953
 31.670    512.000    529.755    -17.755    517.619    528.089    517.619    519.284    517.619
 31.770    514.493    528.030    -13.538    517.286    526.471    517.286    518.843    517.286
 31.870    511.000    527.009    -16.009    516.954    525.546    516.954    518.416    516.954
 31.970    488.000    526.338    -38.338    516.622    524.959    516.622    518.000    516.622
 32.070    548.000    525.878     22.122    516.292    524.575    516.292    517.594    516.292
 32.170    534.000    525.581      8.419    515.962    524.346    515.962    517.197    515.962
 32.270    543.000    525.429     17.571    515.633    524.253    515.633    516.807    515.633
 32.370    542.000    525.418     16.582    515.304    524.297    515.304    516.425    515.304
 32.470    512.806    525.558    -12.752    514.977    524.486    514.977    516.048    514.977
 32.570    549.000    525.866     23.134    514.650    524.838    514.650    515.678    514.650
 32.670    531.000    526.371      4.629    514.324    525.383    514.324    515.312    514.324
 32.770    545.000    527.118     17.882    513.999    526.166    513.999    514.951    513.999
 32.870    521.000    528.170     -7.170    513.675    527.251    513.675    514.594    513.675
 32.970    577.000    529.623     47.377    513.352    528.733    513.352    514.241    513.352
 33.070    564.000    531.627     32.373    513.030    530.764    513.030    513.892    513.030
 33.170    504.456    534.459    -30.003    512.709    533.621    512.709    513.545    512.709
 33.270    544.000    538.730      5.270    512.389    537.914    512.389    513.202    512.389
 33.370    550.300    545.882      4.418    512.070    545.086    512.070    512.862    512.070
 33.470    591.510    559.143     32.368    511.752    558.363    511.752    512.525    511.752
 33.570    541.114    584.597    -43.482    511.435    583.830    511.435    512.190    511.435
 33.670    637.000    631.052      5.948    511.119    630.294    511.119    511.858    511.119
 33.770    741.000    706.598     34.402    510.804    705.844    510.804    511.528    510.804
 33.870    809.000    810.861     -1.861    510.490    810.110    510.490    511.201    510.490
 33.970    929.291    924.793      4.498    510.178    924.049    510.178    510.876    510.178
 34.070   1041.000   1005.645     35.355    509.866   1004.919    509.866    510.553    509.866
 34.170   1033.000   1008.528     24.472    509.555   1007.831    509.555    510.231    509.555
 34.270    957.145    931.203     25.942    509.246    930.533    509.246    509.912    509.246
 34.370    860.847    817.098     43.750    508.938    816.445    508.938    509.595    508.938
 34.470    750.332    710.507     39.825    508.631    709.864    508.631    509.280    508.631
 34.570    591.000    632.114    -41.114    508.325    631.477    508.325    508.967    508.325
 34.670    566.000    583.214    -17.214    508.021    582.582    508.021    508.656    508.021
 34.770    547.745    555.977     -8.231    507.717    555.349    507.717    508.346    507.717
 34.870    554.000    541.459     12.541    507.415    540.836    507.415    508.038    507.415
 34.970    489.658    533.348    -43.690    507.114    532.730    507.114    507.732    507.114
 35.070    484.006    528.255    -44.249    506.815    527.641    506.815    507.428    506.815
 35.170    521.170    524.651     -3.481    506.517    524.042    506.517    507.126    506.517
 35.270    527.155    521.893      5.262    506.220    521.287    506.220    506.825    506.220
 35.370    480.000    519.689    -39.689    505.924    519.087    505.924    506.526    505.924
 35.470    519.000    517.880      1.120    505.630    517.281    505.630    506.229    505.630
 35.570    572.000    516.368     55.632    505.337    515.771    505.337    505.933    505.337
 35.670    476.000    515.082    -39.082    505.045    514.487    505.045    505.639    505.045
 35.770    460.000    513.972    -53.972    504.755    513.380    504.755    505.347    504.755
 35.870    548.000    513.003     34.997    504.466    512.413    504.466    505.056    504.466
 35.970    493.295    512.148    -18.853    504.178    511.559    504.178    504.768    504.178
 36.070    507.000    511.386     -4.386    503.892    510.798    503.892    504.480    503.892
 36.170    533.000    510.702     22.298    503.607    510.115    503.607    504.195    503.607
 36.270    444.000    510.085    -66.085    503.324    509.498    503.324    503.911    503.324
 36.370    520.000    509.527     10.473    503.042    508.940    503.042    503.629    503.042
 36.470    531.924    509.021     22.902    502.762    508.435    502.762    503.349    502.762
 36.570    523.000    508.565     14.435    502.483    507.978    502.483    503.070    502.483
 36.670    503.000    508.159     -5.159    502.206    507.572    502.206    502.793    502.206
 36.770    524.000    507.806     16.194    501.930    507.218    501.930    502.518    501.930
 36.870    517.000    507.521      9.479    501.655    506.932    501.655    502.244    501.655
 36.970    503.000    507.340     -4.340    501.382    506.750    501.382    501.973    501.382
 37.070    535.464    507.343     28.121    501.111    506.752    501.111    501.702    501.111
 37.170    540.969    507.678     33.291    500.841    507.085    500.841    501.434    500.841
 37.270    506.000    508.568     -2.568    500.572    507.973    500.572    501.167    500.572
 37.370    522.000    510.246     11.754    500.306    509.650    500.306    500.903    500.306
 37.470    545.397    512.807     32.590    500.040    512.210    500.040    500.639    500.040
 37.570    517.000    515.989      1.011    499.777    515.391    499.777    500.378    499.777
 37.670    520.000    518.936      1.064    499.514    518.337    499.514    500.118    499.514
 37.770    512.000    520.266     -8.266    499.254    519.666    499.254    499.861    499.254
 37.870    528.000    519.153      8.847    498.995    518.552    498.995    499.604    498.995
 37.970    521.000    516.314      4.686    498.737    515.711    498.737    499.350    498.737
 38.070    505.000    512.961     -7.961    498.482    512.356    498.482    499.098    498.482
 38.170    496.271    509.817    -13.546    498.228    509.208    498.228    498.847    498.228
 38.270    518.319    507.204     11.116    497.975    506.589    497.975    498.598    497.975
 38.370    493.986    505.216    -11.230    497.724    504.596    497.724    498.351    497.724
 38.470    507.000    503.794      3.206    497.475    503.168    497.475    498.106    497.475
 38.570    523.000    502.800     20.200    497.227    502.168    497.227    497.862    497.227
 38.670    542.386    502.093     40.293    496.982    501.456    496.982    497.621    496.982
 38.770    482.000    501.568    -19.568    496.737    500.926    496.737    497.381    496.737
 38.870    473.000    501.150    -28.150    496.495    500.503    496.495    497.143    496.495
 38.970    511.000    500.797     10.203    496.254    500.145    496.254    496.907    496.254
 39.070    546.000    500.483     45.517    496.015    499.826    496.015    496.673    496.015
 39.170    540.808    500.195     40.612    495.777    499.533    495.777    496.441    495.777
 39.270    442.000    499.928    -57.928    495.542    499.260    495.542    496.210    495.542
 39.370    502.000    499.676      2.324    495.307    499.002    495.307    495.982    495.307
 39.470    505.401    499.439      5.962    495.075    498.759    495.075    495.755    495.075
 39.570    507.000    499.213      7.787    494.845    498.528    494.845    495.531    494.845
 39.670    486.973    499.000    -12.027    494.616    498.308    494.616    495.308    494.616
 39.770    518.000    498.798     19.202    494.389    498.099    494.389    495.087    494.389
 39.870    506.000    498.606      7.394    494.163    497.901    494.163    494.869    494.163
 39.970    463.000    498.425    -35.425    493.940    497.713    493.940    494.652    493.940
 40.070    465.000    498.255    -33.255    493.718    497.536    493.718    494.437    493.718
 40.170    495.000    498.096     -3.096    493.498    497.370    493.498    494.224    493.498
 40.270    461.272    497.950    -36.678    493.279    497.216    493.279    494.014    493.279
 40.370    482.258    497.816    -15.558    493.063    497.075    493.063    493.805    493.063
 40.470    477.000    497.697    -20.697    492.848    496.947    492.848    493.598    492.848
 40.570    479.000    497.593    -18.593    492.635    496.836    492.635    493.394    492.635
 40.670    494.742    497.508     -2.765    492.424    496.742    492.424    493.191    492.424
 40.770    454.000    497.443    -43.443    492.214    496.668    492.214    492.990    492.214
 40.870    488.000    497.401     -9.401    492.007    496.617    492.007    492.792    492.007
 40.970    476.000    497.388    -21.388    491.801    496.595    491.801    492.596    491.801
 41.070    448.000    497.409    -49.409    491.597    496.605    491.597    492.401    491.597
 41.170    523.367    497.469     25.897    491.395    496.656    491.395    492.209    491.395
 41.270    470.000    497.580    -27.580    491.194    496.757    491.194    492.019    491.194
 41.370    500.330    497.754      2.576    490.996    496.921    490.996    491.831    490.996
 41.470    461.075    498.009    -36.934    490.799    497.165    490.799    491.646    490.799
 41.570    506.014    498.372      7.642    490.604    497.516    490.604    491.462    490.604
 41.670    527.379    498.890     28.489    490.411    498.023    490.411    491.281    490.411
 41.770    519.000    499.657     19.343    490.220    498.778    490.220    491.102    490.220
 41.870    457.431    500.873    -43.441    490.031    499.982    490.031    490.925    490.031
 41.970    464.000    502.954    -38.954    489.843    502.051    489.843    490.751    489.843
 42.070    493.675    506.678    -13.004    489.657    505.763    489.657    490.579    489.657
 42.170    496.504    513.269    -16.765    489.474    512.343    489.474    490.409    489.474
 42.270    486.252    524.225    -37.973    489.292    523.289    489.292    490.241    489.292
 42.370    522.000    540.702    -18.702    489.111    539.759    489.111    490.076    489.111
 42.470    579.497    562.471     17.026    488.933    561.524    488.933    489.913    488.933
 42.570    522.000    586.676    -64.676    488.757    585.727    488.757    489.753    488.757
 42.670    596.696    606.896    -10.201    488.582    605.944    488.582    489.595    488.582
 42.770    622.000    614.489      7.511    488.409    613.527    488.409    489.439    488.409
 42.870    574.000    605.150    -31.150    488.238    604.167    488.238    489.286    488.238
 42.970    562.000    583.890    -21.890    488.069    582.877    488.069    489.136    488.069
 43.070    568.000    559.426      8.574    487.902    558.381    487.902    488.988    487.902
 43.170    508.000    537.862    -29.862    487.737    536.784    487.737    488.843    487.737
 43.270    563.288    521.733     41.555    487.574    520.625    487.574    488.700    487.574
 43.370    476.000    511.069    -35.069    487.412    509.933    487.412    488.560    487.412
 43.470    487.000    504.630    -17.630    487.252    503.466    487.252    488.423    487.252
 43.570    516.000    500.918     15.082    487.095    499.729    487.095    488.289    487.095
 43.670    505.000    498.749      6.251    486.939    497.535    486.939    488.157    486.939
 43.770    492.000    497.389     -5.389    486.785    496.148    486.785    488.029    486.785
 43.870    449.000    496.450    -47.450    486.633    495.182    486.633    487.903    486.633
 43.970    496.000    495.748      0.252    486.482    494.451    486.482    487.781    486.482
 44.070    523.000    495.197     27.803    486.334    493.871    486.334    487.662    486.334
 44.170    493.000    494.753     -1.753    486.187    493.397    486.187    487.546    486.187
 44.270    524.000    494.392     29.608    486.043    493.004    486.043    487.433    486.043
 44.370    483.829    494.097    -10.268    485.900    492.675    485.900    487.323    485.900
 44.470    504.000    493.855     10.145    485.759    492.397    485.759    487.218    485.759
 44.570    499.000    493.657      5.343    485.620    492.163    485.620    487.115    485.620
 44.670    530.611    493.498     37.113    485.483    491.965    485.483    487.017    485.483
 44.770    492.478    493.372     -0.894    485.347    491.798    485.347    486.922    485.347
 44.870    501.000    493.276      7.724    485.214    491.659    485.214    486.832    485.214
 44.970    527.000    493.208     33.792    485.082    491.545    485.082    486.745    485.082
 45.070    512.200    493.164     19.036    484.953    491.454    484.953    486.663    484.953
 45.170    495.000    493.146      1.854    484.825    491.385    484.825    486.586    484.825
 45.270    514.060    493.151     20.909    484.699    491.337    484.699    486.513    484.699
 45.370    521.702    493.179     28.523    484.575    491.309    484.575    486.446    484.575
 45.470    468.000    493.232    -25.232    484.452    491.301    484.452    486.384    484.452
 45.570    521.000    493.308     27.692    484.332    491.314    484.332    486.327    484.332
 45.670    487.000    493.410     -6.410    484.213    491.348    484.213    486.276    484.213
 45.770    460.237    493.540    -33.303    484.097    491.405    484.097    486.232    484.097
 45.870    481.416    493.698    -12.282    483.982    491.486    483.982    486.194    483.982
 45.970    520.000    493.888     26.112    483.869    491.593    483.869    486.164    483.869
 46.070    502.000    494.113      7.887    483.758    491.730    483.758    486.141    483.758
 46.170    457.344    494.378    -37.034    483.649    491.900    483.649    486.127    483.649
 46.270    489.249    494.687     -5.438    483.541    492.107    483.541    486.122    483.541
 46.370    477.000    495.048    -18.048    483.436    492.357    483.436    486.126    483.436
 46.470    520.000    495.468     24.532    483.332    492.659    483.332    486.141    483.332
 46.570    550.000    495.962     54.038    483.230    493.024    483.230    486.168    483.230
 46.670    470.000    496.544    -26.544    483.130    493.467    483.130    486.207    483.130
 46.770    528.000    497.245     30.755    483.032    494.015    483.032    486.261    483.032
 46.870    526.000    498.116     27.884    482.935    494.719    482.935    486.331    482.935
 46.970    458.120    499.259    -41.139    482.841    495.680    482.841    486.418    482.841
 47.070    514.796    500.877     13.919    482.748    497.097    482.748    486.526    482.748
 47.170    527.000    503.331     23.669    482.657    499.329    482.657    486.656    482.657
 47.270    526.000    507.188     18.812    482.568    502.939    482.568    486.811    482.568
 47.370    503.000    513.188    -10.188    482.481    508.663    482.481    486.996    482.481
 47.470    507.371    522.045    -14.674    482.395    517.210    482.395    487.214    482.395
 47.570    507.000    534.068    -27.068    482.312    528.884    482.312    487.470    482.312
 47.670    551.000    548.655      2.345    482.230    543.081    482.230    487.770    482.230
 47.770    536.000    563.803    -27.803    482.150    557.788    482.150    488.121    482.150
 47.870    592.000    575.890     16.110    482.072    569.382    482.072    488.529    482.072
 47.970    585.000    580.737      4.263    481.995    573.677    481.995    489.004    481.995
 48.070    568.617    576.636     -8.019    481.920    568.957    481.920    489.554    481.920
 48.170    535.000    566.151    -31.151    481.847    557.773    481.847    490.189    481.847
 48.270    565.000    553.664     11.336    481.776    544.492    481.776    490.921    481.776
 48.370    531.297    542.535    -11.238    481.707    532.464    481.707    491.761    481.707
 48.470    498.644    534.463    -35.819    481.639    523.374    481.639    492.718    481.639
 48.570    579.000    529.852     49.148    481.574    517.615    481.574    493.804    481.574
 48.670    497.733    528.324    -30.591    481.509    514.805    481.509    495.026    481.509
 48.770    518.000    529.210    -11.210    481.447    514.270    481.447    496.386    481.447
 48.870    550.429    531.911     18.518    481.387    515.418    481.387    497.881    481.387
 48.970    491.000    536.052    -45.052    481.328    517.889    481.328    499.493    481.328
 49.070    526.000    541.543    -15.543    481.271    521.627    481.271    501.189    481.271
 49.170    557.547    548.703      8.845    481.215    527.006    481.215    502.915    481.215
 49.270    573.676    558.652     15.024    481.162    535.230    481.162    504.586    481.162
 49.370    597.000    574.341     22.659    481.110    549.357    481.110    506.095    481.110
 49.470    631.000    602.493     28.507    481.059    576.237    481.059    507.313    481.059
 49.570    624.000    656.171    -32.171    481.011    629.053    481.011    508.115    481.011
 49.670    781.375    756.161     25.214    480.964    728.686    480.964    508.407    480.964
 49.770    961.935    927.661     34.273    480.919    900.373    480.919    508.149    480.919
 49.870   1270.000   1189.002     80.998    480.876   1162.414    480.876    507.371    480.876
 49.970   1505.903   1533.675    -27.772    480.834   1508.229    480.834    506.161    480.834
 50.070   1907.821   1913.741     -5.920    480.794   1889.771    480.794    504.643    480.794
 50.170   2270.000   2236.156     33.844    480.755   2213.885    480.755    502.944    480.755
 50.270   2374.000   2387.805    -13.805    480.719   2367.347    480.719    501.178    480.719
 50.370   2360.000   2303.514     56.486    480.684   2284.872    480.684    499.431    480.684
 50.470   2068.000   2022.101     45.899    480.650   2005.169    480.650    497.761    480.650
 50.570   1606.075   1650.420    -44.345    480.618   1635.034    480.618    496.206    480.618
 50.670   1300.933   1291.746      9.187    480.588   1277.734    480.588    494.784    480.588
 50.770    948.000   1008.531    -60.531    480.560    995.735    480.560    493.501    480.560
 50.870    838.743    818.535     20.208    480.533    806.819    480.533    492.355    480.533
 50.970    754.760    708.351     46.409    480.508    697.595    480.508    491.339    480.508
 51.070    683.000    651.706     31.294    480.484    641.803    480.484    490.443    480.484
 51.170    602.000    623.321    -21.321    480.462    614.172    480.462    489.657    480.462
 51.270    644.000    605.688     38.312    480.441    597.199    480.441    488.970    480.441
 51.370    582.511    590.352     -7.841    480.423    582.437    480.423    488.371    480.423
 51.470    554.000    575.403    -21.403    480.405    567.986    480.405    487.850    480.405
 51.570    557.565    561.645     -4.080    480.390    554.659    480.390    487.397    480.390
 51.670    552.000    550.142      1.858    480.375    543.529    480.375    487.005    480.375
 51.770    578.715    541.418     37.297    480.363    535.128    480.363    486.665    480.363
 51.870    551.980    535.431     16.548    480.352    529.422    480.352    486.371    480.352
 51.970    556.000    531.808     24.192    480.342    526.040    480.342    486.118    480.342
 52.070    532.000    530.057      1.943    480.334    524.498    480.334    485.900    480.334
 52.170    542.000    529.771     12.229    480.328    524.391    480.328    485.713    480.328
 52.270    514.740    530.731    -15.991    480.323    525.505    480.323    485.555    480.323
 52.370    563.843    532.979     30.864    480.319    527.883    480.319    485.421    480.319
 52.470    508.768    536.912    -28.144    480.318    531.925    480.318    485.309    480.318
 52.570    548.000    543.485      4.515    480.317    538.588    480.317    485.218    480.317
 52.670    560.000    554.516      5.484    480.318    549.693    480.318    485.145    480.318
 52.770    590.000    573.024     16.976    480.321    568.259    480.321    485.090    480.321
 52.870    623.000    603.327     19.673    480.325    598.606    480.325    485.050    480.325
 52.970    622.000    650.531    -28.531    480.330    645.841    480.330    485.025    480.330
 53.070    751.000    719.083     31.917    480.337    714.413    480.337    485.013    480.337
 53.170    814.000    810.408      3.592    480.345    805.747    480.345    485.015    480.345
 53.270    911.613    920.069     -8.457    480.355    915.408    480.355    485.030    480.355
 53.370   1051.068   1035.047     16.020    480.366   1030.378    480.366    485.058    480.366
 53.470   1167.936   1132.316     35.621    480.379   1127.631    480.379    485.097    480.379
 53.570   1211.225   1183.274     27.952    480.393   1178.564    480.393    485.148    480.393
 53.670   1084.000   1169.201    -85.201    480.408   1164.454    480.408    485.211    480.408
 53.770   1134.716   1096.064     38.652    480.425   1091.263    480.425    485.285    480.425
 53.870    986.000    989.048     -3.048    480.443    984.175    480.443    485.371    480.443
 53.970    847.000    875.229    -28.229    480.463    870.269    480.463    485.469    480.463
 54.070    770.000    773.335     -3.335    480.484    768.276    480.484    485.580    480.484
 54.170    686.000    692.473     -6.473    480.506    687.305    480.506    485.702    480.506
 54.270    672.640    634.275     38.364    480.530    628.987    480.530    485.837    480.530
 54.370    630.000    595.736     34.264    480.554    590.319    480.554    485.986    480.554
 54.470    533.000    571.927    -38.927    480.581    566.370    480.581    486.148    480.581
 54.570    602.603    557.986     44.616    480.608    552.278    480.608    486.325    480.608
 54.670    546.593    550.146     -3.552    480.637    544.273    480.637    486.516    480.637
 54.770    503.204    545.924    -42.720    480.667    539.873    480.667    486.724    480.667
 54.870    592.000    543.888     48.112    480.699    537.644    480.699    486.948    480.699
 54.970    530.000    543.294    -13.294    480.731    536.839    480.731    487.191    480.731
 55.070    513.670    543.791    -30.121    480.765    537.109    480.765    487.453    480.765
 55.170    550.000    545.244      4.756    480.800    538.314    480.800    487.735    480.800
 55.270    580.000    547.629     32.371    480.837    540.431    480.837    488.040    480.837
 55.370    532.796    551.007    -18.211    480.875    543.517    480.875    488.369    480.875
 55.470    606.000    555.527     50.473    480.913    547.721    480.913    488.725    480.913
 55.570    552.000    561.481     -9.481    480.953    553.330    480.953    489.109    480.953
 55.670    576.000    569.450      6.550    480.995    560.924    480.995    489.526    480.995
 55.770    558.000    580.606    -22.606    481.037    571.671    481.037    489.977    481.037
 55.870    596.092    597.269     -1.178    481.081    587.886    481.081    490.467    481.081
 55.970    602.000    623.766    -21.766    481.126    613.890    481.126    491.000    481.126
 56.070    612.000    667.441    -55.441    481.172    657.023    481.172    491.582    481.172
 56.170    732.000    739.328     -7.328    481.219    728.312    481.219    492.219    481.219
 56.270    779.000    853.556    -74.556    481.267    841.881    481.267    492.918    481.267
 56.370   1002.000   1024.465    -22.465    481.316   1012.064    481.316    493.687    481.316
 56.470   1212.314   1261.039    -48.725    481.367   1247.841    481.367    494.537    481.367
 56.570   1524.442   1559.575    -35.133    481.418   1545.506    481.418    495.478    481.418
 56.670   1804.000   1896.638    -92.638    481.471   1881.616    481.471    496.526    481.471
 56.770   2248.000   2224.388     23.612    481.525   2208.321    481.525    497.694    481.525
 56.870   2396.000   2472.153    -76.153    481.580   2454.922    481.580    499.002    481.580
 56.970   2504.000   2566.019    -62.019    481.636   2547.464    481.636    500.469    481.636
 57.070   2424.000   2472.642    -48.642    481.693   2452.544    481.693    502.118    481.693
 57.170   2256.853   2226.731     30.122    481.751   2204.839    481.751    503.974    481.751
 57.270   1903.000   1902.716      0.284    481.810   1878.757    481.810    506.066    481.810
 57.370   1636.000   1571.043     64.957    481.870   1544.734    481.870    508.423    481.870
 57.470   1240.000   1279.102    -39.102    481.931   1250.141    481.931    511.077    481.931
 57.570   1011.707   1049.968    -38.261    481.993   1018.033    481.993    514.060    481.993
 57.670    901.000    887.226     13.774    482.056    851.967    482.056    517.406    482.056
 57.770    867.000    782.153     84.847    482.120    743.189    482.120    521.145    482.120
 57.870    738.000    721.188     16.812    482.184    678.110    482.184    525.304    482.184
 57.970    706.838    691.639     15.199    482.250    644.015    482.250    529.903    482.250
 58.070    682.000    684.643     -2.643    482.317    632.034    482.317    534.947    482.317
 58.170    697.000    695.673      1.327    482.385    637.649    482.385    540.420    482.385
 58.270    729.280    723.467      5.813    482.453    659.648    482.453    546.277    482.453
 58.370    739.000    768.262    -29.262    482.523    698.355    482.523    552.427    482.523
 58.470    871.078    829.908     41.169    482.593    753.773    482.593    558.719    482.593
 58.570    948.074    906.233     41.842    482.665    823.948    482.665    564.936    482.665
 58.670    968.680    991.910    -23.230    482.737    903.849    482.737    570.784    482.737
 58.770   1023.281   1078.624    -55.343    482.810    985.515    482.810    575.911    482.810
 58.870   1162.731   1157.327      5.404    482.884   1060.276    482.884    579.938    482.884
 58.970   1154.000   1220.649    -66.649    482.958   1121.103    482.958    582.522    482.958
 59.070   1287.000   1262.350     24.650    483.034   1161.995    483.034    583.421    483.034
 59.170   1302.000   1276.604     25.396    483.110   1177.206    483.110    582.552    483.110
 59.270   1264.983   1261.862      3.121    483.187   1165.088    483.187    580.012    483.187
 59.370   1255.132   1225.333     29.798    483.265   1132.592    483.265    576.054    483.265
 59.470   1333.000   1180.683    152.317    483.343   1093.029    483.343    571.027    483.343
 59.570   1238.000   1141.991     96.009    483.423   1060.105    483.423    565.309    483.423
 59.670   1238.000   1120.944    117.056    483.503   1045.160    483.503    559.250    483.503
 59.770   1173.000   1127.243     45.757    483.584   1057.607    483.584    553.137    483.584
 59.870   1187.000   1167.617     19.383    483.665   1103.969    483.665    547.184    483.665
 59.970   1280.000   1241.845     38.155    483.748   1183.885    483.748    541.535    483.748
 60.070   1323.000   1339.146    -16.146    483.830   1286.492    483.830    536.277    483.830
 60.170   1475.000   1437.541     37.459    483.914   1389.780    483.914    531.455    483.914
 60.270   1466.712   1506.916    -40.204    483.998   1463.622    483.998    527.080    483.998
 60.370   1505.000   1518.288    -13.288    484.083   1479.043    484.083    523.147    484.083
 60.470   1395.000   1459.173    -64.173    484.169   1423.568    484.169    519.636    484.169
 60.570   1413.000   1341.758     71.242    484.255   1309.397    484.255    516.519    484.255
 60.670   1251.150   1193.305     57.845    484.342   1163.819    484.342    513.767    484.342
 60.770   1095.217   1041.313     53.904    484.430   1014.361    484.430    511.346    484.430
 60.870    922.000    905.850     16.150    484.518    881.125    484.518    509.223    484.518
 60.970    804.000    797.978      6.022    484.606    775.207    484.606    507.368    484.606
 61.070    728.000    720.975      7.025    484.695    699.914    484.695    505.749    484.695
 61.170    732.000    673.039     58.961    484.785    653.478    484.785    504.339    484.785
 61.270    665.000    650.521     14.479    484.875    632.273    484.875    503.110    484.875
 61.370    638.745    650.570    -11.825    484.966    633.478    484.966    502.040    484.966
 61.470    620.331    672.547    -52.215    485.058    656.470    485.058    501.104    485.058
 61.570    668.929    717.857    -48.928    485.150    702.680    485.150    500.281    485.150
 61.670    790.000    788.453      1.547    485.242    774.076    485.242    499.553    485.242
 61.770    832.000    884.501    -52.501    485.335    870.846    485.335    498.901    485.335
 61.870   1001.672   1001.847     -0.175    485.428    988.851    485.428    498.311    485.428
 61.970   1086.000   1130.017    -44.017    485.522   1117.637    485.522    497.770    485.522
 62.070   1242.000   1251.342     -9.342    485.616   1239.549    485.616    497.269    485.616
 62.170   1350.000   1342.245      7.755    485.711   1331.021    485.711    496.800    485.711
 62.270   1308.000   1379.401    -71.401    485.806   1368.735    485.806    496.360    485.806
 62.370   1334.000   1351.386    -17.386    485.901   1341.265    485.901    495.947    485.901
 62.470   1279.940   1266.321     13.620    485.997   1256.720    485.997    495.560    485.997
 62.570   1119.000   1146.102    -27.102    486.093   1136.987    486.093    495.200    486.093
 62.670    999.000   1014.684    -15.684    486.190   1006.017    486.190    494.868    486.190
 62.770    866.000    890.849    -24.849    486.287    882.594    486.287    494.562    486.287
 62.870    767.000    786.127    -19.127    486.384    778.251    486.384    494.283    486.384
 62.970    634.000    705.199    -71.199    486.481    697.671    486.481    494.030    486.481
 63.070    660.601    647.476     13.125    486.579    640.269    486.579    493.801    486.579
 63.170    675.000    609.230     65.770    486.678    602.320    486.678    493.596    486.678
 63.270    612.240    585.657     26.583    486.776    579.024    486.776    493.414    486.776
 63.370    576.000    572.374      3.626    486.875    565.998    486.875    493.252    486.875
 63.470    550.514    566.211    -15.697    486.974    560.073    486.974    493.110    486.974
 63.570    556.000    565.438     -9.438    487.073    559.521    487.073    492.985    487.073
 63.670    552.000    569.670    -17.670    487.173    563.957    487.173    492.878    487.173
 63.770    559.000    579.633    -20.633    487.272    574.107    487.272    492.786    487.272
 63.870    589.000    596.848     -7.848    487.372    591.493    487.372    492.708    487.372
 63.970    626.000    623.200      2.800    487.473    618.000    487.473    492.643    487.473
 64.070    686.063    660.347     25.716    487.573    655.287    487.573    492.591    487.573
 64.170    747.000    708.972     38.028    487.673    704.038    487.673    492.550    487.673
 64.270    716.499    767.977    -51.478    487.774    763.159    487.774    492.519    487.774
 64.370    863.000    833.744     29.256    487.875    829.032    487.875    492.498    487.875
 64.470    928.085    899.630     28.455    487.976    895.020    487.976    492.486    487.976
 64.570    966.554    956.191     10.362    488.077    951.681    488.077    492.483    488.077
 64.670   1012.000    993.206     18.794    488.178    988.798    488.178    492.487    488.178
 64.770   1032.000   1003.727     28.273    488.279    999.424    488.279    492.498    488.279
 64.870   1052.000    987.224     64.776    488.381    983.026    488.381    492.517    488.381
 64.970    883.000    949.008    -66.008    488.482    944.912    488.482    492.541    488.482
 65.070    930.000    897.444     32.556    488.583    893.442    488.583    492.572    488.583
 65.170    846.000    841.182      4.818    488.685    837.266    488.685    492.608    488.685
 65.270    775.668    787.015    -11.347    488.786    783.174    488.786    492.650    488.786
 65.370    775.000    738.801     36.199    488.888    735.025    488.888    492.697    488.888
 65.470    745.986    697.725     48.261    488.989    694.003    488.989    492.748    488.989
 65.570    633.000    663.491    -30.491    489.091    659.814    489.091    492.805    489.091
 65.670    594.000    635.477    -41.477    489.192    631.837    489.192    492.865    489.192
 65.770    657.771    613.111     44.660    489.294    609.502    489.294    492.930    489.294
 65.870    640.000    595.778     44.222    489.395    592.195    489.395    492.999    489.395
 65.970    602.000    582.792     19.208    489.497    579.232    489.497    493.073    489.497
 66.070    607.000    573.485     33.515    489.598    569.944    489.598    493.150    489.598
 66.170    595.711    567.267     28.444    489.699    563.743    489.699    493.231    489.699
 66.270    609.484    563.654     45.830    489.800    560.145    489.800    493.316    489.800
 66.370    551.000    562.266    -11.266    489.901    558.769    489.901    493.404    489.901
 66.470    549.000    562.844    -13.844    490.002    559.355    490.002    493.496    490.002
 66.570    551.434    565.301    -13.867    490.103    561.818    490.103    493.592    490.103
 66.670    559.000    569.824    -10.824    490.203    566.342    490.203    493.692    490.203
 66.770    585.744    577.021      8.723    490.304    573.537    490.304    493.795    490.304
 66.870    583.388    588.153     -4.766    490.404    584.663    490.404    493.902    490.404
 66.970    579.000    605.437    -26.437    490.504    601.937    490.504    494.012    490.504
 67.070    690.000    632.382     57.618    490.604    628.868    490.604    494.127    490.604
 67.170    615.000    674.034    -59.034    490.703    670.502    490.703    494.245    490.703
 67.270    743.000    736.915      6.085    490.803    733.361    490.803    494.367    490.803
 67.370    824.000    828.414     -4.414    490.902    824.836    490.902    494.493    490.902
 67.470    940.303    955.427    -15.124    491.000    951.825    491.000    494.624    491.000
 67.570   1092.000   1122.272    -30.272    491.099   1118.648    491.099    494.758    491.099
 67.670   1318.146   1328.167    -10.021    491.197   1324.524    491.197    494.898    491.197
 67.770   1594.000   1564.798     29.202    491.295   1561.144    491.295    495.042    491.295
 67.870   1813.000   1814.518     -1.518    491.393   1810.860    491.393    495.190    491.393
 67.970   2112.928   2049.696     63.232    491.490   2046.041    491.490    495.345    491.490
 68.070   2303.864   2234.643     69.221    491.587   2230.994    491.587    495.504    491.587
 68.170   2368.767   2333.154     35.613    491.684   2329.505    491.684    495.670    491.684
 68.270   2351.000   2322.522     28.478    491.780   2318.851    491.780    495.841    491.780
 68.370   2186.653   2205.496    -18.843    491.876   2201.768    491.876    496.019    491.876
 68.470   2019.829   2008.597     11.232    491.972   2004.772    491.972    496.205    491.972
 68.570   1796.000   1768.735     27.265    492.067   1764.778    492.067    496.398    492.067
 68.670   1559.000   1520.328     38.672    492.162   1516.213    492.162    496.599    492.162
 68.770   1291.000   1289.113      1.887    492.256   1284.824    492.256    496.808    492.256
 68.870   1102.000   1090.860     11.140    492.350   1086.388    492.350    497.027    492.350
 68.970    957.000    932.283     24.717    492.444    927.623    492.444    497.257    492.444
 69.070    824.000    812.997     11.003    492.537    808.147    492.537    497.498    492.537
 69.170    690.225    728.014    -37.788    492.629    722.970    492.629    497.751    492.629
 69.270    660.340    670.207     -9.868    492.721    664.966    492.721    498.017    492.721
 69.370    664.748    632.276     32.471    492.813    626.829    492.813    498.299    492.813
 69.470    574.795    607.942    -33.147    492.904    602.278    492.904    498.596    492.904
 69.570    580.000    592.434    -12.434    492.994    586.537    492.994    498.912    492.994
 69.670    571.000    582.462    -11.462    493.084    576.315    493.084    499.248    493.084
 69.770    580.000    575.940      4.060    493.174    569.519    493.174    499.608    493.174
 69.870    544.000    571.626    -27.626    493.263    564.908    493.263    499.992    493.263
 69.970    598.139    568.829     29.310    493.351    561.783    493.351    500.407    493.351
 70.070    568.000    567.182      0.818    493.439    559.775    493.439    500.854    493.439
 70.170    528.000    566.515    -38.515    493.526    558.707    493.526    501.341    493.526
 70.270    569.000    566.777      2.223    493.612    558.524    493.612    501.872    493.612
 70.370    581.000    568.028     12.972    493.698    559.276    493.698    502.455    493.698
 70.470    562.000    570.448     -8.448    493.783    561.137    493.783    503.099    493.783
 70.570    532.795    574.411    -41.616    493.868    564.468    493.868    503.814    493.868
 70.670    585.000    580.582      4.418    493.952    569.922    493.952    504.613    493.952
 70.770    588.509    590.069     -1.560    494.035    578.592    494.035    505.510    494.035
 70.870    650.862    604.600     46.263    494.118    592.188    494.118    506.523    494.118
 70.970    634.939    626.683      8.257    494.200    613.199    494.200    507.671    494.200
 71.070    675.744    659.674     16.071    494.281    644.957    494.281    508.977    494.281
 71.170    692.000    707.646    -15.646    494.361    691.511    494.361    510.465    494.361
 71.270    820.100    774.948     45.152    494.441    757.181    494.441    512.163    494.441
 71.370    860.000    865.396     -5.396    494.520    845.757    494.520    514.098    494.520
 71.470    933.890    981.139    -47.249    494.599    959.356    494.599    516.302    494.599
 71.570   1138.000   1121.359     16.641    494.676   1097.135    494.676    518.803    494.676
 71.670   1319.329   1281.063     38.266    494.753   1254.075    494.753    521.630    494.753
 71.770   1439.408   1450.189    -10.781    494.829   1420.091    494.829    524.808    494.829
 71.870   1548.442   1613.244    -64.803    494.904   1579.675    494.904    528.356    494.904
 71.970   1782.000   1750.016     31.984    494.978   1712.610    494.978    532.281    494.978
 72.070   1839.000   1838.666      0.334    495.052   1797.063    495.052    536.579    495.052
 72.170   1850.000   1862.302    -12.302    495.125   1816.162    495.125    541.221    495.125
 72.270   1853.399   1816.561     36.837    495.196   1765.597    495.196    546.153    495.196
 72.370   1696.034   1711.987    -15.953    495.267   1656.000    495.267    551.275    495.267
 72.470   1543.000   1568.641    -25.641    495.338   1507.579    495.338    556.440    495.338
 72.570   1357.244   1408.133    -50.889    495.407   1342.152    495.407    561.439    495.407
 72.670   1309.000   1248.505     60.495    495.475   1178.029    495.475    566.006    495.475
 72.770   1106.832   1102.466      4.366    495.543   1028.231    495.543    569.832    495.543
 72.870    957.000    977.365    -20.365    495.609    900.420    495.609    572.605    495.609
 72.970    837.000    875.903    -38.903    495.675    797.555    495.675    574.067    495.675
 73.070    823.897    797.258     26.639    495.740    718.962    495.740    574.074    495.740
 73.170    780.000    738.406     41.594    495.804    661.611    495.804    572.631    495.804
 73.270    693.376    695.362     -1.986    495.866    621.364    495.866    569.893    495.866
 73.370    668.849    664.143      4.705    495.928    593.973    495.928    566.123    495.928
 73.470    657.000    641.344     15.656    495.989    575.720    495.989    561.635    495.989
 73.570    639.000    624.371     14.629    496.049    563.705    496.049    556.736    496.049
 73.670    594.000    611.427    -17.427    496.108    555.867    496.108    551.688    496.108
 73.770    614.000    601.370     12.630    496.166    550.863    496.166    546.694    496.166
 73.870    595.175    593.523      1.652    496.223    547.868    496.223    541.900    496.223
 73.970    554.000    587.495    -33.495    496.278    546.398    496.278    537.399    496.278
 74.070    539.818    583.035    -43.218    496.333    546.150    496.333    533.245    496.333
 74.170    609.000    579.935     29.065    496.387    546.887    496.387    529.465    496.387
 74.270    589.037    577.950     11.086    496.440    548.363    496.440    526.062    496.440
 74.370    533.169    576.768    -43.599    496.491    550.272    496.491    523.027    496.491
 74.470    571.000    575.982     -4.982    496.542    552.229    496.542    520.340    496.542
 74.570    640.000    575.111     64.889    496.591    553.774    496.591    517.977    496.591
 74.670    586.739    573.677     13.062    496.640    554.459    496.640    515.909    496.640
 74.770    564.876    571.320     -6.444    496.687    553.952    496.687    514.107    496.687
 74.870    669.000    567.956    101.044    496.733    552.198    496.733    512.540    496.733
 74.970    568.484    563.812      4.673    496.778    549.455    496.778    511.180    496.778
 75.070    638.000    559.330     78.670    496.822    546.192    496.822    510.000    496.822
 75.170    594.282    555.032     39.250    496.865    542.955    496.865    508.975    496.865
 75.270    585.000    551.435     33.565    496.906    540.284    496.906    508.084    496.906
 75.370    585.000    549.036     35.964    496.947    538.697    496.947    507.305    496.947
 75.470    566.402    548.317     18.085    496.986    538.692    496.986    506.624    496.986
 75.570    532.000    549.757    -17.757    497.024    540.763    497.024    506.024    497.024
 75.670    520.383    553.818    -33.435    497.060    545.385    497.060    505.494    497.060
 75.770    564.000    560.917      3.083    497.096    552.983    497.096    505.024    497.096
 75.870    577.000    571.353      5.647    497.130    563.867    497.130    504.604    497.130
 75.970    540.000    585.214    -45.214    497.164    578.130    497.164    504.228    497.164
 76.070    608.000    602.261      5.739    497.196    595.541    497.196    503.888    497.196
 76.170    666.097    621.831     44.266    497.226    615.440    497.226    503.581    497.226
 76.270    659.000    642.747     16.253    497.256    636.658    497.256    503.302    497.256
 76.370    654.000    663.290     -9.290    497.284    657.477    497.284    503.048    497.284
 76.470    664.000    681.231    -17.231    497.311    675.674    497.311    502.815    497.311
 76.570    725.000    694.075     30.925    497.336    688.756    497.336    502.601    497.336
 76.670    702.000    699.618      2.382    497.360    694.522    497.360    502.405    497.360
 76.770    685.000    696.738    -11.738    497.384    691.851    497.384    502.223    497.384
 76.870    708.911    685.896     23.015    497.405    681.205    497.405    502.055    497.405
 76.970    687.000    668.904     18.096    497.426    664.398    497.426    501.899    497.426
 77.070    611.326    648.192    -36.865    497.445    643.857    497.445    501.753    497.445
 77.170    590.000    626.111    -36.111    497.462    621.935    497.462    501.618    497.462
 77.270    609.000    604.575      4.425    497.479    600.548    497.479    501.492    497.479
 77.370    538.372    584.945    -46.573    497.494    581.056    497.494    501.373    497.494
 77.470    555.000    568.031    -13.031    497.507    564.271    497.507    501.262    497.507
 77.570    510.000    554.163    -44.163    497.520    550.521    497.520    501.157    497.520
 77.670    556.000    543.284     12.716    497.531    539.754    497.531    501.059    497.531
 77.770    525.634    535.081     -9.447    497.540    531.654    497.540    500.966    497.540
 77.870    502.360    529.099    -26.739    497.548    525.770    497.548    500.878    497.548
 77.970    517.000    524.853     -7.853    497.555    521.613    497.555    500.794    497.555
 78.070    490.000    521.890    -31.890    497.561    518.736    497.561    500.715    497.561
 78.170    532.000    519.837     12.163    497.564    516.763    497.564    500.639    497.564
 78.270    558.849    518.410     40.439    497.567    515.411    497.567    500.567    497.567
 78.370    469.000    517.405    -48.405    497.568    514.476    497.568    500.498    497.568
 78.470    524.000    516.688      7.312    497.568    513.825    497.568    500.431    497.568
 78.570    530.000    516.177     13.823    497.566    513.375    497.566    500.368    497.566
 78.670    504.104    515.823    -11.720    497.563    513.080    497.563    500.307    497.563
 78.770    492.901    515.607    -22.706    497.558    512.918    497.558    500.248    497.558
 78.870    533.097    515.525     17.572    497.552    512.886    497.552    500.191    497.552
 78.970    484.000    515.584    -31.584    497.544    512.992    497.544    500.136    497.544
 79.070    527.088    515.803     11.286    497.535    513.255    497.535    500.083    497.535
 79.170    524.000    516.206      7.794    497.525    513.699    497.525    500.032    497.525
 79.270    513.153    516.824     -3.671    497.512    514.354    497.512    499.982    497.512
 79.370    499.000    517.693    -18.693    497.499    515.257    497.499    499.934    497.499
 79.470    501.000    518.852    -17.852    497.484    516.448    497.484    499.886    497.484
 79.570    545.000    520.351     24.649    497.467    517.976    497.467    499.840    497.467
 79.670    539.089    522.257     16.831    497.449    519.909    497.449    499.795    497.449
 79.770    497.000    524.658    -27.658    497.429    522.333    497.429    499.751    497.429
 79.870    543.740    527.647     16.092    497.408    525.345    497.408    499.708    497.408
 79.970    517.000    531.463    -14.463    497.386    529.181    497.386    499.665    497.386
 80.070    547.000    536.316     10.684    497.361    534.052    497.361    499.622    497.361
 80.170    540.000    542.493     -2.493    497.335    540.247    497.335    499.579    497.335
 80.270    548.000    550.359     -2.359    497.308    548.131    497.308    499.535    497.308
 80.370    557.000    560.317     -3.317    497.279    558.106    497.279    499.491    497.279
 80.470    572.000    572.726     -0.726    497.249    570.533    497.249    499.445    497.249
 80.570    585.000    587.799     -2.799    497.217    585.625    497.217    499.398    497.217
 80.670    590.000    605.498    -15.498    497.183    603.344    497.183    499.348    497.183
 80.770    657.122    625.457     31.665    497.148    623.326    497.148    499.295    497.148
 80.870    622.000    646.952    -24.952    497.111    644.845    497.111    499.239    497.111
 80.970    646.000    668.919    -22.919    497.073    666.839    497.073    499.180    497.073
 81.070    639.000    690.076    -51.076    497.033    688.025    497.033    499.118    497.033
 81.170    698.000    709.102    -11.102    496.991    707.082    496.991    499.054    496.991
 81.270    694.000    724.813    -30.813    496.948    722.825    496.948    498.986    496.948
 81.370    725.000    736.269    -11.269    496.903    734.312    496.903    498.917    496.903
 81.470    768.256    742.843     25.413    496.856    740.917    496.856    498.845    496.856
 81.570    705.473    744.280    -38.807    496.808    742.385    496.808    498.773    496.808
 81.670    725.962    740.693    -14.731    496.759    738.826    496.759    498.699    496.759
 81.770    777.475    732.484     44.991    496.707    730.644    496.707    498.624    496.707
 81.870    751.000    720.307     30.693    496.654    718.491    496.654    498.548    496.654
 81.970    729.000    705.077     23.923    496.600    703.282    496.600    498.472    496.600
 82.070    699.000    687.911     11.089    496.544    686.133    496.544    498.396    496.544
 82.170    680.121    669.919     10.201    496.486    668.158    496.486    498.319    496.486
 82.270    697.419    651.988     45.432    496.426    650.239    496.426    498.242    496.426
 82.370    615.000    634.671    -19.671    496.365    632.935    496.365    498.164    496.365
 82.470    603.548    618.274    -14.725    496.302    616.547    496.302    498.086    496.302
 82.570    601.063    602.986     -1.923    496.238    601.267    496.238    498.008    496.238
 82.670    606.308    589.012     17.296    496.172    587.299    496.172    497.929    496.172
 82.770    593.000    576.593     16.407    496.104    574.884    496.104    497.850    496.104
 82.870    521.000    565.966    -44.966    496.034    564.261    496.034    497.770    496.034
 82.970    589.000    557.323     31.677    495.963    555.618    495.963    497.689    495.963
 83.070    575.497    550.787     24.710    495.890    549.083    495.890    497.608    495.890
 83.170    584.077    546.413     37.664    495.816    544.708    495.816    497.526    495.816
 83.270    563.927    544.171     19.755    495.739    542.466    495.739    497.443    495.739
 83.370    538.000    543.944     -5.944    495.661    542.235    495.661    497.360    495.661
 83.470    533.000    545.507    -12.507    495.582    543.795    495.582    497.275    495.582
 83.570    541.000    548.529     -7.529    495.500    546.815    495.500    497.190    495.500
 83.670    514.207    552.573    -38.366    495.417    550.855    495.417    497.104    495.417
 83.770    551.071    557.102     -6.031    495.333    555.381    495.333    497.017    495.333
 83.870    577.000    561.506     15.494    495.246    559.781    495.246    496.929    495.246
 83.970    546.000    565.135    -19.135    495.158    563.408    495.158    496.840    495.158
 84.070    568.650    567.380      1.270    495.069    565.652    495.069    496.750    495.069
 84.170    579.000    567.785     11.215    494.977    566.057    494.977    496.658    494.977
 84.270    546.000    566.172    -20.172    494.884    564.445    494.884    496.566    494.884
 84.370    544.254    562.680    -18.426    494.789    560.955    494.789    496.473    494.789
 84.470    568.000    557.706     10.294    494.692    555.984    494.692    496.378    494.692
 84.570    533.000    551.770    -18.770    494.594    550.050    494.594    496.283    494.594
 84.670    530.000    545.396    -15.396    494.494    543.678    494.494    496.186    494.494
 84.770    551.000    539.047     11.953    494.392    537.329    494.392    496.088    494.392
 84.870    541.000    533.084      7.916    494.289    531.366    494.289    495.989    494.289
 84.970    520.000    527.761     -7.761    494.184    526.042    494.184    495.889    494.184
 85.070    481.000    523.226    -42.226    494.077    521.504    494.077    495.788    494.077
 85.170    549.000    519.531     29.469    493.968    517.805    493.968    495.685    493.968
 85.270    550.000    516.654     33.346    493.858    514.924    493.858    495.582    493.858
 85.370    488.000    514.527    -26.527    493.746    512.790    493.746    495.477    493.746
 85.470    532.869    513.055     19.814    493.632    511.310    493.632    495.372    493.632
 85.570    511.000    512.141     -1.141    493.517    510.388    493.517    495.265    493.517
 85.670    549.000    511.706     37.294    493.399    509.944    493.399    495.157    493.399
 85.770    530.000    511.696     18.304    493.281    509.923    493.281    495.048    493.281
 85.870    471.990    512.091    -40.101    493.160    510.307    493.160    494.938    493.160
 85.970    485.121    512.912    -27.791    493.038    511.115    493.038    494.826    493.038
 86.070    531.000    514.213     16.787    492.914    512.403    492.914    494.714    492.914
 86.170    551.690    516.090     35.600    492.788    514.265    492.788    494.601    492.788
 86.270    525.609    518.664      6.944    492.660    516.823    492.660    494.487    492.660
 86.370    553.213    522.077     31.135    492.531    520.218    492.531    494.371    492.531
 86.470    520.000    526.475     -6.475    492.400    524.596    492.400    494.255    492.400
 86.570    540.000    531.988      8.012    492.268    530.086    492.268    494.138    492.268
 86.670    526.221    538.701    -12.480    492.133    536.776    492.133    494.020    492.133
 86.770    526.446    546.633    -20.187    491.997    544.682    491.997    493.901    491.997
 86.870    526.000    555.696    -29.696    491.860    553.718    491.860    493.781    491.860
 86.970    589.000    565.680     23.320    491.720    563.672    491.720    493.660    491.720
 87.070    618.406    576.223     42.182    491.579    574.186    491.579    493.539    491.579
 87.170    571.828    586.810    -14.982    491.437    584.742    491.437    493.416    491.437
 87.270    656.000    596.773     59.227    491.292    594.676    491.292    493.294    491.292
 87.370    599.207    605.334     -6.127    491.146    603.208    491.146    493.170    491.146
 87.470    601.000    611.693    -10.693    490.998    609.541    490.998    493.046    490.998
 87.570    587.290    615.188    -27.898    490.848    613.012    490.848    492.921    490.848
 87.670    605.025    615.477    -10.451    490.697    613.279    490.697    492.795    490.697
 87.770    626.000    612.643     13.357    490.544    610.426    490.544    492.670    490.544
 87.870    620.000    607.164     12.836    490.390    604.929    490.390    492.543    490.390
 87.970    614.675    599.775     14.900    490.233    597.522    490.233    492.417    490.233
 88.070    575.748    591.319    -15.571    490.075    589.047    490.075    492.290    490.075
 88.170    626.000    582.633     43.367    489.916    580.341    489.916    492.163    489.916
 88.270    565.000    574.485     -9.485    489.754    572.170    489.754    492.036    489.754
 88.370    635.000    567.518     67.482    489.591    565.178    489.591    491.909    489.591
 88.470    593.000    562.221     30.779    489.427    559.853    489.427    491.783    489.427
 88.570    596.000    558.906     37.094    489.261    556.507    489.261    491.656    489.261
 88.670    556.000    557.703     -1.703    489.093    555.271    489.093    491.530    489.093
 88.770    515.000    558.564    -43.564    488.923    556.096    488.923    491.405    488.923
 88.870    592.669    561.273     31.396    488.752    558.767    488.752    491.280    488.752
 88.970    571.000    565.464      5.536    488.579    562.917    488.579    491.156    488.579
 89.070    534.325    570.641    -36.316    488.405    568.050    488.405    491.033    488.405
 89.170    624.000    576.204     47.796    488.228    573.566    488.228    490.912    488.228
 89.270    614.674    581.481     33.193    488.051    578.791    488.051    490.792    488.051
 89.370    575.000    585.774    -10.774    487.871    583.029    487.871    490.675    487.871
 89.470    599.000    588.445     10.555    487.690    585.639    487.690    490.560    487.690
 89.570    571.000    589.021    -18.021    487.508    586.148    487.508    490.447    487.508
 89.670    617.829    587.307     30.522    487.324    584.360    487.324    490.338    487.324
 89.770    625.312    583.421     41.891    487.138    580.393    487.138    490.232    487.138
 89.870    565.000    577.742    -12.742    486.951    574.625    486.951    490.130    486.951
 89.970    573.766    570.793      2.973    486.762    567.579    486.762    490.033    486.762
 90.070    546.000    563.130    -17.130    486.571    559.810    486.571    489.942    486.571
 90.170    524.814    555.263    -30.450    486.379    551.831    486.379    489.857    486.379
 90.270    571.000    547.624     23.376    486.185    544.069    486.185    489.779    486.185
 90.370    536.000    540.543     -4.543    485.990    536.856    485.990    489.709    485.990
 90.470    535.000    534.249      0.751    485.794    530.421    485.794    489.648    485.794
 90.570    571.400    528.875     42.525    485.595    524.895    485.595    489.596    485.595
 90.670    482.167    524.470    -42.303    485.395    520.325    485.395    489.556    485.395
 90.770    555.785    521.013     34.773    485.194    516.691    485.194    489.528    485.194
 90.870    508.000    518.439    -10.439    484.991    513.925    484.991    489.514    484.991
 90.970    505.000    516.656    -11.656    484.787    511.935    484.787    489.515    484.787
 91.070    472.271    515.554    -43.283    484.581    510.609    484.581    489.532    484.581
 91.170    493.631    515.076    -21.445    484.374    509.887    484.374    489.566    484.374
 91.270    537.000    515.160     21.840    484.165    509.707    484.165    489.619    484.165
 91.370    519.000    515.771      3.229    483.954    510.033    483.954    489.693    483.954
 91.470    498.000    516.920    -18.920    483.742    510.873    483.742    489.788    483.742
 91.570    528.000    518.656      9.344    483.529    512.276    483.529    489.907    483.529
 91.670    540.700    521.070     19.630    483.314    514.332    483.314    490.049    483.314
 91.770    556.562    524.290     32.272    483.098    517.167    483.098    490.217    483.098
 91.870    520.945    528.476     -7.531    482.881    520.939    482.881    490.410    482.881
 91.970    543.000    533.807      9.193    482.662    525.829    482.662    490.629    482.662
 92.070    509.000    540.473    -31.473    482.441    532.026    482.441    490.875    482.441
 92.170    549.000    548.654      0.346    482.219    539.710    482.219    491.147    482.219
 92.270    559.000    558.505      0.495    481.996    549.036    481.996    491.443    481.996
 92.370    595.000    570.128     24.872    481.771    560.111    481.771    491.762    481.771
 92.470    577.000    583.558     -6.558    481.545    572.971    481.545    492.100    481.545
 92.570    583.000    598.738    -15.738    481.318    587.565    481.318    492.453    481.318
 92.670    630.000    615.506     14.494    481.089    603.735    481.089    492.815    481.089
 92.770    674.000    633.578     40.422    480.859    621.208    480.859    493.179    480.859
 92.870    696.000    652.545     43.455    480.627    639.583    480.627    493.535    480.627
 92.970    650.000    671.879    -21.879    480.395    658.343    480.395    493.871    480.395
 93.070    677.000    690.965    -13.965    480.160    676.887    480.160    494.174    480.160
 93.170    668.000    709.176    -41.176    479.925    694.605    479.925    494.430    479.925
 93.270    775.000    725.989     49.011    479.688    710.986    479.688    494.624    479.688
 93.370    781.000    741.107     39.893    479.450    725.749    479.450    494.740    479.450
 93.470    760.000    754.493      5.507    479.211    738.870    479.211    494.768    479.211
 93.570    748.208    766.326    -18.118    478.971    750.536    478.971    494.697    478.971
 93.670    778.000    776.889      1.111    478.729    761.036    478.729    494.521    478.729
 93.770    800.000    786.456     13.544    478.486    770.644    478.486    494.239    478.486
 93.870    800.600    795.254      5.347    478.242    779.583    478.242    493.857    478.242
 93.970    822.000    803.490     18.510    477.996    788.053    477.996    493.381    477.996
 94.070    831.000    811.421     19.579    477.750    796.297    477.750    492.825    477.750
 94.170    798.595    819.363    -20.768    477.502    804.618    477.502    492.201    477.502
 94.270    813.000    827.627    -14.627    477.253    813.312    477.253    491.526    477.253
 94.370    815.111    836.376    -21.265    477.003    822.527    477.003    490.813    477.003
 94.470    759.000    845.486    -86.486    476.752    832.125    476.752    490.078    476.752
 94.570    831.000    854.463    -23.463    476.499    841.600    476.499    489.332    476.499
 94.670    854.000    862.408     -8.408    476.246    850.043    476.246    488.587    476.246
 94.770    911.560    868.307     43.253    475.991    856.431    475.991    487.849    475.991
 94.870    924.881    870.856     54.025    475.735    859.454    475.735    487.127    475.735
 94.970    906.862    868.905     37.957    475.479    857.956    475.479    486.425    475.479
 95.070    958.000    861.689     96.311    475.221    851.168    475.221    485.747    475.221
 95.170    859.587    849.047     10.540    474.962    838.924    474.962    485.096    474.962
 95.270    803.975    831.489    -27.515    474.702    821.735    474.702    484.474    474.702
 95.370    822.721    810.137     12.584    474.441    800.719    474.441    483.881    474.441
 95.470    835.000    786.479     48.521    474.180    777.364    474.180    483.318    474.180
 95.570    780.222    762.181     18.041    473.917    753.337    473.917    482.785    473.917
 95.670    739.000    738.938      0.062    473.653    730.332    473.653    482.282    473.653
 95.770    722.000    718.375      3.625    473.388    709.976    473.388    481.808    473.388
 95.870    701.000    701.988     -0.988    473.122    693.765    473.122    481.362    473.122
 95.970    760.000    691.115     68.885    472.856    683.040    472.856    480.944    472.856
 96.070    660.000    686.915    -26.915    472.588    678.958    472.588    480.553    472.588
 96.170    674.000    690.353    -16.353    472.320    682.487    472.320    480.187    472.320
 96.270    675.114    702.194    -27.080    472.051    694.391    472.051    479.847    472.051
 96.370    741.117    722.984     18.133    471.781    715.220    471.781    479.531    471.781
 96.470    784.596    753.028     31.568    471.510    745.279    471.510    479.239    471.510
 96.570    758.000    792.346    -34.346    471.238    784.587    471.238    478.970    471.238
 96.670    785.329    840.618    -55.289    470.965    832.826    470.965    478.724    470.965
 96.770    884.697    897.114    -12.416    470.692    889.267    470.692    478.501    470.692
 96.870   1005.849    960.635     45.214    470.418    952.711    470.418    478.300    470.418
 96.970   1069.000   1029.460     39.540    470.143   1021.438    470.143    478.121    470.143
 97.070   1178.000   1101.313     76.687    469.868   1093.170    469.868    477.966    469.868
 97.170   1130.000   1173.360    -43.360    469.592   1165.075    469.592    477.835    469.592
 97.270   1243.000   1242.254      0.746    469.315   1233.805    469.315    477.729    469.315
 97.370   1336.000   1304.252     31.748    469.037   1295.615    469.037    477.648    469.037
 97.470   1325.000   1355.471    -30.471    468.759   1346.623    468.759    477.595    468.759
 97.570   1341.115   1392.325    -51.210    468.480   1383.238    468.480    477.571    468.480
 97.670   1451.000   1412.095     38.905    468.201   1402.739    468.201    477.579    468.201
 97.770   1429.000   1413.476     15.524    467.921   1403.817    467.921    477.620    467.921
 97.870   1407.000   1396.838     10.162    467.640   1386.840    467.640    477.698    467.640
 97.970   1346.000   1364.089    -18.089    467.359   1353.707    467.359    477.816    467.359
 98.070   1368.050   1318.223     49.827    467.077   1307.410    467.077    477.978    467.077
 98.170   1267.000   1262.792      4.208    466.795   1251.497    466.795    478.186    466.795
 98.270   1253.000   1201.475     51.525    466.512   1189.642    466.512    478.446    466.512
 98.370   1213.000   1137.866     75.134    466.229   1125.435    466.229    478.761    466.229
 98.470   1066.000   1075.202     -9.202    465.945   1062.108    465.945    479.137    465.945
 98.570   1024.000   1016.359      7.641    465.661   1002.534    465.661    479.578    465.661
 98.670   1000.000    963.809     36.191    465.377    949.182    465.377    480.089    465.377
 98.770    884.000    919.622    -35.622    465.092    904.115    465.092    480.674    465.092
 98.870    846.476    885.476    -39.000    464.807    869.008    464.807    481.340    464.807
 98.970    910.059    862.681     47.378    464.522    845.167    464.522    482.091    464.522
 99.070    831.000    852.207    -21.207    464.236    833.558    464.236    482.932    464.236
 99.170    820.000    854.718    -34.718    463.950    834.840    463.950    483.866    463.950
 99.270    877.000    870.594      6.406    463.664    849.391    463.664    484.899    463.664
 99.370    895.000    899.948     -4.948    463.377    877.321    463.377    486.033    463.377
 99.470    995.000    942.623     52.377    463.090    918.469    463.090    487.270    463.090
 99.570    971.060    998.163    -27.103    462.803    972.381    462.803    488.613    462.803
 99.670   1083.000   1065.777     17.223    462.516   1038.264    462.516    490.060    462.516
 99.770   1079.000   1144.281    -65.281    462.229   1114.938    462.229    491.611    462.229
 99.870   1222.000   1232.044    -10.044    461.941   1200.776    461.941    493.260    461.941
 99.970   1321.000   1326.938     -5.938    461.654   1293.656    461.654    495.002    461.654
100.070   1398.000   1426.310    -28.310    461.366   1390.936    461.366    496.826    461.366
100.170   1508.000   1527.008    -19.008    461.079   1489.476    461.079    498.718    461.079
100.270   1670.000   1625.489     44.511    460.791   1585.754    460.791    500.660    460.791
100.370   1762.000   1718.041     43.959    460.503   1676.080    460.503    502.628    460.503
100.470   1850.000   1801.093     48.907    460.216   1756.911    460.216    504.591    460.216
100.570   1868.000   1871.519     -3.519    459.928   1825.158    459.928    506.513    459.928
100.670   1950.000   1926.833     23.167    459.640   1878.376    459.640    508.351    459.640
100.770   1949.000   1965.206    -16.206    459.353   1914.783    459.353    510.057    459.353
100.870   1973.000   1985.351    -12.351    459.066   1933.144    459.066    511.576    459.066
100.970   2088.000   1986.500    101.500    458.779   1932.743    458.779    512.857    458.779
101.070   2010.000   1968.536     41.464    458.492   1913.516    458.492    513.845    458.492
101.170   1893.000   1932.268    -39.268    458.205   1876.317    458.205    514.495    458.205
101.270   1938.000   1879.672     58.328    457.919   1823.159    457.919    514.771    457.919
101.370   1745.401   1813.895    -68.494    457.632   1757.209    457.632    514.651    457.632
101.470   1711.000   1738.935    -27.935    457.346   1682.474    457.346    514.127    457.346
101.570   1600.000   1659.133    -59.133    457.061   1603.286    457.061    513.212    457.061
101.670   1508.000   1578.651    -70.651    456.776   1523.780    456.776    511.931    456.776
101.770   1442.801   1501.077    -58.277    456.491   1447.508    456.491    510.324    456.491
101.870   1404.000   1429.209    -25.209    456.206   1377.219    456.206    508.439    456.206
101.970   1409.734   1364.963     44.771    455.922   1314.777    455.922    506.329    455.922
102.070   1253.201   1309.370    -56.169    455.639   1261.162    455.639    504.049    455.639
102.170   1246.000   1262.622    -16.622    455.356   1216.512    455.356    501.651    455.356
102.270   1193.000   1224.145    -31.145    455.073   1180.208    455.073    499.181    455.073
102.370   1144.000   1192.687    -48.687    454.791   1150.957    454.791    496.681    454.791
102.470   1210.808   1166.527     44.281    454.510   1127.002    454.510    494.186    454.510
102.570   1085.109   1143.559    -58.451    454.229   1106.209    454.229    491.725    454.229
102.670   1207.000   1121.586     85.414    453.949   1086.357    453.949    489.319    453.949
102.770   1120.000   1098.597     21.403    453.669   1065.418    453.669    486.987    453.669
102.870   1063.037   1073.035     -9.998    453.390   1041.821    453.390    484.741    453.390
102.970   1002.000   1043.981    -41.981    453.112   1014.637    453.112    482.591    453.112
103.070    998.000   1011.200    -13.200    452.835    983.624    452.835    480.542    452.835
103.170   1041.000    975.045     65.955    452.559    949.134    452.559    478.597    452.559
103.270    881.285    936.283    -54.998    452.283    911.929    452.283    476.758    452.283
103.370    849.000    895.896    -46.896    452.008    872.993    452.008    475.025    452.008
103.470    813.669    854.931    -41.262    451.734    833.375    451.734    473.396    451.734
103.570    857.037    814.396     42.641    451.461    794.086    451.461    471.868    451.461
103.670    773.000    775.194     -2.194    451.189    756.032    451.189    470.439    451.189
103.770    773.000    738.086     34.914    450.918    719.980    450.918    469.103    450.918
103.870    681.000    703.669    -22.669    450.648    686.530    450.648    467.857    450.648
103.970    677.000    672.366      4.634    450.380    656.110    450.380    466.695    450.380
104.070    658.000    644.426     13.574    450.112    628.976    450.112    465.614    450.112
104.170    596.000    619.939    -23.939    449.845    605.222    449.845    464.607    449.845
104.270    611.918    598.856     13.062    449.580    584.804    449.580    463.669    449.580
104.370    591.000    581.013      9.987    449.315    567.563    449.315    462.796    449.315
104.470    580.616    566.166     14.450    449.052    553.261    449.052    461.983    449.052
104.570    593.000    554.021     38.979    448.790    541.608    448.790    461.225    448.790
104.670    559.098    544.262     14.836    448.530    532.291    448.530    460.518    448.530
104.770    528.358    536.573     -8.215    448.271    525.001    448.271    459.857    448.271
104.870    570.000    530.661     39.339    448.013    519.447    448.013    459.239    448.013
104.970    514.160    526.267    -12.107    447.756    515.373    447.756    458.660    447.756
105.070    539.544    523.174     16.370    447.501    512.565    447.501    458.116    447.501
105.170    555.000    521.210     33.790    447.248    510.858    447.248    457.605    447.248
105.270    541.000    520.253     20.747    446.996    510.128    446.996    457.124    446.996
105.370    530.000    520.223      9.777    446.745    510.299    446.745    456.670    446.745
105.470    515.000    521.081     -6.081    446.497    511.334    446.497    456.242    446.497
105.570    572.000    522.820     49.180    446.249    513.230    446.249    455.836    446.249
105.670    528.000    525.466      2.534    446.004    516.013    446.004    455.452    446.004
105.770    553.455    529.064     24.392    445.760    519.728    445.760    455.088    445.760
105.870    569.000    533.670     35.330    445.518    524.436    445.518    454.743    445.518
105.970    504.526    539.344    -34.818    445.278    530.195    445.278    454.415    445.278
106.070    539.000    546.132     -7.132    445.039    537.054    445.039    454.103    445.039
106.170    586.369    554.059     32.310    444.803    545.037    444.803    453.807    444.803
106.270    542.832    563.111    -20.279    444.568    554.133    444.568    453.525    444.568
106.370    577.000    573.233      3.767    444.335    564.287    444.335    453.258    444.335
106.470    623.000    584.316     38.684    444.104    575.390    444.104    453.004    444.104
106.570    634.665    596.196     38.470    443.875    587.279    443.875    452.764    443.875
106.670    563.000    608.651    -45.651    443.649    599.733    443.649    452.536    443.649
106.770    615.000    621.408     -6.408    443.424    612.478    443.424    452.321    443.424
106.870    651.000    634.140     16.860    443.202    625.189    443.202    452.118    443.202
106.970    608.450    646.483    -38.033    442.981    637.501    442.981    451.928    442.981
107.070    639.000    658.048    -19.048    442.763    649.026    442.763    451.749    442.763
107.170    687.281    668.444     18.836    442.547    659.374    442.547    451.583    442.547
107.270    635.000    677.322    -42.322    442.334    668.194    442.334    451.428    442.334
107.370    714.972    684.411     30.562    442.122    675.217    442.122    451.286    442.122
107.470    657.252    689.570    -32.318    441.914    680.301    441.914    451.155    441.914
107.570    633.000    692.825    -59.825    441.707    683.471    441.707    451.037    441.707
107.670    655.000    694.360    -39.360    441.503    684.912    441.503    450.932    441.503
107.770    692.000    694.494     -2.494    441.302    684.942    441.302    450.839    441.302
107.870    675.962    693.629    -17.667    441.103    683.962    441.103    450.759    441.103
107.970    715.000    692.192     22.808    440.907    682.399    440.907    450.693    440.907
108.070    710.000    690.581     19.419    440.713    680.652    440.713    450.640    440.713
108.170    719.406    689.128     30.277    440.522    679.052    440.522    450.601    440.522
108.270    681.000    688.075     -7.075    440.334    677.839    440.334    450.576    440.334
108.370    668.000    687.547    -19.547    440.149    677.139    440.149    450.567    440.149
108.470    680.000    687.581     -7.581    439.966    676.988    439.966    450.573    439.966
108.570    722.000    688.078     33.922    439.786    677.287    439.786    450.596    439.786
108.670    693.000    688.834      4.166    439.610    677.830    439.610    450.636    439.610
108.770    628.000    689.553    -61.553    439.436    678.322    439.436    450.693    439.436
108.870    663.000    689.869    -26.869    439.265    678.393    439.265    450.770    439.265
108.970    696.157    689.381      6.776    439.097    677.644    439.097    450.867    439.097
109.070    683.000    687.708     -4.708    438.932    675.691    438.932    450.985    438.932
109.170    657.257    684.539    -27.282    438.771    672.222    438.771    451.125    438.771
109.270    696.000    679.686     16.314    438.612    667.048    438.612    451.290    438.612
109.370    620.000    673.109    -53.109    438.457    660.127    438.457    451.480    438.457
109.470    643.878    664.917    -21.039    438.305    651.566    438.305    451.697    438.305
109.570    650.000    655.341     -5.341    438.157    641.594    438.157    451.943    438.157
109.670    695.000    644.687     50.313    438.012    630.516    438.012    452.221    438.012
109.770    632.000    633.308     -1.308    437.870    618.682    437.870    452.533    437.870
109.870    618.000    621.556     -3.556    437.732    606.441    437.732    452.881    437.732
109.970    650.262    609.763     40.499    437.597    594.124    437.597    453.269    437.597
110.070    573.474    598.232    -24.757    437.466    582.030    437.466    453.698    437.466
110.170    598.000    587.224     10.776    437.338    570.417    437.338    454.173    437.338
110.270    575.068    576.955     -1.887    437.215    559.497    437.215    454.698    437.215
110.370    560.186    567.594     -7.408    437.094    549.436    437.094    455.275    437.094
110.470    581.195    559.263     21.932    436.978    540.351    436.978    455.909    436.978
110.570    635.000    552.039     82.961    436.866    532.316    436.866    456.605    436.866
110.670    566.000    545.957     20.043    436.757    525.361    436.757    457.368    436.757
110.770    537.989    541.016     -3.026    436.652    519.479    436.652    458.201    436.652
110.870    566.000    537.182     28.818    436.551    514.632    436.551    459.111    436.551
110.970    566.000    534.400     31.600    436.455    510.760    436.455    460.104    436.455
111.070    544.000    532.598     11.402    436.362    507.784    436.362    461.184    436.362
111.170    514.000    531.693    -17.693    436.274    505.614    436.274    462.357    436.274
111.270    553.071    531.595     21.476    436.189    504.157    436.189    463.631    436.189
111.370    539.000    532.218      6.782    436.109    503.320    436.109    465.011    436.109
111.470    558.658    533.479     25.179    436.034    503.012    436.034    466.503    436.034
111.570    554.000    535.299     18.701    435.962    503.149    435.962    468.113    435.962
111.670    503.000    537.612    -34.612    435.895    503.659    435.895    469.849    435.895
111.770    537.000    540.357     -3.357    435.832    504.474    435.832    471.715    435.832
111.870    490.000    543.487    -53.487    435.774    505.542    435.774    473.719    435.774
111.970    536.000    546.964    -10.964    435.721    506.820    435.721    475.865    435.721
112.070    558.000    550.763      7.237    435.672    508.276    435.672    478.159    435.672
112.170    526.844    554.869    -28.025    435.628    509.892    435.628    480.604    435.628
112.270    573.000    559.280     13.720    435.588    511.661    435.588    483.207    435.588
112.370    593.706    564.002     29.704    435.554    513.588    435.554    485.968    435.554
112.470    581.000    569.055     11.945    435.524    515.688    435.524    488.891    435.524
112.570    543.000    574.465    -31.465    435.499    517.989    435.499    491.975    435.499
112.670    595.678    580.272     15.406    435.479    520.530    435.479    495.222    435.479
112.770    572.000    586.523    -14.523    435.464    523.361    435.464    498.627    435.464
112.870    552.000    593.281    -41.281    435.454    526.548    435.454    502.187    435.454
112.970    552.000    600.623    -48.623    435.449    530.178    435.449    505.895    435.449
113.070    571.000    608.651    -37.651    435.449    534.360    435.449    509.741    435.449
113.170    573.000    617.494    -44.494    435.455    539.237    435.455    513.712    435.455
113.270    612.000    627.319    -15.319    435.465    544.994    435.465    517.791    435.465
113.370    592.618    638.346    -45.728    435.482    551.870    435.482    521.958    435.482
113.470    583.000    650.856    -67.856    435.503    560.172    435.503    526.186    435.503
113.570    687.171    665.206     21.965    435.530    570.290    435.530    530.445    435.530
113.670    645.000    681.830    -36.830    435.563    582.693    435.563    534.696    435.563
113.770    699.000    701.348     -2.348    435.601    598.045    435.601    538.897    435.601
113.870    701.297    724.494    -23.196    435.645    617.129    435.645    542.999    435.645
113.970    793.679    752.130     41.549    435.695    640.862    435.695    546.946    435.695
114.070    751.170    785.322    -34.153    435.750    670.369    435.750    550.681    435.750
114.170    781.000    825.338    -44.338    435.811    706.980    435.811    554.138    435.811
114.270    921.000    873.655     47.345    435.878    752.238    435.878    557.255    435.878
114.370    930.000    931.965     -1.965    435.951    807.898    435.951    559.967    435.951
114.470   1036.000   1002.162     33.838    436.030    875.911    436.030    562.215    436.030
114.570   1110.964   1086.316     24.648    436.116    958.400    436.116    563.948    436.116
114.670   1241.991   1186.626     55.365    436.207   1057.607    436.207    565.124    436.207
114.770   1245.846   1305.359    -59.513    436.304   1175.826    436.304    565.713    436.304
114.870   1371.433   1444.757    -73.324    436.408   1315.312    436.408    565.704    436.408
114.970   1634.000   1606.927     27.073    436.518   1478.171    436.518    565.099    436.518
115.070   1749.681   1793.715    -44.034    436.635   1666.229    436.635    563.917    436.635
115.170   2093.293   2006.552     86.740    436.758   1880.886    436.758    562.191    436.758
115.270   2227.639   2246.309    -18.669    436.887   2122.967    436.887    559.967    436.887
115.370   2571.000   2513.130     57.870    437.023   2392.563    437.023    557.301    437.023
115.470   2729.000   2806.298    -77.298    437.166   2688.896    437.166    554.252    437.166
115.570   3088.573   3124.095    -35.521    437.315   3010.186    437.315    550.886    437.315
115.670   3460.000   3463.711     -3.711    437.471   3353.561    437.471    547.267    437.471
115.770   3873.000   3821.180     51.820    437.634   3714.993    437.634    543.456    437.634
115.870   4251.263   4191.358     59.905    437.804   4089.282    437.804    539.513    437.804
115.970   4543.000   4567.949    -24.949    437.981   4470.080    437.981    535.489    437.981
116.070   4909.000   4943.577    -34.577    438.165   4849.967    438.165    531.433    438.165
116.170   5260.000   5309.918    -49.918    438.356   5220.577    438.356    527.385    438.356
116.270   5559.000   5657.875    -98.875    438.555   5572.779    438.555    523.380    438.555
116.370   5945.000   5977.845    -32.845    438.760   5896.943    438.760    519.448    438.760
116.470   6299.000   6260.073     38.927    438.973   6183.286    438.973    515.613    438.973
116.570   6620.000   6495.124    124.876    439.193   6422.355    439.193    511.895    439.193
116.670   6805.971   6674.476    131.495    439.421   6605.611    439.421    508.309    439.421
116.770   6801.000   6791.200      9.800    439.656   6726.108    439.656    504.868    439.656
116.870   6952.000   6840.610    111.390    439.899   6779.150    439.899    501.579    439.899
116.970   6660.156   6820.775   -160.619    440.149   6762.795    440.149    498.450    440.149
117.070   6648.000   6732.731    -84.731    440.407   6678.069    440.407    495.483    440.407
117.170   6617.227   6580.354     36.873    440.673   6528.845    440.673    492.681    440.673
117.270   6333.000   6369.917    -36.917    440.947   6321.390    440.947    490.044    440.947
117.370   6034.713   6109.459    -74.745    441.229   6063.744    441.229    487.571    441.229
117.470   5615.000   5808.101   -193.101    441.519   5765.029    441.519    485.259    441.519
117.570   5285.000   5475.431   -190.431    441.817   5434.834    441.817    483.106    441.817
117.670   5022.000   5120.989    -98.989    442.123   5082.706    442.123    481.107    442.123
117.770   4680.056   4753.892    -73.837    442.437   4717.768    442.437    479.258    442.437
117.870   4422.035   4382.548     39.487    442.760   4348.432    442.760    477.553    442.760
117.970   3954.237   4014.455    -60.219    443.091   3982.208    443.091    475.987    443.091
118.070   3750.000   3656.074     93.926    443.430   3625.561    443.430    474.553    443.430
118.170   3400.000   3312.744     87.256    443.778   3283.841    443.778    473.247    443.778
118.270   3002.788   2988.667     14.121    444.135   2961.256    444.135    472.062    444.135
118.370   2780.613   2686.923     93.690    444.500   2660.897    444.500    470.992    444.500
118.470   2385.764   2409.545    -23.781    444.874   2384.802    444.874    470.030    444.874
118.570   2234.098   2157.607     76.491    445.257   2134.054    445.257    469.171    445.257
118.670   1921.274   1931.351    -10.077    445.648   1908.902    445.648    468.408    445.648
118.770   1741.000   1730.312     10.688    446.049   1708.889    446.049    467.736    446.049
118.870   1480.403   1553.456    -73.053    446.459   1532.987    446.459    467.150    446.459
118.970   1452.962   1399.317     53.645    446.877   1379.734    446.877    466.644    446.877
119.070   1234.000   1266.122    -32.122    447.305   1247.364    447.305    466.214    447.305
119.170   1186.872   1151.913     34.959    447.743   1133.923    447.743    465.853    447.743
119.270   1013.000   1054.655    -41.655    448.189   1037.381    448.189    465.559    448.189
119.370   1018.879    972.320     46.559    448.645    955.714    448.645    465.327    448.645
119.470    939.553    902.963     36.590    449.111    886.981    449.111    465.153    449.111
119.570    846.000    844.769      1.231    449.586    829.368    449.586    465.033    449.586
119.670    827.374    796.086     31.288    450.071    781.228    450.071    464.964    450.071
119.770    776.000    755.445     20.555    450.565    741.095    450.565    464.943    450.565
119.870    722.000    721.565      0.435    451.070    707.689    451.070    464.968    451.070
119.970    667.000    693.342    -26.342    451.584    679.910    451.584    465.035    451.584
120.070    678.154    669.847      8.307    452.108    656.828    452.108    465.142    452.108
120.170    622.295    650.300    -28.005    452.642    637.668    452.642    465.287    452.642
120.270    691.000    634.059     56.941    453.187    621.789    453.187    465.469    453.187
120.370    633.688    620.597     13.091    453.741    608.666    453.741    465.684    453.741
120.470    651.888    609.488     42.400    454.306    597.872    454.306    465.933    454.306
120.570    619.000    600.386     18.614    454.882    589.066    454.882    466.213    454.882
120.670    608.000    593.013     14.987    455.468    581.969    455.468    466.523    455.468
120.770    572.000    587.146    -15.146    456.064    576.360    456.064    466.862    456.064
120.870    533.000    582.604    -49.604    456.671    572.059    456.671    467.228    456.671
120.970    585.000    579.232      5.768    457.289    568.912    457.289    467.621    457.289
121.070    561.553    576.903    -15.350    457.917    566.793    457.917    468.040    457.917
121.170    572.000    575.564     -3.564    458.556    565.650    458.556    468.485    458.556
121.270    587.000    575.106     11.894    459.207    565.375    459.207    468.953    459.207
121.370    576.000    575.452      0.548    459.868    565.892    459.868    469.445    459.868
121.470    606.981    576.535     30.446    460.541    567.134    460.541    469.960    460.541
121.570    575.000    578.289     -3.289    461.224    569.036    461.224    470.497    461.224
121.670    586.000    580.648      5.352    461.919    571.534    461.919    471.055    461.919
121.770    602.000    583.547     18.453    462.626    574.561    462.626    471.635    462.626
121.870    616.743    586.913     29.830    463.343    578.048    463.343    472.234    463.343
121.970    617.341    590.671     26.671    464.073    581.919    464.073    472.854    464.073
122.070    623.000    594.738     28.262    464.814    586.092    464.814    473.492    464.814
122.170    602.000    599.027      2.973    465.567    590.479    465.567    474.149    465.567
122.270    568.000    603.441    -35.441    466.331    594.987    466.331    474.823    466.331
122.370    611.457    607.880      3.576    467.108    599.515    467.108    475.514    467.108
122.470    600.000    612.238    -12.238    467.896    603.957    467.896    476.220    467.896
122.570    584.566    616.404    -31.838    468.697    608.204    468.697    476.942    468.697
122.670    614.216    620.268     -6.052    469.510    612.148    469.510    477.679    469.510
122.770    602.000    623.723    -21.723    470.335    615.681    470.335    478.428    470.335
122.870    662.806    626.669     36.137    471.172    618.705    471.172    479.190    471.172
122.970    611.000    629.019    -18.019    472.022    621.133    472.022    479.964    472.022
123.070    627.000    630.704     -3.704    472.884    622.897    472.884    480.749    472.884
123.170    657.493    631.678     25.816    473.759    623.952    473.759    481.543    473.759
123.270    633.000    631.919      1.081    474.647    624.277    474.647    482.347    474.647
123.370    669.000    631.431     37.569    475.547    623.878    475.547    483.159    475.547
123.470    635.000    630.242      4.758    476.461    622.781    476.461    483.980    476.461
123.570    585.000    628.399    -43.399    477.387    621.035    477.387    484.808    477.387
123.670    636.000    625.964     10.036    478.326    618.702    478.326    485.644    478.326
123.770    621.000    623.011     -2.011    479.279    615.855    479.279    486.488    479.279
123.870    639.000    619.616     19.384    480.245    612.571    480.245    487.340    480.245
123.970    647.000    615.860     31.140    481.224    608.931    481.224    488.201    481.224
124.070    594.019    611.823    -17.804    482.217    605.016    482.217    489.070    482.217
124.170    614.000    607.584      6.416    483.223    600.901    483.223    489.948    483.223
124.270    644.664    603.214     41.449    484.243    596.659    484.243    490.837    484.243
124.370    624.000    598.782     25.218    485.276    592.359    485.276    491.736    485.276
124.470    558.956    594.348    -35.393    486.324    588.058    486.324    492.646    486.324
124.570    671.000    589.966     81.034    487.385    583.811    487.385    493.569    487.385
124.670    602.000    585.679     16.321    488.460    579.660    488.460    494.505    488.460
124.770    567.841    581.525    -13.684    489.550    575.643    489.550    495.455    489.550
124.870    564.000    577.534    -13.534    490.653    571.789    490.653    496.419    490.653
124.970    550.000    573.729    -23.729    491.771    568.120    491.771    497.399    491.771
