neutron_powder_diffraction_0081
R_wp: 4.470
Temperature (K): 798.257
Counts: 83608.00
Wavelength (Ã…): 2.52098
COMMENTS
Test file for demonstrating the .xyy file format in Reel1.0
END OF HEADER
   tth       Y_obs     Y_calc      Y_res    Background    Phase_1_Nuc    Phase_1_Mag    Phase_2_Nuc    Phase_2_Mag
  9.970    659.000    576.194     82.806    575.100    576.194    575.100    575.100    575.100
 10.070    601.000    576.961     24.039    575.778    576.961    575.778    575.778    575.778
 10.170    610.585    577.728     32.857    576.444    577.727    576.444    576.444    576.444
 10.270    565.150    578.497    -13.347    577.098    578.496    577.098    577.098    577.098
 10.370    598.000    579.272     18.728    577.739    579.271    577.739    577.739    577.739
 10.470    619.000    580.057     38.943    578.368    580.056    578.368    578.368    578.368
 10.570    591.451    580.857     10.595    578.985    580.856    578.985    578.985    578.985
 10.670    592.926    581.679     11.247    579.589    581.677    579.589    579.589    579.589
 10.770    610.000    582.540     27.460    580.182    582.539    580.182    580.182    580.182
 10.870    531.736    583.503    -51.766    580.763    583.501    580.763    580.763    580.763
 10.970    577.000    584.549     -7.549    581.332    584.548    581.332    581.332    581.332
 11.070    638.000    585.595     52.405    581.890    585.593    581.890    581.890    581.890
 11.170    618.000    586.748     31.252    582.436    586.746    582.436    582.436    582.436
 11.270    584.756    588.066     -3.310    582.970    588.063    582.970    582.970    582.970
 11.370    630.000    589.631     40.369    583.493    589.628    583.493    583.493    583.493
 11.470    591.000    591.610     -0.610    584.005    591.606    584.005    584.005    584.005
 11.570    595.000    594.390      0.610    584.505    594.385    584.505    584.505    584.505
 11.670    648.000    598.896     49.104    584.994    598.888    584.994    584.994    584.994
 11.770    554.397    607.037    -52.640    585.473    607.025    585.473    585.473    585.473
 11.870    595.545    621.810    -26.265    585.940    621.790    585.940    585.940    585.940
 11.970    685.734    646.117     39.616    586.396    646.084    586.396    586.396    586.396
 12.070    692.741    679.660     13.081    586.841    679.609    586.841    586.841    586.841
 12.170    683.809    714.285    -30.476    587.276    714.215    587.276    587.276    587.276
 12.270    717.000    731.712    -14.712    587.700    731.631    587.700    587.700    587.700
 12.370    719.239    718.625      0.614    588.114    718.553    588.114    588.114    588.114
 12.470    653.828    686.106    -32.278    588.517    686.052    588.517    588.517    588.517
 12.570    602.627    652.727    -50.101    588.909    652.692    588.909    588.909    588.909
 12.670    628.000    627.935      0.065    589.292    627.914    589.292    589.292    589.292
 12.770    591.000    612.843    -21.843    589.664    612.830    589.664    589.664    589.664
 12.870    609.000    604.806      4.194    590.026    604.798    590.026    590.026    590.026
 12.970    557.000    600.755    -43.755    590.378    600.750    590.378    590.378    590.378
 13.070    636.666    598.637     38.030    590.720    598.633    590.720    590.720    590.720
 13.170    628.000    597.417     30.583    591.052    597.413    591.052    591.052    591.052
 13.270    580.000    596.652    -16.652    591.374    596.649    591.374    591.374    591.374
 13.370    551.000    596.155    -45.155    591.687    596.153    591.687    591.687    591.687
 13.470    600.564    595.845      4.719    591.990    595.843    591.990    591.990    591.990
 13.570    570.000    595.667    -25.667    592.283    595.666    592.283    592.283    592.283
 13.670    554.000    595.560    -41.560    592.567    595.559    592.567    592.567    592.567
 13.770    649.937    595.516     54.420    592.841    595.515    592.841    592.841    592.841
 13.870    639.636    595.519     44.117    593.106    595.518    593.106    593.106    593.106
 13.970    604.000    595.559      8.441    593.362    595.558    593.362    593.362    593.362
 14.070    546.241    595.627    -49.386    593.609    595.626    593.609    593.609    593.609
 14.170    569.000    595.711    -26.711    593.846    595.710    593.846    593.846    593.846
 14.270    590.000    595.807     -5.807    594.075    595.807    594.075    594.075    594.075
 14.370    588.000    595.914     -7.914    594.294    595.913    594.294    594.294    594.294
 14.470    568.000    596.027    -28.027    594.505    596.026    594.505    594.505    594.505
 14.570    573.000    596.144    -23.144    594.707    596.143    594.707    594.707    594.707
 14.670    557.000    596.263    -39.263    594.900    596.262    594.900    594.900    594.900
 14.770    583.593    596.382    -12.789    595.085    596.382    595.085    595.085    595.085
 14.870    585.000    596.501    -11.501    595.261    596.501    595.261    595.261    595.261
 14.970    619.000    596.618     22.382    595.429    596.618    595.429    595.429    595.429
 15.070    592.794    596.733     -3.938    595.588    596.732    595.588    595.588    595.588
 15.170    544.134    596.844    -52.710    595.739    596.844    595.739    595.739    595.739
 15.270    641.828    596.959     44.869    595.882    596.959    595.882    595.882    595.882
 15.370    535.000    597.121    -62.121    596.016    597.120    596.016    596.016    596.016
 15.470    621.000    597.243     23.757    596.143    597.243    596.143    596.143    596.143
 15.570    568.093    597.338    -29.245    596.261    597.338    596.261    596.261    596.261
 15.670    625.000    597.426     27.574    596.371    597.426    596.371    596.371    596.371
 15.770    532.000    597.509    -65.509    596.474    597.509    596.474    596.474    596.474
 15.870    573.000    597.586    -24.586    596.569    597.586    596.569    596.569    596.569
 15.970    547.000    597.658    -50.658    596.656    597.658    596.656    596.656    596.656
 16.070    618.000    597.729     20.271    596.735    597.728    596.735    596.735    596.735
 16.170    610.000    597.798     12.202    596.807    597.797    596.807    596.807    596.807
 16.270    584.000    597.859    -13.859    596.871    597.858    596.871    596.871    596.871
 16.370    569.000    597.906    -28.906    596.928    597.906    596.928    596.928    596.928
 16.470    591.000    597.947     -6.947    596.977    597.947    596.977    596.977    596.977
 16.570    578.000    597.987    -19.987    597.019    597.987    597.019    597.019    597.019
 16.670    571.069    598.068    -26.999    597.054    598.068    597.054    597.054    597.054
 16.770    566.000    598.105    -32.105    597.082    598.105    597.082    597.082    597.082
 16.870    581.000    598.123    -17.123    597.102    598.123    597.102    597.102    597.102
 16.970    554.500    598.133    -43.634    597.116    598.133    597.116    597.116    597.116
 17.070    547.509    598.138    -50.628    597.122    598.137    597.122    597.122    597.122
 17.170    606.653    598.136      8.517    597.122    598.135    597.122    597.122    597.122
 17.270    567.000    598.130    -31.130    597.115    598.130    597.115    597.115    597.115
 17.370    590.825    598.148     -7.323    597.101    598.148    597.101    597.101    597.101
 17.470    587.000    598.139    -11.139    597.081    598.139    597.081    597.081    597.081
 17.570    576.000    598.114    -22.114    597.053    598.114    597.053    597.053    597.053
 17.670    585.000    598.082    -13.082    597.020    598.082    597.020    597.020    597.020
 17.770    526.000    598.044    -72.044    596.980    598.044    596.980    596.980    596.980
 17.870    572.000    598.000    -26.000    596.933    598.000    596.933    596.933    596.933
 17.970    569.000    597.952    -28.952    596.880    597.952    596.880    596.880    596.880
 18.070    628.049    597.914     30.135    596.821    597.914    596.821    596.821    596.821
 18.170    557.000    597.871    -40.871    596.755    597.871    596.755    596.755    596.755
 18.270    577.854    597.837    -19.983    596.684    597.836    596.684    596.684    596.684
 18.370    589.000    597.780     -8.780    596.606    597.780    596.606    596.606    596.606
 18.470    634.000    597.722     36.278    596.522    597.722    596.522    596.522    596.522
 18.570    575.611    597.641    -22.030    596.433    597.641    596.433    596.433    596.433
 18.670    591.000    597.560     -6.560    596.337    597.560    596.337    596.337    596.337
 18.770    590.706    597.534     -6.828    596.236    597.534    596.236    596.236    596.236
 18.870    635.285    597.458     37.827    596.128    597.458    596.128    596.128    596.128
 18.970    556.108    597.364    -41.256    596.015    597.364    596.015    596.015    596.015
 19.070    584.000    597.262    -13.262    595.897    597.262    595.897    595.897    595.897
 19.170    575.000    597.151    -22.151    595.773    597.151    595.773    595.773    595.773
 19.270    572.000    597.056    -25.056    595.643    597.056    595.643    595.643    595.643
 19.370    595.000    596.958     -1.958    595.508    596.958    595.508    595.508    595.508
 19.470    623.085    596.836     26.249    595.367    596.836    595.367    595.367    595.367
 19.570    544.000    596.704    -52.704    595.222    596.704    595.222    595.222    595.222
 19.670    551.351    596.567    -45.216    595.070    596.567    595.070    595.070    595.070
 19.770    603.000    596.425      6.575    594.914    596.425    594.914    594.914    594.914
 19.870    581.000    596.286    -15.286    594.753    596.286    594.753    594.753    594.753
 19.970    617.121    596.138     20.983    594.586    596.138    594.586    594.586    594.586
 20.070    532.000    595.987    -63.987    594.414    595.987    594.414    594.414    594.414
 20.170    515.000    595.831    -80.831    594.238    595.831    594.238    594.238    594.238
 20.270    567.000    595.670    -28.670    594.056    595.670    594.056    594.056    594.056
 20.370    632.101    595.508     36.594    593.870    595.508    593.870    593.870    593.870
 20.470    563.115    595.338    -32.223    593.679    595.338    593.679    593.679    593.679
 20.570    574.000    595.163    -21.163    593.483    595.163    593.483    593.483    593.483
 20.670    624.499    594.984     29.515    593.282    594.984    593.282    593.282    593.282
 20.770    578.000    594.801    -16.801    593.077    594.802    593.077    593.077    593.077
 20.870    598.000    594.618      3.382    592.867    594.618    592.867    592.867    592.867
 20.970    579.509    594.431    -14.922    592.653    594.431    592.653    592.653    592.653
 21.070    544.990    594.239    -49.249    592.434    594.239    592.434    592.434    592.434
 21.170    583.000    594.044    -11.044    592.211    594.044    592.211    592.211    592.211
 21.270    604.987    593.846     11.141    591.984    593.846    591.984    591.984    591.984
 21.370    570.000    593.646    -23.646    591.752    593.646    591.752    591.752    591.752
 21.470    599.000    593.443      5.557    591.516    593.443    591.516    591.516    591.516
 21.570    540.365    593.238    -52.873    591.275    593.238    591.275    591.275    591.275
 21.670    586.000    593.032     -7.032    591.031    593.032    591.031    591.031    591.031
 21.770    537.000    592.824    -55.824    590.783    592.824    590.783    590.783    590.783
 21.870    613.000    592.615     20.385    590.530    592.615    590.530    590.530    590.530
 21.970    632.112    592.405     39.707    590.274    592.405    590.274    590.274    590.274
 22.070    587.000    592.194     -5.194    590.014    592.194    590.014    590.014    590.014
 22.170    605.000    591.984     13.016    589.750    591.984    589.750    589.750    589.750
 22.270    585.000    591.775     -6.775    589.482    591.775    589.482    589.482    589.482
 22.370    573.536    591.568    -18.033    589.210    591.569    589.210    589.210    589.210
 22.470    586.000    591.363     -5.363    588.935    591.363    588.935    588.935    588.935
 22.570    548.000    591.160    -43.160    588.656    591.160    588.656    588.656    588.656
 22.670    576.000    590.962    -14.962    588.373    590.963    588.373    588.373    588.373
 22.770    627.483    590.771     36.712    588.087    590.771    588.087    588.087    588.087
 22.870    568.558    590.586    -22.027    587.797    590.586    587.797    587.797    587.797
 22.970    601.230    590.410     10.820    587.504    590.411    587.504    587.504    587.504
 23.070    635.264    590.248     45.016    587.208    590.248    587.208    587.208    587.208
 23.170    591.000    590.102      0.898    586.908    590.102    586.908    586.908    586.908
 23.270    549.000    589.975    -40.975    586.605    589.975    586.605    586.605    586.605
 23.370    608.000    589.873     18.127    586.299    589.874    586.299    586.299    586.299
 23.470    608.201    589.806     18.395    585.989    589.807    585.989    585.989    585.989
 23.570    546.000    589.782    -43.782    585.676    589.784    585.676    585.676    585.676
 23.670    592.000    589.817      2.183    585.361    589.818    585.361    585.361    585.361
 23.770    579.000    589.931    -10.931    585.042    589.932    585.042    585.042    585.042
 23.870    582.230    590.154     -7.924    584.720    590.156    584.720    584.720    584.720
 23.970    590.000    590.538     -0.538    584.395    590.540    584.395    584.395    584.395
 24.070    576.769    591.181    -14.412    584.068    591.184    584.068    584.068    584.068
 24.170    591.000    592.310     -1.310    583.737    592.314    583.737    583.737    583.737
 24.270    585.000    594.429     -9.429    583.404    594.435    583.404    583.404    583.404
 24.370    564.696    598.588    -33.892    583.068    598.597    583.068    583.068    583.068
 24.470    590.257    606.464    -16.207    582.730    606.479    582.730    582.730    582.730
 24.570    567.318    619.850    -52.531    582.388    619.874    582.388    582.388    582.388
 24.670    586.888    639.154    -52.266    582.044    639.193    582.044    582.044    582.044
 24.770    650.346    660.938    -10.592    581.698    660.992    581.698    581.698    581.698
 24.870    625.000    676.071    -51.071    581.349    676.137    581.349    581.349    581.349
 24.970    669.826    674.851     -5.026    580.997    674.916    580.997    580.997    580.997
 25.070    679.533    658.039     21.493    580.643    658.093    580.643    580.643    580.643
 25.170    662.000    635.729     26.271    580.287    635.766    580.287    580.287    580.287
 25.270    649.000    616.455     32.545    579.928    616.479    579.928    579.928    579.928
 25.370    609.000    603.165      5.835    579.567    603.180    579.567    579.567    579.567
 25.470    653.000    595.233     57.767    579.204    595.242    579.204    579.204    579.204
 25.570    642.000    590.838     51.162    578.839    590.844    578.839    578.839    578.839
 25.670    603.000    588.368     14.632    578.471    588.371    578.471    578.471    578.471
 25.770    589.000    586.840      2.160    578.101    586.842    578.101    578.101    578.101
 25.870    583.000    585.780     -2.780    577.730    585.783    577.730    577.730    577.730
 25.970    619.279    584.987     34.292    577.356    584.989    577.356    577.356    577.356
 26.070    652.000    584.371     67.629    576.980    584.372    576.980    576.980    576.980
 26.170    625.963    583.890     42.073    576.602    583.891    576.602    576.602    576.602
 26.270    610.000    583.518     26.482    576.222    583.519    576.222    576.222    576.222
 26.370    629.000    583.245     45.755    575.841    583.245    575.841    575.841    575.841
 26.470    627.000    583.063     43.937    575.458    583.063    575.458    575.458    575.458
 26.570    571.111    582.973    -11.862    575.072    582.973    575.072    575.072    575.072
 26.670    629.000    582.981     46.019    574.686    582.981    574.686    574.686    574.686
 26.770    673.000    583.099     89.901    574.297    583.098    574.297    574.297    574.297
 26.870    600.805    583.344     17.460    573.907    583.344    573.907    573.907    573.907
 26.970    664.000    583.744     80.256    573.515    583.743    573.515    573.515    573.515
 27.070    603.000    584.337     18.663    573.121    584.336    573.121    573.121    573.121
 27.170    587.000    585.176      1.824    572.726    585.174    572.726    572.726    572.726
 27.270    638.000    586.341     51.659    572.330    586.339    572.330    572.330    572.330
 27.370    610.675    587.955     22.720    571.932    587.953    571.932    571.932    571.932
 27.470    671.000    590.236     80.764    571.532    590.233    571.532    571.532    571.532
 27.570    662.000    593.663     68.337    571.132    593.659    571.132    571.132    571.132
 27.670    566.619    599.446    -32.827    570.730    599.439    570.730    570.730    570.730
 27.770    681.000    610.516     70.484    570.326    610.505    570.326    570.326    570.326
 27.870    583.901    632.757    -48.856    569.921    632.737    569.921    569.921    569.921
 27.970    688.000    674.750     13.250    569.515    674.715    569.515    569.515    569.515
 28.070    721.000    743.186    -22.186    569.108    743.132    569.108    569.108    569.108
 28.170    838.000    833.098      4.902    568.700    833.025    568.700    568.700    568.700
 28.270    950.000    917.471     32.529    568.291    917.392    568.291    568.291    568.291
 28.370    955.000    951.412      3.588    567.880    951.343    567.880    567.880    567.880
 28.470    854.085    914.391    -60.306    567.469    914.341    567.469    567.469    567.469
 28.570    897.398    844.055     53.344    567.056    844.020    567.056    567.056    567.056
 28.670    786.158    790.326     -4.168    566.642    790.299    566.642    566.642    566.642
 28.770    842.000    777.279     64.721    566.228    777.253    566.228    566.228    566.228
 28.870    840.000    801.187     38.813    565.812    801.164    565.812    565.812    565.812
 28.970    839.000    836.345      2.655    565.396    836.329    565.396    565.396    565.396
 29.070    780.563    846.148    -65.584    564.979    846.143    564.979    564.979    564.979
 29.170    926.000    811.566    114.434    564.561    811.569    564.561    564.561    564.561
 29.270    803.000    750.617     52.383    564.142    750.623    564.142    564.142    564.142
 29.370    752.327    690.459     61.868    563.723    690.464    563.723    563.723    563.723
 29.470    732.000    644.916     87.084    563.303    644.918    563.303    563.303    563.303
 29.570    708.000    615.826     92.174    562.882    615.827    562.882    562.882    562.882
 29.670    623.000    599.208     23.792    562.461    599.207    562.461    562.461    562.461
 29.770    540.123    590.077    -49.955    562.039    590.076    562.039    562.039    562.039
 29.870    662.000    584.827     77.173    561.616    584.825    561.616    561.616    561.616
 29.970    654.000    581.510     72.490    561.193    581.508    561.193    561.193    561.193
 30.070    630.000    579.267     50.733    560.769    579.264    560.769    560.769    560.769
 30.170    631.904    577.775     54.129    560.345    577.772    560.345    560.345    560.345
 30.270    652.000    576.992     75.008    559.921    576.988    559.921    559.921    559.921
 30.370    672.000    577.121     94.879    559.496    577.116    559.496    559.496    559.496
 30.470    627.000    578.698     48.302    559.070    578.691    559.070    559.070    559.070
 30.570    638.000    582.643     55.357    558.645    582.633    558.645    558.645    558.645
 30.670    652.000    590.054     61.946    558.219    590.037    558.219    558.219    558.219
 30.770    639.000    601.548     37.452    557.793    601.523    557.793    557.793    557.793
 30.870    676.000    616.158     59.842    557.366    616.122    557.366    557.366    557.366
 30.970    684.258    629.937     54.321    556.939    629.892    556.939    556.939    556.939
 31.070    656.236    635.857     20.379    556.512    635.809    556.512    556.512    556.512
 31.170    664.000    629.463     34.537    556.085    629.422    556.085    556.085    556.085
 31.270    700.000    614.810     85.190    555.658    614.780    555.658    555.658    555.658
 31.370    573.000    598.925    -25.925    555.231    598.904    555.231    555.231    555.231
 31.470    582.463    585.944     -3.480    554.803    585.931    554.803    554.803    554.803
 31.570    622.385    576.973     45.412    554.376    576.965    554.376    554.376    554.376
 31.670    588.000    571.445     16.555    553.948    571.439    553.948    553.948    553.948
 31.770    571.000    568.240      2.760    553.521    568.236    553.521    553.521    553.521
 31.870    571.312    566.379      4.933    553.094    566.375    553.094    553.094    553.094
 31.970    519.249    565.240    -45.991    552.666    565.238    552.666    552.666    552.666
 32.070    537.955    564.508    -26.553    552.239    564.506    552.239    552.239    552.239
 32.170    564.000    564.044     -0.044    551.812    564.042    551.812    551.812    551.812
 32.270    571.000    563.790      7.210    551.385    563.788    551.385    551.385    551.385
 32.370    543.000    563.730    -20.730    550.958    563.728    550.958    550.958    550.958
 32.470    627.000    563.864     63.136    550.532    563.863    550.532    550.532    550.532
 32.570    588.000    564.209     23.791    550.105    564.207    550.105    550.105    550.105
 32.670    559.000    564.793     -5.793    549.679    564.791    549.679    549.679    549.679
 32.770    541.559    565.662    -24.103    549.253    565.660    549.253    549.253    549.253
 32.870    596.557    566.885     29.672    548.828    566.883    548.828    548.828    548.828
 32.970    595.000    568.560     26.440    548.403    568.558    548.403    548.403    548.403
 33.070    542.000    570.842    -28.842    547.978    570.839    547.978    547.978    547.978
 33.170    590.000    573.996     16.004    547.553    573.993    547.553    547.553    547.553
 33.270    614.745    578.542     36.203    547.129    578.538    547.129    547.129    547.129
 33.370    617.965    585.569     32.396    546.706    585.564    546.706    546.706    546.706
 33.470    597.088    597.281     -0.193    546.283    597.274    546.283    546.283    546.283
 33.570    632.000    617.640     14.360    545.860    617.630    545.860    545.860    545.860
 33.670    666.000    652.498     13.502    545.438    652.482    545.438    545.438    545.438
 33.770    755.573    708.250     47.323    545.016    708.225    545.016    545.016    545.016
 33.870    729.152    788.261    -59.109    544.595    788.225    544.595    544.595    544.595
 33.970    871.000    887.065    -16.065    544.175    887.018    544.175    544.175    544.175
 34.070    959.862    982.994    -23.131    543.755    982.941    543.755    543.755    543.755
 34.170   1004.056   1036.978    -32.922    543.336   1036.931    543.336    543.336    543.336
 34.270    975.000   1018.456    -43.456    542.917   1018.427    542.917    542.917    542.917
 34.370    925.000    939.084    -14.084    542.499    939.072    542.499    542.499    542.499
 34.470    821.611    837.651    -16.040    542.082    837.648    542.082    542.082    542.082
 34.570    721.000    745.464    -24.464    541.666    745.466    541.666    541.666    541.666
 34.670    659.000    675.866    -16.866    541.250    675.868    541.250    541.250    541.250
 34.770    578.000    629.512    -51.512    540.835    629.513    540.835    540.835    540.835
 34.870    574.000    601.134    -27.134    540.421    601.134    540.421    540.421    540.421
 34.970    529.275    584.356    -55.081    540.007    584.355    540.007    540.007    540.007
 35.070    559.000    574.178    -15.178    539.595    574.177    539.595    539.595    539.595
 35.170    587.310    567.516     19.795    539.183    567.515    539.183    539.183    539.183
 35.270    515.000    562.747    -47.747    538.772    562.746    538.772    538.772    538.772
 35.370    557.000    559.087     -2.087    538.362    559.086    538.362    538.362    538.362
 35.470    575.000    556.149     18.851    537.953    556.148    537.953    537.953    537.953
 35.570    600.050    553.723     46.327    537.545    553.723    537.545    537.545    537.545
 35.670    540.000    551.681    -11.681    537.137    551.681    537.137    537.137    537.137
 35.770    554.906    549.933      4.973    536.731    549.933    536.731    536.731    536.731
 35.870    547.000    548.417     -1.417    536.326    548.417    536.326    536.326    536.326
 35.970    524.000    547.086    -23.086    535.922    547.085    535.922    535.922    535.922
 36.070    525.000    545.903    -20.903    535.519    545.903    535.519    535.519    535.519
 36.170    567.000    544.844     22.156    535.116    544.844    535.116    535.116    535.116
 36.270    532.867    543.888    -11.021    534.715    543.888    534.715    534.715    534.715
 36.370    553.399    543.020     10.379    534.315    543.020    534.315    534.315    534.315
 36.470    508.000    542.228    -34.228    533.916    542.228    533.916    533.916    533.916
 36.570    523.004    541.505    -18.501    533.518    541.505    533.518    533.518    533.518
 36.670    537.000    540.844     -3.844    533.122    540.844    533.122    533.122    533.122
 36.770    541.000    540.246      0.754    532.726    540.246    532.726    532.726    532.726
 36.870    563.616    539.714     23.902    532.332    539.714    532.332    532.332    532.332
 36.970    522.000    539.263    -17.263    531.939    539.263    531.939    531.939    531.939
 37.070    481.000    538.931    -57.931    531.547    538.931    531.547    531.547    531.547
 37.170    517.000    538.805    -21.805    531.156    538.805    531.156    531.156    531.156
 37.270    516.000    539.044    -23.044    530.766    539.045    530.766    530.766    530.766
 37.370    523.000    539.886    -16.886    530.378    539.887    530.378    530.378    530.378
 37.470    542.000    541.578      0.422    529.991    541.579    529.991    529.991    529.991
 37.570    588.881    544.219     44.662    529.606    544.221    529.606    529.606    529.606
 37.670    532.000    547.532    -15.532    529.221    547.535    529.221    529.221    529.221
 37.770    518.167    550.608    -32.441    528.838    550.613    528.838    528.838    528.838
 37.870    526.000    551.971    -25.971    528.456    551.978    528.456    528.456    528.456
 37.970    500.765    550.694    -49.929    528.076    550.703    528.076    528.076    528.076
 38.070    512.325    547.483    -35.159    527.697    547.493    527.697    527.697    527.697
 38.170    550.000    543.652      6.348    527.319    543.662    527.319    527.319    527.319
 38.270    531.000    540.064     -9.064    526.943    540.074    526.943    526.943    526.943
 38.370    540.000    537.106      2.894    526.568    537.115    526.568    526.568    526.568
 38.470    558.538    534.871     23.667    526.195    534.878    526.195    526.195    526.195
 38.570    537.000    533.258      3.742    525.823    533.262    525.823    525.823    525.823
 38.670    523.000    532.093     -9.093    525.452    532.096    525.452    525.452    525.452
 38.770    526.049    531.222     -5.173    525.083    531.224    525.083    525.083    525.083
 38.870    514.000    530.535    -16.535    524.716    530.536    524.716    524.716    524.716
 38.970    506.000    529.962    -23.962    524.350    529.963    524.350    524.350    524.350
 39.070    501.262    529.460    -28.198    523.985    529.461    523.985    523.985    523.985
 39.170    575.906    529.004     46.903    523.622    529.004    523.622    523.622    523.622
 39.270    499.000    528.579    -29.579    523.261    528.580    523.261    523.261    523.261
 39.370    523.000    528.179     -5.179    522.901    528.179    522.901    522.901    522.901
 39.470    513.000    527.797    -14.797    522.542    527.798    522.542    522.542    522.542
 39.570    482.502    527.433    -44.930    522.185    527.433    522.185    522.185    522.185
 39.670    514.230    527.083    -12.853    521.830    527.083    521.830    521.830    521.830
 39.770    528.000    526.747      1.253    521.476    526.747    521.476    521.476    521.476
 39.870    503.000    526.424    -23.424    521.124    526.425    521.124    521.124    521.124
 39.970    504.000    526.114    -22.114    520.774    526.115    520.774    520.774    520.774
 40.070    534.000    525.818      8.182    520.425    525.818    520.425    520.425    520.425
 40.170    501.000    525.535    -24.535    520.078    525.535    520.078    520.078    520.078
 40.270    531.498    525.265      6.233    519.732    525.266    519.732    519.732    519.732
 40.370    549.000    525.011     23.989    519.389    525.012    519.389    519.389    519.389
 40.470    486.000    524.773    -38.773    519.046    524.774    519.046    519.046    519.046
 40.570    552.562    524.553     28.009    518.706    524.553    518.706    518.706    518.706
 40.670    500.000    524.352    -24.352    518.367    524.353    518.367    518.367    518.367
 40.770    535.000    524.175     10.825    518.030    524.176    518.030    518.030    518.030
 40.870    538.788    524.023     14.765    517.695    524.024    517.695    517.695    517.695
 40.970    470.000    523.902    -53.902    517.361    523.903    517.361    517.361    517.361
 41.070    486.000    523.816    -37.816    517.029    523.817    517.029    517.029    517.029
 41.170    500.000    523.773    -23.773    516.699    523.775    516.699    516.699    516.699
 41.270    546.000    523.783     22.217    516.371    523.784    516.371    516.371    516.371
 41.370    478.000    523.856    -45.856    516.044    523.858    516.044    516.044    516.044
 41.470    507.000    524.011    -17.011    515.719    524.013    515.719    515.719    515.719
 41.570    501.000    524.271    -23.271    515.396    524.273    515.396    515.396    515.396
 41.670    553.365    524.673     28.692    515.075    524.676    515.075    515.075    515.075
 41.770    478.000    525.286    -47.286    514.755    525.289    514.755    514.755    514.755
 41.870    521.000    526.238     -5.238    514.438    526.242    514.438    514.438    514.438
 41.970    508.000    527.784    -19.784    514.122    527.788    514.122    514.122    514.122
 42.070    515.000    530.391    -15.391    513.808    530.396    513.808    513.808    513.808
 42.170    581.486    534.827     46.659    513.496    534.834    513.496    513.496    513.496
 42.270    508.000    542.154    -34.154    513.185    542.165    513.185    513.185    513.185
 42.370    528.000    553.513    -25.513    512.877    553.529    512.877    512.877    512.877
 42.470    611.110    569.621     41.490    512.570    569.645    512.570    512.570    512.570
 42.570    607.168    590.023     17.145    512.266    590.057    512.266    512.266    512.266
 42.670    553.000    612.152    -59.152    511.963    612.199    511.963    511.963    511.963
 42.770    610.000    630.468    -20.468    511.662    630.527    511.662    511.662    511.662
 42.870    626.006    637.513    -11.507    511.362    637.579    511.362    511.362    511.362
 42.970    589.000    629.460    -40.460    511.065    629.523    511.065    511.065    511.065
 43.070    570.000    610.376    -40.376    510.770    610.430    510.770    510.770    510.770
 43.170    591.769    587.752      4.017    510.476    587.793    510.476    510.476    510.476
 43.270    518.593    567.022    -48.429    510.185    567.052    510.185    510.185    510.185
 43.370    518.000    550.647    -32.647    509.895    550.668    509.895    509.895    509.895
 43.470    547.000    539.017      7.983    509.608    539.030    509.608    509.608    509.608
 43.570    518.000    531.379    -13.379    509.322    531.389    509.322    509.322    509.322
 43.670    512.000    526.589    -14.589    509.038    526.596    509.038    509.038    509.038
 43.770    525.038    523.593      1.445    508.756    523.597    508.756    508.756    508.756
 43.870    485.000    521.634    -36.634    508.476    521.638    508.476    508.476    508.476
 43.970    512.952    520.256     -7.305    508.198    520.259    508.198    508.198    508.198
 44.070    526.000    519.213      6.787    507.922    519.216    507.922    507.922    507.922
 44.170    535.000    518.380     16.620    507.648    518.382    507.648    507.648    507.648
 44.270    478.983    517.691    -38.709    507.376    517.693    507.376    507.376    507.376
 44.370    545.000    517.110     27.890    507.106    517.112    507.106    507.106    507.106
 44.470    526.139    516.614      9.525    506.838    516.615    506.838    506.838    506.838
 44.570    520.000    516.186      3.814    506.571    516.187    506.571    506.571    506.571
 44.670    506.000    515.816     -9.816    506.307    515.817    506.307    506.307    506.307
 44.770    523.000    515.494      7.506    506.045    515.495    506.045    506.045    506.045
 44.870    508.000    515.214     -7.214    505.785    515.215    505.785    505.785    505.785
 44.970    519.000    514.972      4.028    505.526    514.973    505.526    505.526    505.526
 45.070    502.000    514.764    -12.764    505.270    514.764    505.270    505.270    505.270
 45.170    548.000    514.587     33.413    505.016    514.587    505.016    505.016    505.016
 45.270    535.000    514.439     20.561    504.764    514.440    504.764    504.764    504.764
 45.370    522.000    514.320      7.680    504.513    514.321    504.513    504.513    504.513
 45.470    526.091    514.230     11.862    504.265    514.230    504.265    504.265    504.265
 45.570    491.024    514.167    -23.143    504.019    514.167    504.019    504.019    504.019
 45.670    526.000    514.133     11.867    503.775    514.133    503.775    503.775    503.775
 45.770    474.000    514.129    -40.129    503.532    514.129    503.532    503.532    503.532
 45.870    561.000    514.157     46.843    503.292    514.156    503.292    503.292    503.292
 45.970    528.777    514.218     14.560    503.054    514.217    503.054    503.054    503.054
 46.070    571.000    514.315     56.685    502.818    514.315    502.818    502.818    502.818
 46.170    513.000    514.453     -1.453    502.584    514.453    502.584    502.584    502.584
 46.270    487.000    514.636    -27.636    502.352    514.636    502.352    502.352    502.352
 46.370    563.049    514.871     48.178    502.122    514.870    502.122    502.122    502.122
 46.470    499.000    515.164    -16.164    501.894    515.163    501.894    501.894    501.894
 46.570    525.000    515.527      9.473    501.668    515.525    501.668    501.668    501.668
 46.670    542.000    515.972     26.028    501.444    515.971    501.444    501.444    501.444
 46.770    474.721    516.522    -41.802    501.222    516.521    501.222    501.222    501.222
 46.870    536.078    517.211     18.868    501.002    517.208    501.002    501.002    501.002
 46.970    525.000    518.099      6.901    500.784    518.096    500.784    500.784    500.784
 47.070    546.000    519.302     26.698    500.568    519.299    500.568    500.568    500.568
 47.170    483.991    521.027    -37.035    500.355    521.022    500.355    500.355    500.355
 47.270    494.000    523.616    -29.616    500.143    523.609    500.143    500.143    500.143
 47.370    525.808    527.570     -1.762    499.933    527.561    499.933    499.933    499.933
 47.470    502.239    533.500    -31.261    499.725    533.487    499.725    499.725    499.725
 47.570    562.196    541.968     20.228    499.520    541.949    499.520    499.520    499.520
 47.670    548.102    553.209     -5.107    499.316    553.182    499.316    499.316    499.316
 47.770    590.000    566.764     23.236    499.115    566.728    499.115    499.115    499.115
 47.870    603.000    581.065     21.935    498.915    581.020    498.915    498.915    498.915
 47.970    614.000    593.111     20.889    498.718    593.058    498.718    498.718    498.718
 48.070    591.000    599.086     -8.086    498.522    599.030    498.522    498.522    498.522
 48.170    603.157    596.885      6.273    498.329    596.833    498.329    498.329    498.329
 48.270    601.000    588.154     12.846    498.137    588.111    498.137    498.137    498.137
 48.370    535.000    576.665    -41.665    497.948    576.631    497.948    497.948    497.948
 48.470    547.549    565.675    -18.126    497.761    565.650    497.761    497.761    497.761
 48.570    538.000    557.055    -19.055    497.576    557.038    497.576    497.576    497.576
 48.670    586.000    551.516     34.484    497.392    551.503    497.392    497.392    497.392
 48.770    546.589    549.023     -2.434    497.211    549.015    497.211    497.211    497.211
 48.870    574.000    549.193     24.807    497.032    549.186    497.032    497.032    497.032
 48.970    554.712    551.599      3.113    496.855    551.594    496.855    496.855    496.855
 49.070    560.000    556.008      3.992    496.680    556.003    496.680    496.680    496.680
 49.170    568.000    562.553      5.447    496.507    562.548    496.507    496.507    496.507
 49.270    602.361    572.011     30.350    496.335    572.005    496.335    496.335    496.335
 49.370    581.000    586.358     -5.358    496.166    586.351    496.166    496.166    496.166
 49.470    595.000    609.811    -14.811    495.999    609.800    495.999    495.999    495.999
 49.570    655.000    650.283      4.717    495.834    650.265    495.834    495.834    495.834
 49.670    676.000    720.594    -44.594    495.671    720.564    495.671    495.671    495.671
 49.770    767.000    837.915    -70.915    495.510    837.864    495.510    495.510    495.510
 49.870    966.031   1019.542    -53.512    495.351   1019.465    495.351    495.351    495.351
 49.970   1247.000   1274.252    -27.252    495.194   1274.145    495.194    495.194    495.194
 50.070   1535.000   1590.944    -55.944    495.039   1590.814    495.039    495.039    495.039
 50.170   2005.050   1928.207     76.842    494.886   1928.074    494.886    494.886    494.886
 50.270   2198.000   2209.849    -11.849    494.735   2209.747    494.735    494.735    494.735
 50.370   2365.000   2341.853     23.147    494.586   2341.822    494.586    494.586    494.586
 50.470   2196.556   2269.535    -72.979    494.439   2269.595    494.439    494.439    494.439
 50.570   1991.000   2026.079    -35.079    494.294   2026.208    494.294    494.294    494.294
 50.670   1650.000   1700.782    -50.782    494.151   1700.940    494.151    494.151    494.151
 50.770   1336.275   1378.046    -41.771    494.010   1378.198    494.010    494.010    494.010
 50.870   1053.676   1110.008    -56.331    493.871   1110.137    493.871    493.871    493.871
 50.970    900.722    916.057    -15.334    493.733    916.157    493.733    493.733    493.733
 51.070    728.000    791.707    -63.707    493.598    791.783    493.598    493.598    493.598
 51.170    742.435    719.803     22.632    493.465    719.863    493.465    493.465    493.465
 51.270    678.888    680.139     -1.251    493.334    680.189    493.334    493.334    493.334
 51.370    688.009    655.677     32.332    493.204    655.721    493.204    493.204    493.204
 51.470    623.000    635.913    -12.913    493.077    635.951    493.077    493.077    493.077
 51.570    634.980    617.186     17.794    492.952    617.218    492.952    492.952    492.952
 51.670    652.735    599.754     52.981    492.828    599.778    492.828    492.828    492.828
 51.770    630.000    584.740     45.260    492.706    584.758    492.706    492.706    492.706
 51.870    632.000    572.878     59.122    492.587    572.891    492.587    492.587    492.587
 51.970    575.000    564.306     10.694    492.469    564.316    492.469    492.469    492.469
 52.070    560.000    558.708      1.292    492.353    558.715    492.353    492.353    492.353
 52.170    611.000    555.560     55.440    492.239    555.566    492.239    492.239    492.239
 52.270    550.000    554.364     -4.364    492.127    554.368    492.127    492.127    492.127
 52.370    639.000    554.807     84.193    492.017    554.810    492.017    492.017    492.017
 52.470    594.000    556.857     37.143    491.909    556.860    491.909    491.909    491.909
 52.570    591.000    560.861     30.139    491.803    560.864    491.803    491.803    491.803
 52.670    555.446    567.692    -12.247    491.698    567.695    491.698    491.698    491.698
 52.770    637.000    578.971     58.029    491.596    578.973    491.596    491.596    491.596
 52.870    618.658    597.284     21.374    491.495    597.285    491.495    491.495    491.495
 52.970    667.236    626.224     41.012    491.396    626.225    491.396    491.396    491.396
 53.070    649.000    670.003    -21.003    491.299    670.003    491.299    491.299    491.299
 53.170    761.000    732.422     28.578    491.204    732.422    491.204    491.204    491.204
 53.270    836.852    815.229     21.624    491.111    815.230    491.111    491.111    491.111
 53.370    852.000    915.936    -63.936    491.019    915.940    491.019    491.019    491.019
 53.470   1005.000   1025.562    -20.562    490.930   1025.572    490.930    490.930    490.930
 53.570   1116.393   1126.716    -10.323    490.842   1126.736    490.842    490.842    490.842
 53.670   1130.310   1194.821    -64.511    490.756   1194.852    490.756    490.756    490.756
 53.770   1129.000   1207.561    -78.561    490.672   1207.603    490.672    490.672    490.672
 53.870   1179.000   1160.077     18.923    490.590   1160.125    490.590    490.590    490.590
 53.970   1075.000   1069.293      5.707    490.509   1069.340    490.509    490.509    490.509
 54.070   1022.506    960.928     61.578    490.431    960.969    490.431    490.431    490.431
 54.170    820.506    855.874    -35.368    490.354    855.908    490.354    490.354    490.354
 54.270    776.000    766.248      9.752    490.279    766.274    490.279    490.279    490.279
 54.370    664.000    696.765    -32.765    490.205    696.784    490.205    490.205    490.205
 54.470    652.000    647.055      4.945    490.134    647.068    490.134    490.134    490.134
 54.570    647.000    613.876     33.124    490.064    613.886    490.064    490.064    490.064
 54.670    598.424    593.002      5.423    489.996    593.009    489.996    489.996    489.996
 54.770    601.000    580.510     20.490    489.929    580.515    489.929    489.929    489.929
 54.870    587.000    573.405     13.595    489.865    573.410    489.865    489.865    489.865
 54.970    580.000    569.704     10.296    489.802    569.708    489.802    489.802    489.802
 55.070    517.386    568.240    -50.854    489.741    568.243    489.741    489.741    489.741
 55.170    623.000    568.399     54.601    489.681    568.402    489.681    489.681    489.681
 55.270    602.000    569.904     32.096    489.623    569.907    489.623    489.623    489.623
 55.370    574.568    572.679      1.889    489.567    572.682    489.567    489.567    489.567
 55.470    608.000    576.787     31.213    489.513    576.789    489.513    489.513    489.513
 55.570    567.000    582.428    -15.428    489.460    582.430    489.460    489.460    489.460
 55.670    570.018    590.011    -19.993    489.409    590.013    489.409    489.409    489.409
 55.770    595.392    600.315     -4.922    489.360    600.317    489.360    489.360    489.360
 55.870    656.000    614.792     41.208    489.312    614.794    489.312    489.312    489.312
 55.970    636.000    636.050     -0.050    489.266    636.050    489.266    489.266    489.266
 56.070    688.217    668.472     19.745    489.222    668.470    489.222    489.222    489.222
 56.170    691.000    718.803    -27.803    489.179    718.797    489.179    489.179    489.179
 56.270    791.998    796.298     -4.300    489.138    796.288    489.138    489.138    489.138
 56.370    870.000    911.918    -41.918    489.098    911.901    489.098    489.098    489.098
 56.470    988.000   1075.987    -87.987    489.060   1075.963    489.060    489.060    489.060
 56.570   1185.000   1294.417   -109.417    489.024   1294.390    489.024    489.024    489.024
 56.670   1575.015   1563.904     11.111    488.989   1563.879    488.989    488.989    488.989
 56.770   1787.000   1866.893    -79.893    488.956   1866.881    488.956    488.956    488.956
 56.870   2094.000   2167.020    -73.020    488.924   2167.039    488.924    488.924    488.924
 56.970   2412.000   2408.055      3.945    488.894   2408.123    488.894    488.894    488.894
 57.070   2529.000   2526.466      2.534    488.866   2526.598    488.866    488.866    488.866
 57.170   2578.000   2484.395     93.605    488.839   2484.591    488.839    488.839    488.839
 57.270   2398.000   2297.016    100.984    488.813   2297.251    488.813    488.813    488.813
 57.370   2094.000   2020.238     73.762    488.789   2020.480    488.789    488.789    488.789
 57.470   1684.000   1715.975    -31.975    488.767   1716.197    488.767    488.767    488.767
 57.570   1397.000   1430.327    -33.327    488.746   1430.513    488.746    488.746    488.746
 57.670   1155.000   1189.583    -34.583    488.726   1189.728    488.726    488.726    488.726
 57.770    980.408   1003.615    -23.207    488.708   1003.722    488.708    488.708    488.708
 57.870    852.000    870.859    -18.859    488.692    870.932    488.692    488.692    488.692
 57.970    763.223    783.440    -20.217    488.677    783.487    488.677    488.677    488.677
 58.070    743.000    731.681     11.319    488.663    731.708    488.663    488.663    488.663
 58.170    715.000    707.198      7.802    488.651    707.211    488.651    488.651    488.651
 58.270    712.422    704.316      8.107    488.640    704.316    488.640    488.640    488.640
 58.370    703.000    720.016    -17.016    488.631    720.006    488.631    488.631    488.631
 58.470    819.000    752.968     66.032    488.623    752.948    488.623    488.623    488.623
 58.570    752.819    802.133    -49.315    488.616    802.105    488.616    488.616    488.616
 58.670    803.704    865.303    -61.600    488.611    865.269    488.611    488.611    488.611
 58.770    978.000    937.889     40.111    488.608    937.853    488.608    488.608    488.608
 58.870   1054.000   1012.747     41.253    488.605   1012.716    488.605    488.605    488.605
 58.970   1078.000   1081.998     -3.998    488.604   1081.976    488.604    488.604    488.604
 59.070   1119.508   1139.464    -19.956    488.604   1139.453    488.604    488.604    488.604
 59.170   1195.300   1180.560     14.740    488.606   1180.562    488.606    488.606    488.606
 59.270   1298.000   1200.903     97.097    488.609   1200.917    488.609    488.609    488.609
 59.370   1200.793   1198.572      2.221    488.613   1198.593    488.613    488.613    488.613
 59.470   1271.000   1178.540     92.460    488.619   1178.557    488.619    488.619    488.619
 59.570   1303.000   1152.225    150.775    488.626   1152.226    488.626    488.626    488.626
 59.670   1079.643   1131.933    -52.291    488.634   1131.907    488.634    488.634    488.634
 59.770   1158.000   1126.753     31.247    488.643   1126.691    488.643    488.643    488.643
 59.870   1203.000   1142.683     60.317    488.654   1142.580    488.654    488.654    488.654
 59.970   1248.000   1183.734     64.266    488.666   1183.587    488.666    488.666    488.666
 60.070   1296.000   1250.389     45.611    488.679   1250.196    488.679    488.679    488.679
 60.170   1430.000   1336.249     93.751    488.694   1336.016    488.694    488.694    488.694
 60.270   1459.799   1425.752     34.047    488.709   1425.489    488.709    488.709    488.709
 60.370   1537.000   1494.839     42.161    488.726   1494.568    488.726    488.726    488.726
 60.470   1530.000   1517.379     12.621    488.744   1517.127    488.744    488.744    488.744
 60.570   1553.060   1478.310     74.750    488.763   1478.100    488.763    488.763    488.763
 60.670   1429.000   1383.354     45.646    488.783   1383.196    488.783    488.783    488.783
 60.770   1291.000   1253.948     37.052    488.805   1253.837    488.805    488.805    488.805
 60.870   1222.000   1114.412    107.588    488.828   1114.339    488.828    488.828    488.828
 60.970    971.600    983.771    -12.171    488.851    983.725    488.851    488.851    488.851
 61.070    861.000    873.833    -12.833    488.876    873.804    488.876    488.876    488.876
 61.170    767.000    790.094    -23.094    488.902    790.072    488.902    488.902    488.902
 61.270    725.378    733.537     -8.159    488.929    733.517    488.929    488.929    488.929
 61.370    705.830    702.742      3.088    488.958    702.717    488.958    488.958    488.958
 61.470    714.000    695.823     18.177    488.987    695.791    488.987    488.987    488.987
 61.570    693.000    711.701    -18.701    489.017    711.656    489.017    489.017    489.017
 61.670    731.000    750.374    -19.374    489.049    750.314    489.049    489.049    489.049
 61.770    753.000    812.219    -59.219    489.081    812.138    489.081    489.081    489.081
 61.870    841.180    896.568    -55.388    489.114    896.465    489.114    489.114    489.114
 61.970   1030.742   1000.009     30.734    489.149    999.882    489.149    489.149    489.149
 62.070   1178.027   1114.770     63.257    489.184   1114.624    489.184    489.184    489.184
 62.170   1213.000   1227.508    -14.508    489.221   1227.350    489.221    489.221    489.221
 62.270   1245.000   1319.353    -74.353    489.258   1319.197    489.258    489.258    489.258
 62.370   1302.000   1369.548    -67.548    489.297   1369.411    489.297    489.297    489.297
 62.470   1410.339   1364.131     46.208    489.336   1364.025    489.336    489.336    489.336
 62.570   1277.000   1304.245    -27.245    489.376   1304.172    489.376    489.376    489.376
 62.670   1196.000   1205.281     -9.281    489.418   1205.238    489.418    489.418    489.418
 62.770   1120.981   1087.948     33.034    489.460   1087.926    489.460    489.460    489.460
 62.870    955.000    970.226    -15.226    489.503    970.219    489.503    489.503    489.503
 62.970    817.000    864.320    -47.320    489.547    864.319    489.547    489.547    489.547
 63.070    786.240    776.725      9.515    489.592    776.726    489.592    489.592    489.592
 63.170    697.000    709.320    -12.320    489.637    709.321    489.637    489.637    489.637
 63.270    647.625    660.769    -13.144    489.684    660.768    489.684    489.684    489.684
 63.370    640.000    627.989     12.011    489.731    627.985    489.731    489.731    489.731
 63.470    625.000    607.440     17.560    489.780    607.434    489.780    489.780    489.780
 63.570    596.000    596.047     -0.047    489.829    596.039    489.829    489.829    489.829
 63.670    623.136    591.702     31.434    489.878    591.690    489.878    489.878    489.878
 63.770    608.000    593.407     14.593    489.929    593.392    489.929    489.929    489.929
 63.870    575.695    601.201    -25.506    489.981    601.181    489.981    489.981    489.981
 63.970    632.000    615.920     16.080    490.033    615.892    490.033    490.033    490.033
 64.070    638.859    638.854      0.004    490.086    638.818    490.086    490.086    490.086
 64.170    683.000    671.293     11.707    490.139    671.244    490.139    490.139    490.139
 64.270    725.000    713.966     11.034    490.194    713.904    490.194    490.194    490.194
 64.370    759.000    766.433     -7.433    490.249    766.354    490.249    490.249    490.249
 64.470    812.735    826.454    -13.719    490.305    826.360    490.305    490.305    490.305
 64.570    901.000    889.440     11.560    490.361    889.333    490.361    490.361    490.361
 64.670    916.551    948.219    -31.667    490.419    948.104    490.419    490.419    490.419
 64.770   1063.025    993.862     69.163    490.476    993.747    490.476    490.476    490.476
 64.870   1023.000   1018.241      4.759    490.535   1018.135    490.535    490.535    490.535
 64.970   1037.000   1017.363     19.637    490.594   1017.275    490.594    490.594    490.594
 65.070    977.064    992.950    -15.886    490.654    992.883    490.654    490.654    490.654
 65.170    960.000    951.234      8.766    490.714    951.189    490.714    490.714    490.714
 65.270    916.282    900.363     15.919    490.775    900.340    490.775    490.775    490.775
 65.370    880.943    847.862     33.081    490.837    847.858    490.837    490.837    490.837
 65.470    841.000    798.852     42.148    490.899    798.862    490.899    490.899    490.899
 65.570    695.474    755.650    -60.176    490.962    755.671    490.962    490.962    490.962
 65.670    679.692    718.458    -38.767    491.025    718.485    491.025    491.025    491.025
 65.770    669.000    686.639    -17.639    491.089    686.667    491.089    491.089    491.089
 65.870    663.252    659.725      3.527    491.154    659.751    491.154    491.154    491.154
 65.970    580.166    637.551    -57.385    491.218    637.573    491.218    491.218    491.218
 66.070    613.000    619.942     -6.942    491.284    619.959    491.284    491.284    491.284
 66.170    594.505    606.576    -12.071    491.350    606.588    491.350    491.350    491.350
 66.270    595.000    597.037     -2.037    491.416    597.045    491.416    491.416    491.416
 66.370    585.000    590.897     -5.897    491.483    590.902    491.483    491.483    491.483
 66.470    591.000    587.770      3.230    491.550    587.774    491.550    491.550    491.550
 66.570    562.419    587.352    -24.933    491.618    587.355    491.618    491.618    491.618
 66.670    596.763    589.485      7.278    491.686    589.488    491.686    491.686    491.686
 66.770    563.000    594.259    -31.259    491.754    594.261    491.754    491.754    491.754
 66.870    590.000    602.153    -12.153    491.823    602.155    491.823    491.823    491.823
 66.970    643.373    614.227     29.146    491.893    614.229    491.893    491.893    491.893
 67.070    634.490    632.351      2.139    491.962    632.353    491.962    491.962    491.962
 67.170    663.000    659.445      3.555    492.032    659.444    492.032    492.032    492.032
 67.270    691.000    699.643     -8.643    492.102    699.641    492.102    492.102    492.102
 67.370    729.000    758.260    -29.260    492.173    758.255    492.173    492.173    492.173
 67.470    808.000    841.372    -33.372    492.244    841.366    492.244    492.244    492.244
 67.570    916.000    954.914    -38.914    492.315    954.909    492.315    492.315    492.315
 67.670   1127.695   1103.246     24.449    492.387   1103.246    492.387    492.387    492.387
 67.770   1237.000   1287.364    -50.364    492.459   1287.377    492.459    492.459    492.459
 67.870   1433.000   1503.014    -70.014    492.531   1503.050    492.531    492.531    492.531
 67.970   1621.000   1738.959   -117.959    492.603   1739.031    492.603    492.603    492.603
 68.070   1940.000   1975.575    -35.575    492.676   1975.697    492.676    492.676    492.676
 68.170   2093.000   2184.320    -91.320    492.749   2184.504    492.749    492.749    492.749
 68.270   2222.775   2330.458   -107.682    492.822   2330.709    492.822    492.822    492.822
 68.370   2448.000   2382.728     65.272    492.895   2383.040    492.895    492.895    492.895
 68.470   2435.689   2328.295    107.393    492.968   2328.644    492.968    492.968    492.968
 68.570   2117.698   2180.552    -62.854    493.042   2180.909    493.042    493.042    493.042
 68.670   1937.000   1971.028    -34.028    493.116   1971.365    493.116    493.116    493.116
 68.770   1767.000   1734.421     32.579    493.190   1734.722    493.190    493.190    493.190
 68.870   1497.000   1499.083     -2.083    493.264   1499.338    493.264    493.264    493.264
 68.970   1284.000   1284.425     -0.425    493.338   1284.631    493.338    493.338    493.338
 69.070   1158.305   1101.488     56.817    493.412   1101.649    493.412    493.412    493.412
 69.170    950.000    954.375     -4.375    493.486    954.495    493.486    493.486    493.486
 69.270    818.000    841.978    -23.978    493.561    842.066    493.561    493.561    493.561
 69.370    707.000    759.868    -52.868    493.635    759.931    493.635    493.635    493.635
 69.470    688.014    702.080    -14.066    493.710    702.126    493.710    493.710    493.710
 69.570    633.000    662.525    -29.525    493.784    662.558    493.784    493.784    493.784
 69.670    629.253    635.884     -6.631    493.859    635.908    493.859    493.859    493.859
 69.770    648.000    617.998     30.002    493.933    618.016    493.933    493.933    493.933
 69.870    638.000    605.892     32.108    494.008    605.906    494.008    494.008    494.008
 69.970    599.000    597.591      1.409    494.083    597.602    494.083    494.083    494.083
 70.070    584.000    591.863     -7.863    494.157    591.871    494.157    494.157    494.157
 70.170    603.758    587.983     15.775    494.232    587.990    494.232    494.232    494.232
 70.270    591.000    585.557      5.443    494.306    585.561    494.306    494.306    494.306
 70.370    538.907    584.401    -45.493    494.380    584.404    494.380    494.380    494.380
 70.470    576.000    584.489     -8.489    494.455    584.490    494.455    494.455    494.455
 70.570    642.000    585.942     56.058    494.529    585.942    494.529    494.529    494.529
 70.670    559.190    589.063    -29.873    494.603    589.061    494.603    494.603    494.603
 70.770    610.000    594.409     15.591    494.677    594.405    494.677    494.677    494.677
 70.870    658.000    602.897     55.103    494.751    602.890    494.751    494.751    494.751
 70.970    619.000    615.931      3.069    494.825    615.919    494.825    494.825    494.825
 71.070    624.000    635.515    -11.515    494.898    635.496    494.898    494.898    494.898
 71.170    643.000    664.311    -21.311    494.972    664.285    494.972    494.972    494.972
 71.270    708.299    705.567      2.732    495.045    705.529    495.045    495.045    495.045
 71.370    792.899    762.837     30.062    495.118    762.785    495.118    495.118    495.118
 71.470    863.130    839.471     23.660    495.191    839.400    495.191    495.191    495.191
 71.570    884.000    937.848    -53.848    495.264    937.757    495.264    495.264    495.264
 71.670   1073.820   1058.466     15.354    495.336   1058.352    495.336    495.336    495.336
 71.770   1197.000   1198.981     -1.981    495.408   1198.844    495.408    495.408    495.408
 71.870   1414.926   1353.324     61.602    495.480   1353.167    495.480    495.480    495.480
 71.970   1513.000   1510.982      2.018    495.552   1510.811    495.552    495.552    495.552
 72.070   1619.490   1656.669    -37.179    495.623   1656.493    495.623    495.623    495.623
 72.170   1766.000   1771.248     -5.248    495.694   1771.080    495.694    495.694    495.694
 72.270   1874.000   1835.415     38.585    495.765   1835.269    495.765    495.765    495.765
 72.370   1910.000   1836.369     73.631    495.835   1836.254    495.835    495.835    495.835
 72.470   1791.000   1773.818     17.182    495.905   1773.738    495.905    495.905    495.905
 72.570   1737.000   1660.138     76.862    495.975   1660.090    495.975    495.975    495.975
 72.670   1537.000   1514.516     22.484    496.044   1514.493    496.044    496.044    496.044
 72.770   1406.000   1356.186     49.814    496.113   1356.180    496.113    496.113    496.113
 72.870   1243.000   1200.602     42.398    496.182   1200.607    496.182    496.182    496.182
 72.970   1100.000   1058.440     41.560    496.250   1058.451    496.250    496.250    496.250
 73.070    979.000    935.907     43.093    496.318    935.920    496.318    496.318    496.318
 73.170    866.000    835.462     30.538    496.385    835.474    496.385    496.385    496.385
 73.270    813.000    756.700     56.300    496.452    756.710    496.452    496.452    496.452
 73.370    768.000    697.310     70.690    496.519    697.317    496.519    496.519    496.519
 73.470    665.000    653.993     11.007    496.585    653.999    496.585    496.585    496.585
 73.570    710.000    623.224     86.776    496.651    623.228    496.651    496.651    496.651
 73.670    593.697    601.774     -8.077    496.716    601.778    496.716    496.716    496.716
 73.770    639.000    586.998     52.002    496.780    587.002    496.780    496.780    496.780
 73.870    600.838    576.905     23.934    496.845    576.909    496.845    496.845    496.845
 73.970    645.000    570.104     74.896    496.908    570.110    496.908    496.908    496.908
 74.070    607.000    565.675     41.325    496.971    565.684    496.971    496.971    496.971
 74.170    557.000    563.028     -6.028    497.034    563.040    497.034    497.034    497.034
 74.270    516.169    561.766    -45.596    497.096    561.782    497.096    497.096    497.096
 74.370    593.862    561.588     32.274    497.157    561.610    497.157    497.157    497.157
 74.470    518.891    562.214    -43.323    497.218    562.241    497.218    497.218    497.218
 74.570    622.000    563.328     58.672    497.278    563.361    497.278    497.278    497.278
 74.670    535.893    564.560    -28.667    497.338    564.598    497.338    497.338    497.338
 74.770    587.000    565.484     21.516    497.397    565.526    497.397    497.397    497.397
 74.870    574.213    565.679      8.534    497.456    565.724    497.456    497.456    497.456
 74.970    660.000    564.854     95.146    497.513    564.900    497.513    497.513    497.513
 75.070    646.000    562.971     83.029    497.570    563.016    497.570    497.570    497.570
 75.170    685.000    560.278    124.722    497.627    560.319    497.627    497.627    497.627
 75.270    640.000    557.223     82.777    497.683    557.258    497.683    497.683    497.683
 75.370    652.000    554.325     97.675    497.738    554.355    497.738    497.738    497.738
 75.470    586.133    552.106     34.027    497.792    552.129    497.792    497.792    497.792
 75.570    577.000    551.061     25.939    497.846    551.077    497.846    497.846    497.846
 75.670    633.000    551.667     81.333    497.899    551.677    497.899    497.899    497.899
 75.770    622.000    554.382     67.618    497.952    554.385    497.952    497.952    497.952
 75.870    597.000    559.622     37.378    498.003    559.618    498.003    498.003    498.003
 75.970    601.615    567.728     33.887    498.054    567.717    498.054    498.054    498.054
 76.070    574.000    578.906     -4.906    498.104    578.887    498.104    498.104    498.104
 76.170    611.706    593.146     18.560    498.153    593.120    498.153    498.153    498.153
 76.270    630.000    610.150     19.850    498.202    610.116    498.202    498.202    498.202
 76.370    683.469    629.247     54.223    498.250    629.205    498.250    498.250    498.250
 76.470    620.287    649.329    -29.042    498.297    649.280    498.297    498.297    498.297
 76.570    723.740    668.805     54.935    498.343    668.750    498.343    498.343    498.343
 76.670    681.000    685.626     -4.626    498.388    685.566    498.388    498.388    498.388
 76.770    687.668    697.498     -9.830    498.432    697.437    498.432    498.432    498.432
 76.870    707.000    702.424      4.576    498.476    702.365    498.476    498.476    498.476
 76.970    703.967    699.437      4.530    498.519    699.382    498.519    498.519    498.519
 77.070    737.194    689.029     48.165    498.561    688.980    498.561    498.561    498.561
 77.170    666.000    672.913     -6.913    498.602    672.872    498.602    498.602    498.602
 77.270    641.476    653.327    -11.850    498.642    653.294    498.642    498.642    498.642
 77.370    589.508    632.404    -42.897    498.681    632.378    498.681    498.681    498.681
 77.470    583.539    611.860    -28.321    498.719    611.840    498.719    498.719    498.719
 77.570    566.574    592.912    -26.338    498.757    592.897    498.757    498.757    498.757
 77.670    564.000    576.310    -12.310    498.793    576.299    498.793    498.793    498.793
 77.770    568.997    562.398      6.598    498.829    562.390    498.829    498.829    498.829
 77.870    517.000    551.194    -34.194    498.863    551.188    498.863    498.863    498.863
 77.970    532.000    542.496    -10.496    498.897    542.492    498.897    498.897    498.897
 78.070    554.875    535.952     18.924    498.930    535.948    498.930    498.930    498.930
 78.170    520.000    531.156    -11.156    498.961    531.153    498.961    498.961    498.961
 78.270    522.000    527.712     -5.712    498.992    527.710    498.992    498.992    498.992
 78.370    492.917    525.273    -32.356    499.022    525.271    499.022    499.022    499.022
 78.470    550.508    523.557     26.952    499.050    523.555    499.050    499.050    499.050
 78.570    506.000    522.353    -16.353    499.078    522.351    499.078    499.078    499.078
 78.670    510.000    521.511    -11.511    499.105    521.510    499.105    499.105    499.105
 78.770    491.408    520.935    -29.527    499.130    520.934    499.130    499.130    499.130
 78.870    507.000    520.564    -13.564    499.155    520.563    499.155    499.155    499.155
 78.970    486.788    520.367    -33.578    499.178    520.366    499.178    499.178    499.178
 79.070    530.000    520.333      9.667    499.201    520.332    499.201    499.201    499.201
 79.170    496.000    520.467    -24.467    499.222    520.466    499.222    499.222    499.222
 79.270    510.000    520.784    -10.784    499.242    520.783    499.242    499.242    499.242
 79.370    487.618    521.312    -33.694    499.262    521.311    499.262    499.262    499.262
 79.470    533.428    522.084     11.344    499.280    522.083    499.280    499.280    499.280
 79.570    519.000    523.147     -4.147    499.297    523.145    499.297    499.297    499.297
 79.670    501.000    524.556    -23.556    499.313    524.554    499.313    499.313    499.313
 79.770    511.000    526.383    -15.383    499.327    526.381    499.327    499.327    499.327
 79.870    492.000    528.722    -36.722    499.341    528.719    499.341    499.341    499.341
 79.970    532.000    531.692      0.308    499.353    531.688    499.353    499.353    499.353
 80.070    485.360    535.444    -50.084    499.365    535.440    499.365    499.365    499.365
 80.170    545.000    540.163      4.837    499.375    540.159    499.375    499.375    499.375
 80.270    585.930    546.066     39.864    499.384    546.062    499.384    499.384    499.384
 80.370    589.541    553.404     36.137    499.392    553.401    499.392    499.392    499.392
 80.470    545.000    562.453    -17.453    499.398    562.451    499.398    499.398    499.398
 80.570    561.000    573.499    -12.499    499.404    573.499    499.404    499.404    499.404
 80.670    584.000    586.778     -2.778    499.408    586.781    499.408    499.408    499.408
 80.770    553.000    602.399    -49.399    499.411    602.405    499.411    499.411    499.411
 80.870    601.000    620.254    -19.254    499.413    620.264    499.413    499.413    499.413
 80.970    643.000    639.945      3.055    499.413    639.961    499.413    499.413    499.413
 81.070    650.000    660.756    -10.756    499.413    660.777    499.413    499.413    499.413
 81.170    702.263    681.679     20.584    499.411    681.707    499.411    499.411    499.411
 81.270    660.000    701.540    -41.540    499.408    701.574    499.408    499.408    499.408
 81.370    719.564    719.178      0.386    499.403    719.220    499.403    499.403    499.403
 81.470    719.000    733.606    -14.606    499.398    733.654    499.398    499.398    499.398
 81.570    705.000    744.080    -39.080    499.391    744.135    499.391    499.391    499.391
 81.670    705.000    750.150    -45.150    499.382    750.211    499.382    499.382    499.382
 81.770    708.104    751.676    -43.572    499.373    751.742    499.373    499.373    499.373
 81.870    716.951    748.788    -31.837    499.362    748.858    499.362    499.362    499.362
 81.970    711.359    741.789    -30.430    499.350    741.862    499.350    499.350    499.350
 82.070    675.172    731.126    -55.954    499.337    731.201    499.337    499.337    499.337
 82.170    656.000    717.458    -61.458    499.322    717.533    499.322    499.322    499.322
 82.270    713.000    701.664     11.336    499.306    701.737    499.306    499.306    499.306
 82.370    663.000    684.700    -21.700    499.288    684.770    499.288    499.288    499.288
 82.470    672.000    667.388      4.612    499.270    667.455    499.270    499.270    499.270
 82.570    640.038    650.300    -10.262    499.250    650.362    499.250    499.250    499.250
 82.670    611.000    633.801    -22.801    499.228    633.859    499.228    499.228    499.228
 82.770    592.000    618.181    -26.181    499.206    618.232    499.206    499.206    499.206
 82.870    581.000    603.741    -22.741    499.181    603.786    499.181    499.181    499.181
 82.970    584.000    590.807     -6.807    499.156    590.844    499.156    499.156    499.156
 83.070    546.000    579.670    -33.670    499.129    579.699    499.129    499.129    499.129
 83.170    536.068    570.544    -34.476    499.101    570.566    499.101    499.101    499.101
 83.270    608.113    563.550     44.564    499.071    563.563    499.071    499.071    499.071
 83.370    529.000    558.714    -29.714    499.040    558.719    499.040    499.040    499.040
 83.470    512.632    555.976    -43.344    499.008    555.974    499.008    499.008    499.008
 83.570    519.000    555.188    -36.188    498.974    555.178    498.974    498.974    498.974
 83.670    539.000    556.114    -17.114    498.939    556.096    498.939    498.939    498.939
 83.770    523.000    558.430    -35.430    498.903    558.405    498.903    498.903    498.903
 83.870    564.000    561.726      2.274    498.865    561.694    498.865    498.865    498.865
 83.970    548.000    565.509    -17.509    498.825    565.471    498.825    498.825    498.825
 84.070    505.000    569.212    -64.212    498.784    569.170    498.784    498.784    498.784
 84.170    573.666    572.196      1.470    498.742    572.151    498.742    498.742    498.742
 84.270    553.686    573.979    -20.292    498.698    573.932    498.698    498.698    498.698
 84.370    541.565    574.113    -32.549    498.653    574.067    498.653    498.653    498.653
 84.470    546.000    572.423    -26.423    498.607    572.378    498.607    498.607    498.607
 84.570    567.482    569.037     -1.556    498.559    568.996    498.559    498.559    498.559
 84.670    599.731    564.321     35.410    498.509    564.284    498.509    498.509    498.509
 84.770    574.000    558.744     15.256    498.458    558.712    498.458    498.458    498.458
 84.870    521.000    552.776    -31.776    498.406    552.748    498.406    498.406    498.406
 84.970    508.000    546.818    -38.818    498.352    546.795    498.352    498.352    498.352
 85.070    556.000    541.188     14.812    498.297    541.169    498.297    498.297    498.297
 85.170    520.000    536.109    -16.109    498.240    536.093    498.240    498.240    498.240
 85.270    541.128    531.717      9.411    498.182    531.704    498.182    498.182    498.182
 85.370    548.320    528.073     20.247    498.122    528.062    498.122    498.122    498.122
 85.470    498.227    525.173    -26.946    498.061    525.164    498.061    498.061    498.061
 85.570    544.000    522.981     21.019    497.998    522.972    497.998    497.998    497.998
 85.670    512.807    521.426     -8.619    497.934    521.419    497.934    497.934    497.934
 85.770    544.000    520.436     23.564    497.868    520.428    497.868    497.868    497.868
 85.870    559.000    519.945     39.055    497.801    519.938    497.801    497.801    497.801
 85.970    566.682    519.909     46.773    497.732    519.901    497.732    497.732    497.732
 86.070    529.000    520.310      8.690    497.662    520.301    497.662    497.662    497.662
 86.170    506.000    521.163    -15.163    497.591    521.152    497.591    497.591    497.591
 86.270    572.659    522.513     50.146    497.517    522.500    497.517    497.517    497.517
 86.370    546.000    524.437     21.563    497.443    524.422    497.443    497.443    497.443
 86.470    516.000    527.037    -11.037    497.366    527.019    497.366    497.366    497.366
 86.570    502.803    530.432    -27.628    497.289    530.409    497.289    497.289    497.289
 86.670    488.606    534.742    -46.136    497.210    534.714    497.210    497.210    497.210
 86.770    490.176    540.079    -49.904    497.129    540.045    497.129    497.129    497.129
 86.870    509.535    546.522    -36.987    497.047    546.480    497.047    497.047    497.047
 86.970    590.000    554.096     35.904    496.963    554.045    496.963    496.963    496.963
 87.070    587.000    562.746     24.254    496.877    562.686    496.877    496.877    496.877
 87.170    575.000    572.317      2.683    496.791    572.247    496.791    496.791    496.791
 87.270    584.000    582.531      1.469    496.702    582.450    496.702    496.702    496.702
 87.370    585.000    592.973     -7.973    496.612    592.882    496.612    496.612    496.612
 87.470    616.000    603.088     12.912    496.521    602.988    496.521    496.521    496.521
 87.570    595.000    612.196    -17.196    496.428    612.088    496.428    496.428    496.428
 87.670    644.674    619.555     25.119    496.334    619.443    496.334    496.334    496.334
 87.770    660.000    624.474     35.526    496.238    624.362    496.238    496.238    496.238
 87.870    641.000    626.484     14.516    496.140    626.375    496.140    496.140    496.140
 87.970    664.810    625.478     39.332    496.041    625.375    496.041    496.041    496.041
 88.070    622.000    621.743      0.257    495.940    621.649    495.940    495.940    495.940
 88.170    573.415    615.874    -42.459    495.838    615.791    495.838    495.838    495.838
 88.270    632.000    608.620     23.380    495.735    608.550    495.735    495.735    495.735
 88.370    639.198    600.764     38.434    495.629    600.707    495.629    495.629    495.629
 88.470    590.000    593.041     -3.041    495.523    592.997    495.523    495.523    495.523
 88.570    579.000    586.090     -7.090    495.415    586.058    495.415    495.415    495.415
 88.670    600.294    580.422     19.872    495.305    580.401    495.305    495.305    495.305
 88.770    557.000    576.398    -19.398    495.193    576.387    495.193    495.193    495.193
 88.870    567.000    574.215     -7.215    495.081    574.214    495.081    495.081    495.081
 88.970    584.000    573.905     10.095    494.966    573.913    494.966    494.966    494.966
 89.070    578.000    575.344      2.656    494.850    575.360    494.850    494.850    494.850
 89.170    567.000    578.261    -11.261    494.733    578.286    494.733    494.733    494.733
 89.270    640.000    582.259     57.741    494.614    582.292    494.614    494.614    494.614
 89.370    535.315    586.827    -51.512    494.494    586.867    494.494    494.494    494.494
 89.470    620.000    591.366     28.634    494.372    591.413    494.372    494.372    494.372
 89.570    625.000    595.232     29.768    494.248    595.285    494.248    494.248    494.248
 89.670    626.000    597.803     28.197    494.123    597.861    494.123    494.123    494.123
 89.770    547.000    598.583    -51.583    493.997    598.645    493.997    493.997    493.997
 89.870    597.000    597.311     -0.311    493.868    597.374    493.868    493.868    493.868
 89.970    617.000    594.015     22.985    493.739    594.078    493.739    493.739    493.739
 90.070    571.000    588.982    -17.982    493.608    589.042    493.608    493.608    493.608
 90.170    535.000    582.660    -47.660    493.475    582.716    493.475    493.475    493.475
 90.270    572.942    575.548     -2.606    493.341    575.599    493.341    493.341    493.341
 90.370    595.324    568.118     27.206    493.206    568.164    493.206    493.206    493.206
 90.470    516.000    560.772    -44.772    493.068    560.812    493.068    493.068    493.068
 90.570    554.000    553.828      0.172    492.930    553.862    492.930    492.930    492.930
 90.670    572.000    547.517     24.483    492.790    547.544    492.790    492.790    492.790
 90.770    520.000    541.987    -21.987    492.648    542.009    492.648    492.648    492.648
 90.870    531.985    537.315     -5.330    492.505    537.333    492.505    492.505    492.505
 90.970    550.000    533.517     16.483    492.361    533.531    492.361    492.361    492.361
 91.070    492.778    530.564    -37.786    492.215    530.574    492.215    492.215    492.215
 91.170    512.000    528.399    -16.399    492.067    528.406    492.067    492.067    492.067
 91.270    535.000    526.952      8.048    491.918    526.957    491.918    491.918    491.918
 91.370    482.513    526.157    -43.644    491.768    526.159    491.768    491.768    491.768
 91.470    512.000    525.961    -13.961    491.616    525.962    491.616    491.616    491.616
 91.570    462.000    526.336    -64.336    491.462    526.336    491.462    491.462    491.462
 91.670    529.000    527.286      1.714    491.307    527.283    491.307    491.307    491.307
 91.770    520.000    528.844     -8.844    491.151    528.840    491.151    491.151    491.151
 91.870    515.000    531.081    -16.081    490.993    531.075    490.993    490.993    490.993
 91.970    541.000    534.099      6.901    490.834    534.091    490.834    490.834    490.834
 92.070    550.000    538.025     11.975    490.674    538.015    490.674    490.674    490.674
 92.170    522.000    543.008    -21.008    490.512    542.994    490.512    490.512    490.512
 92.270    517.000    549.202    -32.202    490.348    549.186    490.348    490.348    490.348
 92.370    578.301    556.762     21.539    490.183    556.741    490.183    490.183    490.183
 92.470    539.000    565.819    -26.819    490.017    565.793    490.017    490.017    490.017
 92.570    603.000    576.472     26.528    489.849    576.441    489.849    489.849    489.849
 92.670    604.742    588.768     15.973    489.680    588.732    489.680    489.680    489.680
 92.770    638.571    602.689     35.882    489.510    602.647    489.510    489.510    489.510
 92.870    594.000    618.134    -24.134    489.338    618.085    489.338    489.338    489.338
 92.970    640.230    634.907      5.323    489.165    634.852    489.165    489.165    489.165
 93.070    617.000    652.707    -35.707    488.990    652.646    488.990    488.990    488.990
 93.170    661.000    671.126    -10.126    488.814    671.060    488.814    488.814    488.814
 93.270    669.000    689.669    -20.669    488.637    689.598    488.637    488.637    488.637
 93.370    745.000    707.804     37.196    488.458    707.730    488.458    488.458    488.458
 93.470    782.997    725.060     57.937    488.278    724.984    488.278    488.278    488.278
 93.570    671.000    741.129    -70.129    488.097    741.052    488.097    488.097    488.097
 93.670    811.107    755.935     55.172    487.914    755.857    487.914    487.914    487.914
 93.770    742.000    769.615    -27.615    487.730    769.539    487.730    487.730    487.730
 93.870    761.000    782.428    -21.428    487.545    782.353    487.545    487.545    487.545
 93.970    757.000    794.615    -37.615    487.358    794.541    487.358    487.358    487.358
 94.070    868.456    806.331     62.125    487.170    806.259    487.170    487.170    487.170
 94.170    862.290    817.652     44.638    486.981    817.582    486.981    486.981    486.981
 94.270    841.000    828.566     12.434    486.790    828.499    486.790    486.790    486.790
 94.370    827.513    839.112    -11.599    486.599    839.048    486.599    486.599    486.599
 94.470    820.000    849.391    -29.391    486.405    849.329    486.405    486.405    486.405
 94.570    865.000    859.503      5.497    486.211    859.445    486.211    486.211    486.211
 94.670    861.151    869.422     -8.271    486.016    869.367    486.016    486.016    486.016
 94.770    914.000    878.870     35.130    485.819    878.819    485.819    485.819    485.819
 94.870    891.000    887.253      3.747    485.621    887.206    485.621    485.621    485.621
 94.970    899.000    893.675      5.325    485.422    893.633    485.422    485.422    485.422
 95.070    929.000    897.040     31.960    485.221    897.004    485.221    485.221    485.221
 95.170    932.476    896.255     36.221    485.020    896.226    485.020    485.020    485.020
 95.270    938.000    890.503     47.497    484.817    890.482    484.817    484.817    484.817
 95.370    827.666    879.499    -51.832    484.613    879.485    484.613    484.613    484.613
 95.470    877.275    863.627     13.648    484.408    863.620    484.408    484.408    484.408
 95.570    840.903    843.880     -2.978    484.201    843.880    484.201    484.201    484.201
 95.670    794.000    821.666    -27.666    483.994    821.670    483.994    483.994    483.994
 95.770    805.000    798.575      6.425    483.785    798.582    483.785    483.785    483.785
 95.870    797.979    776.215     21.765    483.576    776.223    483.576    483.576    483.576
 95.970    748.204    756.111     -7.907    483.365    756.119    483.365    483.365    483.365
 96.070    816.000    739.664     76.336    483.153    739.669    483.153    483.153    483.153
 96.170    756.326    728.124     28.203    482.940    728.125    482.940    482.940    482.940
 96.270    758.000    722.583     35.417    482.726    722.580    482.726    482.726    482.726
 96.370    744.000    723.964     20.036    482.511    723.955    482.511    482.511    482.511
 96.470    754.000    733.008     20.992    482.295    732.992    482.295    482.295    482.295
 96.570    786.282    750.261     36.022    482.078    750.237    482.078    482.078    482.078
 96.670    777.000    776.053      0.947    481.860    776.021    481.860    481.860    481.860
 96.770    816.000    810.476      5.524    481.641    810.435    481.641    481.641    481.641
 96.870    934.000    853.339     80.661    481.420    853.291    481.420    481.420    481.420
 96.970    966.675    904.134     62.541    481.199    904.078    481.199    481.199    481.199
 97.070    996.408    961.977     34.431    480.977    961.914    480.977    480.977    480.977
 97.170   1001.000   1025.567    -24.567    480.754   1025.499    480.754    480.754    480.754
 97.270   1016.000   1093.139    -77.139    480.530   1093.068    480.530    480.530    480.530
 97.370   1109.735   1162.437    -52.702    480.305   1162.365    480.305    480.305    480.305
 97.470   1180.000   1230.704    -50.704    480.079   1230.635    480.079    480.079    480.079
 97.570   1367.000   1294.726     72.274    479.853   1294.663    479.853    479.853    479.853
 97.670   1407.451   1350.967     56.483    479.625   1350.914    479.625    479.625    479.625
 97.770   1401.000   1395.858      5.142    479.397   1395.818    479.397    479.397    479.397
 97.870   1456.889   1426.259     30.630    479.167   1426.235    479.167    479.167    479.167
 97.970   1378.969   1440.007    -61.037    478.937   1440.000    478.937    478.937    478.937
 98.070   1482.000   1436.354     45.646    478.706   1436.366    478.706    478.706    478.706
 98.170   1435.000   1416.123     18.877    478.474   1416.151    478.474    478.474    478.474
 98.270   1408.607   1381.473     27.134    478.242   1381.516    478.242    478.242    478.242
 98.370   1381.000   1335.448     45.552    478.009   1335.502    478.009    478.009    478.009
 98.470   1224.000   1281.486    -57.486    477.774   1281.547    477.774    477.774    477.774
 98.570   1149.910   1223.047    -73.137    477.540   1223.111    477.540    477.540    477.540
 98.670   1178.881   1163.377     15.505    477.304   1163.441    477.304    477.304    477.304
 98.770   1143.000   1105.385     37.615    477.068   1105.447    477.068    477.068    477.068
 98.870   1039.751   1051.561    -11.810    476.831   1051.618    476.831    476.831    476.831
 98.970    982.000   1004.148    -22.148    476.593   1004.199    476.593    476.593    476.593
 99.070   1018.708    964.933     53.775    476.355    964.976    476.355    476.355    476.355
 99.170    923.000    935.364    -12.364    476.116    935.399    476.116    476.116    476.116
 99.270    905.000    916.595    -11.595    475.877    916.623    475.877    475.877    475.877
 99.370    855.344    909.487    -54.143    475.637    909.507    475.637    475.637    475.637
 99.470    966.926    914.610     52.316    475.396    914.624    475.396    475.396    475.396
 99.570    882.000    932.257    -50.257    475.155    932.266    475.155    475.155    475.155
 99.670    934.000    962.444    -28.444    474.913    962.450    474.913    474.913    474.913
 99.770   1026.000   1004.923     21.077    474.671   1004.927    474.671    474.671    474.671
 99.870   1084.246   1059.150     25.097    474.428   1059.155    474.428    474.428    474.428
 99.970   1125.000   1124.245      0.755    474.184   1124.254    474.184    474.184    474.184
100.070   1208.581   1198.973      9.607    473.941   1198.989    473.941    473.941    473.941
100.170   1262.000   1281.687    -19.687    473.696   1281.712    473.696    473.696    473.696
100.270   1367.250   1370.291     -3.040    473.452   1370.329    473.452    473.452    473.452
100.370   1536.278   1462.225     74.052    473.207   1462.280    473.207    473.207    473.207
100.470   1609.843   1554.516     55.327    472.961   1554.590    472.961    472.961    472.961
100.570   1653.000   1643.918      9.082    472.716   1644.014    472.716    472.716    472.716
100.670   1649.717   1727.162    -77.445    472.469   1727.283    472.469    472.469    472.469
100.770   1821.000   1801.270     19.730    472.223   1801.416    472.223    472.223    472.223
100.870   1924.492   1863.803     60.688    471.976   1863.973    471.976    471.976    471.976
100.970   1917.000   1912.954      4.046    471.729   1913.146    471.729    471.729    471.729
101.070   2020.000   1947.441     72.559    471.482   1947.653    471.482    471.482    471.482
101.170   1990.280   1966.327     23.953    471.234   1966.556    471.234    471.234    471.234
101.270   1962.441   1968.921     -6.480    470.986   1969.163    470.986    470.986    470.986
101.370   1925.000   1954.895    -29.895    470.738   1955.147    470.738    470.738    470.738
101.470   1894.128   1924.593    -30.465    470.490   1924.851    470.490    470.490    470.490
101.570   1904.000   1879.340     24.660    470.242   1879.600    470.242    470.242    470.242
101.670   1837.000   1821.562     15.438    469.994   1821.820    469.994    469.994    469.994
101.770   1699.729   1754.584    -54.855    469.745   1754.835    469.745    469.745    469.745
101.870   1677.000   1682.192     -5.192    469.496   1682.433    469.496    469.496    469.496
101.970   1637.000   1608.136     28.864    469.248   1608.364    469.248    469.248    469.248
102.070   1605.421   1535.730     69.692    468.999   1535.944    468.999    468.999    468.999
102.170   1433.566   1467.612    -34.046    468.750   1467.810    468.750    468.750    468.750
102.270   1443.000   1405.648     37.352    468.502   1405.831    468.502    468.502    468.502
102.370   1424.988   1350.919     74.069    468.253   1351.088    468.253    468.253    468.253
102.470   1317.000   1303.760     13.240    468.004   1303.916    468.004    468.004    468.004
102.570   1319.000   1263.819     55.181    467.756   1263.963    467.756    467.756    467.756
102.670   1209.065   1230.135    -21.071    467.507   1230.270    467.507    467.507    467.507
102.770   1173.000   1201.238    -28.238    467.259   1201.365    467.259    467.259    467.259
102.870   1213.062   1175.381     37.681    467.011   1175.503    467.011    467.011    467.011
102.970   1156.000   1150.647      5.353    466.763   1150.765    466.763    466.763    466.763
103.070   1157.000   1125.251     31.749    466.515   1125.367    466.515    466.515    466.515
103.170   1078.792   1097.804    -19.011    466.268   1097.918    466.268    466.268    466.268
103.270   1053.419   1067.475    -14.056    466.021   1067.586    466.021    466.021    466.021
103.370   1022.000   1034.044    -12.044    465.774   1034.153    465.774    465.774    465.774
103.470   1019.000    997.819     21.181    465.527    997.924    465.527    465.527    465.527
103.570    950.619    959.467     -8.849    465.281    959.568    465.281    465.281    465.281
103.670    906.000    919.857    -13.857    465.035    919.952    465.035    465.035    465.035
103.770    936.118    879.897     56.221    464.790    879.986    464.790    464.790    464.790
103.870    843.328    840.453      2.876    464.545    840.534    464.545    464.545    464.545
103.970    790.000    802.293    -12.293    464.300    802.368    464.300    464.300    464.300
104.070    762.000    766.070     -4.070    464.056    766.137    464.056    464.056    464.056
104.170    684.546    732.299    -47.753    463.812    732.359    463.812    463.812    463.812
104.270    752.203    701.358     50.845    463.569    701.410    463.569    463.569    463.569
104.370    639.402    673.484    -34.082    463.327    673.530    463.327    463.327    463.327
104.470    677.000    648.787     28.213    463.085    648.826    463.085    463.085    463.085
104.570    657.046    627.256     29.790    462.844    627.289    462.844    462.844    462.844
104.670    626.000    608.786     17.214    462.603    608.814    462.603    462.603    462.603
104.770    578.000    593.196    -15.196    462.363    593.219    462.363    462.363    462.363
104.870    544.063    580.253    -36.190    462.124    580.272    462.124    462.124    462.124
104.970    610.905    569.697     41.208    461.886    569.712    461.886    461.886    461.886
105.070    562.938    561.259      1.679    461.648    561.271    461.648    461.648    461.648
105.170    573.000    554.682     18.318    461.411    554.691    461.411    461.411    461.411
105.270    607.000    549.731     57.269    461.175    549.737    461.175    461.175    461.175
105.370    534.000    546.202    -12.202    460.940    546.206    460.940    460.940    460.940
105.470    590.939    543.928     47.010    460.706    543.930    460.706    460.706    460.706
105.570    547.000    542.783      4.217    460.473    542.782    460.473    460.473    460.473
105.670    548.000    542.674      5.326    460.240    542.671    460.240    460.240    460.240
105.770    547.540    543.546      3.994    460.009    543.541    460.009    460.009    460.009
105.870    541.239    545.372     -4.133    459.779    545.365    459.779    459.779    459.779
105.970    571.000    548.148     22.852    459.549    548.139    459.549    459.549    459.549
106.070    535.000    551.889    -16.889    459.321    551.877    459.321    459.321    459.321
106.170    601.000    556.621     44.379    459.094    556.606    459.094    459.094    459.094
106.270    593.000    562.370     30.630    458.869    562.353    458.869    458.869    458.869
106.370    554.254    569.159    -14.905    458.644    569.139    458.644    458.644    458.644
106.470    578.000    576.990      1.010    458.420    576.968    458.420    458.420    458.420
106.570    607.449    585.841     21.608    458.198    585.815    458.198    458.198    458.198
106.670    598.000    595.649      2.351    457.977    595.620    457.977    457.977    457.977
106.770    553.175    606.300    -53.125    457.758    606.268    457.758    457.758    457.758
106.870    625.000    617.666      7.334    457.540    617.631    457.540    457.540    457.540
106.970    654.000    629.559     24.441    457.323    629.522    457.323    457.323    457.323
107.070    623.000    641.724    -18.724    457.108    641.685    457.108    457.108    457.108
107.170    629.745    653.868    -24.123    456.894    653.827    456.894    456.894    456.894
107.270    669.000    665.657      3.343    456.681    665.615    456.681    456.681    456.681
107.370    674.738    676.731     -1.992    456.471    676.688    456.471    456.471    456.471
107.470    699.000    686.721     12.279    456.261    686.679    456.261    456.261    456.261
107.570    649.000    695.287    -46.287    456.054    695.246    456.054    456.054    456.054
107.670    702.822    702.160      0.662    455.848    702.121    455.848    455.848    455.848
107.770    765.923    707.189     58.734    455.644    707.153    455.644    455.644    455.644
107.870    652.000    710.376    -58.376    455.441    710.343    455.441    455.441    455.441
107.970    664.778    711.881    -47.102    455.240    711.852    455.240    455.240    455.240
108.070    739.000    711.997     27.003    455.041    711.972    455.041    455.041    455.041
108.170    711.000    711.108     -0.108    454.844    711.087    454.844    454.844    454.844
108.270    652.000    709.627    -57.627    454.649    709.610    454.649    454.649    454.649
108.370    661.000    707.946    -46.946    454.456    707.933    454.456    454.456    454.456
108.470    697.000    706.401     -9.401    454.264    706.392    454.264    454.264    454.264
108.570    647.000    705.247    -58.247    454.075    705.242    454.075    454.075    454.075
108.670    696.000    704.641     -8.641    453.888    704.639    453.888    453.888    453.888
108.770    681.822    704.640    -22.818    453.702    704.642    453.702    453.702    453.702
108.870    670.000    705.196    -35.196    453.519    705.202    453.519    453.519    453.519
108.970    678.000    706.163    -28.163    453.338    706.172    453.338    453.338    453.338
109.070    687.000    707.298    -20.298    453.160    707.310    453.160    453.160    453.160
109.170    721.480    708.282     13.198    452.983    708.297    452.983    452.983    452.983
109.270    690.000    708.741    -18.741    452.809    708.760    452.809    452.809    452.809
109.370    677.000    708.287    -31.287    452.637    708.308    452.637    452.637    452.637
109.470    727.000    706.559     20.441    452.467    706.583    452.467    452.467    452.467
109.570    757.062    703.284     53.778    452.300    703.309    452.300    452.300    452.300
109.670    756.047    698.309     57.739    452.135    698.336    452.135    452.135    452.135
109.770    676.000    691.629    -15.629    451.973    691.657    451.973    451.973    451.973
109.870    686.000    683.378      2.622    451.813    683.406    451.813    451.813    451.813
109.970    656.994    673.795    -16.801    451.656    673.824    451.656    451.656    451.656
110.070    715.419    663.190     52.229    451.501    663.218    451.501    451.501    451.501
110.170    641.000    651.899    -10.899    451.349    651.926    451.349    451.349    451.349
110.270    695.000    640.253     54.747    451.200    640.279    451.200    451.200    451.200
110.370    583.022    628.564    -45.542    451.054    628.588    451.054    451.054    451.054
110.470    664.000    617.106     46.894    450.910    617.128    450.910    450.910    450.910
110.570    579.000    606.119    -27.119    450.769    606.139    450.769    450.769    450.769
110.670    559.953    595.798    -35.845    450.631    595.815    450.631    450.631    450.631
110.770    615.726    586.293     29.433    450.496    586.308    450.496    450.496    450.496
110.870    595.000    577.717     17.283    450.364    577.730    450.364    450.364    450.364
110.970    608.000    570.141     37.859    450.235    570.152    450.235    450.235    450.235
111.070    586.002    563.599     22.403    450.109    563.607    450.109    450.109    450.109
111.170    582.980    558.093     24.887    449.986    558.099    449.986    449.986    449.986
111.270    578.000    553.597     24.403    449.866    553.602    449.866    449.866    449.866
111.370    602.955    550.064     52.891    449.750    550.067    449.750    449.750    449.750
111.470    533.000    547.429    -14.429    449.636    547.430    449.636    449.636    449.636
111.570    540.000    545.617     -5.617    449.526    545.617    449.526    449.526    449.526
111.670    547.000    544.547      2.453    449.420    544.545    449.420    449.420    449.420
111.770    557.000    544.136     12.864    449.316    544.133    449.316    449.316    449.316
111.870    545.000    544.302      0.698    449.216    544.298    449.216    449.216    449.216
111.970    501.435    544.967    -43.533    449.120    544.962    449.120    449.120    449.120
112.070    531.623    546.072    -14.449    449.027    546.066    449.027    449.027    449.027
112.170    505.836    547.551    -41.715    448.938    547.544    448.938    448.938    448.938
112.270    585.910    549.351     36.559    448.852    549.344    448.852    448.852    448.852
112.370    554.000    551.437      2.563    448.770    551.429    448.770    448.770    448.770
112.470    556.000    553.794      2.206    448.692    553.786    448.692    448.692    448.692
112.570    545.156    556.406    -11.250    448.617    556.398    448.617    448.617    448.617
112.670    593.691    559.274     34.417    448.547    559.265    448.547    448.547    448.547
112.770    584.000    562.414     21.586    448.480    562.405    448.480    448.480    448.480
112.870    532.682    565.858    -33.176    448.417    565.849    448.417    448.417    448.417
112.970    604.000    569.650     34.350    448.358    569.640    448.358    448.358    448.358
113.070    591.000    573.852     17.148    448.303    573.842    448.303    448.303    448.303
113.170    608.356    578.543     29.813    448.252    578.533    448.252    448.252    448.252
113.270    618.078    583.826     34.252    448.206    583.815    448.206    448.206    448.206
113.370    594.299    589.832      4.468    448.163    589.820    448.163    448.163    448.163
113.470    593.000    596.726     -3.726    448.125    596.713    448.125    448.125    448.125
113.570    608.000    604.722      3.278    448.091    604.708    448.091    448.091    448.091
113.670    658.000    614.089     43.911    448.061    614.073    448.061    448.061    448.061
113.770    612.575    625.165    -12.590    448.036    625.146    448.036    448.036    448.036
113.870    608.998    638.373    -29.375    448.015    638.352    448.015    448.015    448.015
113.970    679.000    654.241     24.759    447.999    654.215    447.999    447.999    447.999
114.070    709.000    673.411     35.589    447.987    673.380    447.987    447.987    447.987
114.170    750.978    696.665     54.312    447.980    696.629    447.980    447.980    447.980
114.270    746.000    724.939     21.061    447.978    724.895    447.978    447.978    447.978
114.370    834.000    759.335     74.665    447.980    759.281    447.980    447.980    447.980
114.470    791.000    801.131    -10.131    447.987    801.066    447.987    447.987    447.987
114.570    859.000    851.790      7.210    447.999    851.710    447.999    447.999    447.999
114.670    961.850    912.946     48.904    448.016    912.850    448.016    448.016    448.016
114.770   1004.000    986.395     17.605    448.037    986.281    448.037    448.037    448.037
114.870   1065.000   1074.063     -9.063    448.064   1073.926    448.064    448.064    448.064
114.970   1231.790   1177.957     53.833    448.096   1177.796    448.096    448.096    448.096
115.070   1360.000   1300.112     59.888    448.133   1299.923    448.133    448.133    448.133
115.170   1517.000   1442.506     74.494    448.175   1442.286    448.175    448.175    448.175
115.270   1666.000   1606.970     59.030    448.222   1606.716    448.222    448.222    448.222
115.370   1899.000   1795.079    103.921    448.275   1794.789    448.275    448.275    448.275
115.470   1981.817   2008.032    -26.215    448.332   2007.705    448.332    448.332    448.332
115.570   2308.000   2246.533     61.467    448.396   2246.169    448.396    448.396    448.396
115.670   2541.362   2510.662     30.699    448.464   2510.260    448.464    448.464    448.464
115.770   3003.000   2799.762    203.238    448.539   2799.324    448.539    448.539    448.539
115.870   3154.000   3112.330     41.670    448.619   3111.859    448.619    448.619    448.619
115.970   3502.058   3445.940     56.118    448.704   3445.439    448.704    448.704    448.704
116.070   3830.359   3797.174     33.185    448.795   3796.650    448.795    448.795    448.795
116.170   4154.000   4161.594     -7.594    448.892   4161.054    448.892    448.892    448.892
116.270   4605.000   4533.734     71.266    448.995   4533.187    448.995    448.995    448.995
116.370   4941.000   4907.126     33.874    449.104   4906.581    449.104    449.104    449.104
116.470   5272.247   5274.360     -2.112    449.218   5273.829    449.218    449.218    449.218
116.570   5682.000   5627.189     54.811    449.339   5626.686    449.339    449.339    449.339
116.670   5890.390   5956.706    -66.316    449.466   5956.244    449.466    449.466    449.466
116.770   6302.000   6253.603     48.397    449.599   6253.196    449.599    449.599    449.599
116.870   6640.163   6508.568    131.595    449.738   6508.229    449.738    449.738    449.738
116.970   6767.000   6712.817     54.183    449.883   6712.560    449.883    449.883    449.883
117.070   6759.000   6858.755    -99.755    450.034   6858.588    450.034    450.034    450.034
117.170   6915.539   6940.674    -25.135    450.192   6940.605    450.192    450.192    450.192
117.270   6792.783   6955.371   -162.588    450.357   6955.401    450.357    450.357    450.357
117.370   7001.639   6902.521     99.119    450.528   6902.648    450.528    450.528    450.528
117.470   6747.000   6784.714    -37.714    450.705   6784.932    450.705    450.705    450.705
117.570   6445.641   6607.135   -161.493    450.889   6607.434    450.889    450.889    450.889
117.670   6326.000   6376.981    -50.981    451.080   6377.349    451.080    451.080    451.080
117.770   6105.222   6102.764      2.458    451.278   6103.186    451.278    451.278    451.278
117.870   5727.000   5793.629    -66.629    451.482   5794.090    451.482    451.482    451.482
117.970   5257.000   5458.787   -201.787    451.694   5459.274    451.694    451.694    451.694
118.070   4992.000   5107.058   -115.058    451.912   5107.557    451.912    451.912    451.912
118.170   4654.000   4746.790    -92.790    452.137   4747.290    452.137    452.137    452.137
118.270   4346.000   4385.344    -39.344    452.370   4385.833    452.370    452.370    452.370
118.370   3974.000   4029.188    -55.188    452.609   4029.658    452.609    452.609    452.609
118.470   3615.000   3683.802    -68.802    452.856   3684.246    452.856    452.856    452.856
118.570   3313.000   3353.645    -40.645    453.110   3354.056    453.110    453.110    453.110
118.670   2953.394   3042.172    -88.778    453.372   3042.548    453.372    453.372    453.372
118.770   2653.879   2751.880    -98.001    453.641   2752.217    453.641    453.641    453.641
118.870   2376.554   2484.379   -107.825    453.917   2484.677    453.917    453.917    453.917
118.970   2262.066   2240.486     21.580    454.201   2240.746    454.201    454.201    454.201
119.070   2047.000   2020.330     26.670    454.493   2020.553    454.493    454.493    454.493
119.170   1697.000   1823.461   -126.461    454.792   1823.649    454.792    454.792    454.792
119.270   1554.000   1648.961    -94.961    455.100   1649.117    455.100    455.100    455.100
119.370   1553.000   1495.551     57.449    455.415   1495.679    455.415    455.415    455.415
119.470   1330.000   1361.695    -31.695    455.738   1361.797    455.738    455.738    455.738
119.570   1300.475   1245.691     54.784    456.069   1245.772    456.069    456.069    456.069
119.670   1077.192   1145.760    -68.568    456.408   1145.823    456.408    456.408    456.408
119.770   1064.000   1060.115      3.885    456.755   1060.163    456.755    456.755    456.755
119.870    988.585    987.024      1.560    457.110    987.060    457.110    457.110    457.110
119.970    955.401    924.853     30.549    457.474    924.879    457.474    457.474    457.474
120.070    877.283    872.097      5.186    457.846    872.116    457.846    457.846    457.846
120.170    826.000    827.402     -1.402    458.226    827.415    458.226    458.226    458.226
120.270    814.000    789.567     24.433    458.615    789.577    458.615    458.615    458.615
120.370    796.000    757.550     38.450    459.013    757.557    459.013    459.013    459.013
120.470    733.000    730.455      2.545    459.419    730.461    459.419    459.419    459.419
120.570    697.201    707.525    -10.324    459.834    707.530    459.834    459.834    459.834
120.670    694.000    688.123      5.877    460.258    688.127    460.258    460.258    460.258
120.770    632.000    671.721    -39.721    460.691    671.726    460.691    460.691    460.691
120.870    636.000    657.884    -21.884    461.132    657.890    461.132    461.132    461.132
120.970    673.420    646.255     27.165    461.583    646.261    461.583    461.583    461.583
121.070    616.000    636.541    -20.541    462.043    636.548    462.043    462.043    462.043
121.170    611.798    628.502    -16.704    462.512    628.510    462.512    462.512    462.512
121.270    635.199    621.942     13.257    462.990    621.950    462.990    462.990    462.990
121.370    603.000    616.697    -13.697    463.477    616.707    463.477    463.477    463.477
121.470    611.000    612.633     -1.633    463.974    612.643    463.974    463.974    463.974
121.570    603.000    609.633     -6.633    464.481    609.645    464.481    464.481    464.481
121.670    564.074    607.598    -43.524    464.997    607.611    464.997    464.997    464.997
121.770    555.000    606.439    -51.439    465.522    606.454    465.522    465.522    465.522
121.870    599.403    606.074     -6.671    466.058    606.090    466.058    466.058    466.058
121.970    600.000    606.426     -6.426    466.603    606.444    466.603    466.603    466.603
122.070    601.000    607.420     -6.420    467.158    607.440    467.158    467.158    467.158
122.170    603.466    608.980     -5.514    467.723    609.002    467.723    467.723    467.723
122.270    624.102    611.028     13.074    468.298    611.052    468.298    468.298    468.298
122.370    578.000    613.483    -35.483    468.883    613.510    468.883    468.883    468.883
122.470    612.000    616.261     -4.261    469.479    616.290    469.479    469.479    469.479
122.570    616.000    619.270     -3.270    470.084    619.302    470.084    470.084    470.084
122.670    639.260    622.414     16.846    470.700    622.449    470.700    470.700    470.700
122.770    636.000    625.593     10.407    471.327    625.631    471.327    471.327    471.327
122.870    573.000    628.702    -55.702    471.964    628.743    471.964    471.964    471.964
122.970    670.730    631.631     39.099    472.612    631.675    472.612    472.612    472.612
123.070    609.000    634.272    -25.272    473.270    634.318    473.270    473.270    473.270
123.170    630.461    636.517     -6.056    473.939    636.566    473.939    473.939    473.939
123.270    656.000    638.269     17.731    474.619    638.320    474.619    474.619    474.619
123.370    676.000    639.440     36.560    475.310    639.494    475.310    475.310    475.310
123.470    642.332    639.964      2.368    476.012    640.019    476.012    476.012    476.012
123.570    615.242    639.794    -24.552    476.725    639.851    476.725    476.725    476.725
123.670    641.000    638.910      2.090    477.450    638.968    477.450    477.450    477.450
123.770    631.000    637.318     -6.318    478.185    637.376    478.185    478.185    478.185
123.870    616.924    635.045    -18.121    478.932    635.103    478.932    478.932    478.932
123.970    597.815    632.141    -34.326    479.691    632.198    479.691    479.691    479.691
124.070    574.779    628.668    -53.889    480.461    628.724    480.461    480.461    480.461
124.170    589.186    624.702    -35.515    481.243    624.756    481.243    481.243    481.243
124.270    639.000    620.320     18.680    482.036    620.373    482.036    482.036    482.036
124.370    618.000    615.606      2.394    482.841    615.657    482.841    482.841    482.841
124.470    608.000    610.641     -2.641    483.658    610.690    483.658    483.658    483.658
124.570    645.000    605.506     39.494    484.487    605.552    484.487    484.487    484.487
124.670    624.000    600.278     23.722    485.328    600.321    485.328    485.328    485.328
124.770    633.000    595.029     37.971    486.182    595.069    486.182    486.182    486.182
124.870    564.241    589.825    -25.584    487.047    589.863    487.047    487.047    487.047
124.970    568.879    584.729    -15.850    487.925    584.764    487.925    487.925    487.925
