neutron_powder_diffraction_0234
R_wp: 4.054
Temperature (K): 1035.023
Counts: 84436.00
Wavelength (Ã…): 2.52098
COMMENTS
Test file for demonstrating the .xyy file format in Reel1.0
END OF HEADER
   tth       Y_obs     Y_calc      Y_res    Background    Phase_1_Nuc    Phase_1_Mag    Phase_2_Nuc    Phase_2_Mag
  9.970    563.964    578.003    -14.040    577.431    577.980    577.431    577.454    577.431
 10.070    600.000    577.985     22.015    577.365    577.962    577.365    577.388    577.365
 10.170    577.000    577.970     -0.970    577.293    577.946    577.293    577.317    577.293
 10.270    628.000    577.960     50.040    577.218    577.936    577.218    577.242    577.218
 10.370    573.921    577.970     -4.049    577.139    577.946    577.139    577.163    577.139
 10.470    613.000    577.979     35.021    577.056    577.955    577.056    577.079    577.056
 10.570    586.000    577.996      8.004    576.969    577.972    576.969    576.992    576.969
 10.670    588.000    578.028      9.972    576.877    578.004    576.877    576.901    576.877
 10.770    597.556    578.082     19.474    576.782    578.058    576.782    576.806    576.782
 10.870    555.730    578.165    -22.436    576.683    578.141    576.683    576.708    576.683
 10.970    568.000    578.288    -10.288    576.581    578.263    576.581    576.605    576.581
 11.070    566.000    578.466    -12.466    576.474    578.440    576.474    576.499    576.474
 11.170    612.000    578.720     33.280    576.364    578.694    576.364    576.389    576.364
 11.270    623.000    579.084     43.916    576.250    579.058    576.250    576.275    576.250
 11.370    592.000    579.615     12.385    576.133    579.588    576.133    576.157    576.133
 11.470    587.000    580.433      6.567    576.011    580.405    576.011    576.036    576.011
 11.570    594.000    581.876     12.124    575.887    581.845    575.887    575.914    575.887
 11.670    676.000    584.945     91.055    575.758    584.911    575.758    575.788    575.758
 11.770    680.000    592.139     87.861    575.627    592.100    575.627    575.657    575.627
 11.870    655.000    607.823     47.177    575.491    607.775    575.491    575.522    575.491
 11.970    642.000    635.921      6.079    575.353    635.856    575.353    575.383    575.353
 12.070    682.000    673.569      8.431    575.211    673.484    575.211    575.241    575.211
 12.170    622.000    704.792    -82.792    575.066    704.688    575.066    575.096    575.066
 12.270    755.214    707.813     47.401    574.917    707.708    574.917    574.948    574.917
 12.370    621.000    679.733    -58.733    574.765    679.643    574.765    574.796    574.765
 12.470    671.638    641.145     30.493    574.610    641.075    574.610    574.642    574.610
 12.570    600.000    610.512    -10.512    574.452    610.459    574.452    574.485    574.452
 12.670    574.000    592.626    -18.626    574.291    592.582    574.291    574.324    574.291
 12.770    598.000    584.102     13.898    574.126    584.063    574.126    574.160    574.126
 12.870    537.000    580.316    -43.316    573.959    580.278    573.959    573.993    573.959
 12.970    542.000    578.426    -36.426    573.788    578.389    573.788    573.823    573.788
 13.070    608.000    577.251     30.749    573.615    577.214    573.615    573.649    573.615
 13.170    549.000    576.394    -27.394    573.439    576.358    573.439    573.473    573.439
 13.270    533.000    575.716    -42.716    573.259    575.680    573.259    573.294    573.259
 13.370    556.973    575.156    -18.183    573.077    575.120    573.077    573.112    573.077
 13.470    509.000    574.678    -65.678    572.892    574.642    572.892    572.927    572.892
 13.570    555.836    574.258    -18.422    572.705    574.222    572.705    572.740    572.705
 13.670    584.000    573.883     10.117    572.514    573.845    572.514    572.551    572.514
 13.770    543.000    573.547    -30.547    572.321    573.500    572.321    572.367    572.321
 13.870    566.857    573.230     -6.373    572.125    573.179    572.125    572.175    572.125
 13.970    580.819    572.928      7.891    571.926    572.876    571.926    571.977    571.926
 14.070    549.853    572.639    -22.786    571.725    572.587    571.725    571.777    571.725
 14.170    542.000    572.361    -30.361    571.522    572.309    571.522    571.573    571.522
 14.270    595.000    572.091     22.909    571.315    572.039    571.315    571.367    571.315
 14.370    588.303    571.828     16.476    571.107    571.775    571.107    571.159    571.107
 14.470    578.000    571.570      6.430    570.896    571.516    570.896    570.949    570.896
 14.570    579.000    571.320      7.680    570.682    571.261    570.682    570.741    570.682
 14.670    582.639    571.070     11.569    570.466    571.009    570.466    570.527    570.466
 14.770    587.619    570.820     16.799    570.248    570.758    570.248    570.309    570.248
 14.870    592.000    570.571     21.429    570.027    570.509    570.027    570.089    570.027
 14.970    538.231    570.324    -32.093    569.804    570.261    569.804    569.866    569.804
 15.070    598.000    570.077     27.923    569.579    570.014    569.579    569.641    569.579
 15.170    554.000    569.832    -15.832    569.351    569.768    569.351    569.414    569.351
 15.270    571.000    569.587      1.413    569.122    569.523    569.122    569.185    569.122
 15.370    541.000    569.340    -28.340    568.890    569.276    568.890    568.954    568.890
 15.470    542.684    569.092    -26.408    568.656    569.027    568.656    568.720    568.656
 15.570    549.391    568.843    -19.452    568.420    568.779    568.420    568.485    568.420
 15.670    535.570    568.594    -33.024    568.182    568.529    568.182    568.247    568.182
 15.770    587.000    568.344     18.656    567.942    568.279    567.942    568.007    567.942
 15.870    582.172    568.093     14.079    567.700    568.027    567.700    567.766    567.700
 15.970    573.000    567.841      5.159    567.456    567.775    567.456    567.522    567.456
 16.070    576.000    567.588      8.412    567.210    567.521    567.210    567.277    567.210
 16.170    523.000    567.334    -44.334    566.962    567.267    566.962    567.029    566.962
 16.270    540.781    567.079    -26.298    566.713    567.011    566.713    566.780    566.713
 16.370    546.000    566.822    -20.822    566.461    566.754    566.461    566.529    566.461
 16.470    589.000    566.564     22.436    566.208    566.496    566.208    566.276    566.208
 16.570    573.684    566.305      7.378    565.953    566.237    565.953    566.022    565.953
 16.670    525.413    566.045    -40.632    565.696    565.976    565.696    565.766    565.696
 16.770    564.000    565.784     -1.784    565.438    565.714    565.438    565.508    565.438
 16.870    538.854    565.521    -26.667    565.178    565.451    565.178    565.248    565.178
 16.970    536.000    565.258    -29.258    564.916    565.187    564.916    564.987    564.916
 17.070    589.212    564.994     24.218    564.653    564.923    564.653    564.724    564.653
 17.170    570.100    564.729      5.371    564.388    564.657    564.388    564.459    564.388
 17.270    524.000    564.462    -40.462    564.121    564.389    564.121    564.194    564.121
 17.370    573.000    564.195      8.805    563.853    564.120    563.853    563.928    563.853
 17.470    549.325    563.927    -14.602    563.584    563.850    563.584    563.661    563.584
 17.570    567.000    563.657      3.343    563.313    563.578    563.313    563.391    563.313
 17.670    550.169    563.385    -13.216    563.040    563.306    563.040    563.120    563.040
 17.770    520.286    563.112    -42.827    562.767    563.032    562.767    562.847    562.767
 17.870    639.000    562.838     76.162    562.492    562.757    562.492    562.572    562.492
 17.970    540.000    562.565    -22.565    562.215    562.483    562.215    562.297    562.215
 18.070    565.000    562.290      2.710    561.937    562.207    561.937    562.020    561.937
 18.170    599.096    562.012     37.084    561.658    561.929    561.658    561.741    561.658
 18.270    587.568    561.734     25.834    561.378    561.650    561.378    561.462    561.378
 18.370    562.000    561.455      0.545    561.096    561.371    561.096    561.181    561.096
 18.470    558.000    561.175     -3.175    560.814    561.090    560.814    560.899    560.814
 18.570    538.000    560.893    -22.893    560.530    560.808    560.530    560.615    560.530
 18.670    576.000    560.611     15.389    560.245    560.525    560.245    560.331    560.245
 18.770    591.703    560.328     31.375    559.959    560.242    559.959    560.046    559.959
 18.870    597.092    560.045     37.047    559.671    559.957    559.671    559.759    559.671
 18.970    587.808    559.760     28.048    559.383    559.672    559.383    559.472    559.383
 19.070    551.000    559.475     -8.475    559.094    559.386    559.094    559.183    559.094
 19.170    565.000    559.189      5.811    558.804    559.099    558.804    558.893    558.804
 19.270    578.000    558.902     19.098    558.512    558.812    558.512    558.603    558.512
 19.370    550.000    558.615     -8.615    558.220    558.523    558.220    558.311    558.220
 19.470    513.000    558.328    -45.328    557.927    558.235    557.927    558.020    557.927
 19.570    575.311    558.040     17.271    557.633    557.945    557.633    557.728    557.633
 19.670    536.780    557.751    -20.971    557.338    557.655    557.338    557.434    557.338
 19.770    538.000    557.462    -19.462    557.042    557.366    557.042    557.139    557.042
 19.870    600.646    557.173     43.473    556.746    557.075    556.746    556.843    556.746
 19.970    524.127    556.883    -32.756    556.448    556.785    556.448    556.546    556.448
 20.070    517.999    556.593    -38.594    556.150    556.494    556.150    556.249    556.150
 20.170    564.000    556.302      7.698    555.851    556.202    555.851    555.951    555.851
 20.270    557.000    556.010      0.990    555.552    555.909    555.552    555.653    555.552
 20.370    557.000    555.718      1.282    555.251    555.616    555.251    555.353    555.251
 20.470    562.000    555.426      6.574    554.950    555.323    554.950    555.053    554.950
 20.570    515.000    555.135    -40.135    554.649    555.031    554.649    554.753    554.649
 20.670    567.392    554.852     12.540    554.347    554.747    554.347    554.452    554.347
 20.770    562.000    554.573      7.427    554.044    554.467    554.044    554.150    554.044
 20.870    552.681    554.283     -1.601    553.741    554.175    553.741    553.848    553.741
 20.970    524.000    553.991    -29.991    553.437    553.883    553.437    553.545    553.437
 21.070    570.000    553.703     16.297    553.132    553.590    553.132    553.245    553.132
 21.170    561.000    553.416      7.584    552.827    553.298    552.827    552.945    552.827
 21.270    511.926    553.125    -41.200    552.522    553.006    552.522    552.641    552.522
 21.370    559.000    552.835      6.165    552.216    552.715    552.216    552.337    552.216
 21.470    557.000    552.546      4.454    551.910    552.424    551.910    552.032    551.910
 21.570    590.022    552.257     37.765    551.603    552.134    551.603    551.727    551.603
 21.670    587.393    551.969     35.424    551.296    551.845    551.296    551.421    551.296
 21.770    541.000    551.683    -10.683    550.989    551.557    550.989    551.115    550.989
 21.870    544.000    551.398     -7.398    550.681    551.270    550.681    550.809    550.681
 21.970    588.042    551.114     36.928    550.373    550.985    550.373    550.502    550.373
 22.070    511.000    550.832    -39.832    550.065    550.701    550.065    550.195    550.065
 22.170    543.000    550.552     -7.552    549.756    550.420    549.756    549.889    549.756
 22.270    571.164    550.276     20.888    549.447    550.142    549.447    549.581    549.447
 22.370    570.000    550.017     19.983    549.138    549.881    549.138    549.274    549.138
 22.470    604.000    549.782     54.218    548.829    549.644    548.829    548.967    548.829
 22.570    542.000    549.558     -7.558    548.519    549.418    548.519    548.659    548.519
 22.670    544.000    549.359     -5.359    548.210    549.217    548.210    548.351    548.210
 22.770    541.000    549.108     -8.108    547.900    548.965    547.900    548.044    547.900
 22.870    568.102    548.859     19.243    547.590    548.713    547.590    547.736    547.590
 22.970    565.385    548.620     16.765    547.280    548.473    547.280    547.428    547.280
 23.070    540.000    548.423     -8.423    546.970    548.273    546.970    547.120    546.970
 23.170    571.000    548.231     22.769    546.660    548.079    546.660    546.813    546.660
 23.270    591.430    548.035     43.395    546.350    547.880    546.350    546.505    546.350
 23.370    524.000    547.851    -23.851    546.040    547.694    546.040    546.197    546.040
 23.470    514.000    547.692    -33.692    545.730    547.532    545.730    545.890    545.730
 23.570    569.535    547.566     21.969    545.420    547.404    545.420    545.583    545.420
 23.670    540.000    547.484     -7.484    545.109    547.318    545.109    545.275    545.109
 23.770    549.000    547.461      1.539    544.799    547.293    544.799    544.969    544.799
 23.870    563.000    547.525     15.475    544.490    547.354    544.490    544.662    544.490
 23.970    537.264    547.718    -10.453    544.180    547.544    544.180    544.355    544.180
 24.070    527.000    548.143    -21.143    543.870    547.966    543.870    544.049    543.870
 24.170    570.075    549.094     20.981    543.561    548.914    543.561    543.743    543.561
 24.270    580.000    551.397     28.603    543.251    551.215    543.251    543.438    543.251
 24.370    527.449    556.915    -29.466    542.942    556.733    542.942    543.133    542.942
 24.470    618.000    568.490     49.510    542.633    568.313    542.633    542.828    542.633
 24.570    583.088    588.011     -4.923    542.324    587.842    542.324    542.525    542.324
 24.670    601.517    612.352    -10.835    542.016    612.194    542.016    542.223    542.016
 24.770    606.000    630.270    -24.270    541.708    630.120    541.708    541.920    541.708
 24.870    561.000    629.013    -68.013    541.400    628.857    541.400    541.617    541.400
 24.970    609.000    609.458     -0.458    541.092    609.283    541.092    541.315    541.092
 25.070    599.000    584.749     14.251    540.784    584.551    540.784    541.014    540.784
 25.170    530.664    565.397    -34.733    540.477    565.179    540.477    540.713    540.477
 25.270    567.000    553.927     13.073    540.171    553.693    540.171    540.413    540.171
 25.370    569.000    548.254     20.746    539.864    548.009    539.864    540.113    539.864
 25.470    518.783    545.610    -26.827    539.558    545.356    539.558    539.815    539.558
 25.570    565.000    544.229     20.771    539.253    543.966    539.253    539.518    539.253
 25.670    579.000    543.349     35.651    538.948    543.077    538.948    539.221    538.948
 25.770    517.000    542.698    -25.698    538.643    542.416    538.643    538.926    538.643
 25.870    546.000    542.163      3.837    538.339    541.871    538.339    538.631    538.339
 25.970    595.000    541.720     53.280    538.035    541.417    538.035    538.338    538.035
 26.070    556.527    541.349     15.178    537.731    541.035    537.731    538.047    537.731
 26.170    498.002    541.040    -43.039    537.428    540.713    537.428    537.756    537.428
 26.270    530.733    540.785    -10.053    537.126    540.444    537.126    537.468    537.126
 26.370    543.828    540.574      3.254    536.824    540.218    536.824    537.181    536.824
 26.470    531.000    540.407     -9.407    536.523    540.034    536.523    536.896    536.523
 26.570    499.000    540.287    -41.287    536.222    539.897    536.222    536.613    536.222
 26.670    577.480    540.221     37.258    535.922    539.811    535.922    536.332    535.922
 26.770    559.000    540.216     18.784    535.623    539.785    535.623    536.054    535.623
 26.870    553.203    540.285     12.918    535.324    539.830    535.324    535.779    535.324
 26.970    580.935    540.459     40.476    535.025    539.978    535.025    535.506    535.025
 27.070    540.000    540.763     -0.763    534.728    540.253    534.728    535.238    534.728
 27.170    534.278    541.186     -6.909    534.431    540.643    534.431    534.973    534.431
 27.270    542.906    541.807      1.099    534.134    541.227    534.134    534.713    534.134
 27.370    580.000    542.707     37.293    533.839    542.086    533.839    534.459    533.839
 27.470    552.292    544.031      8.260    533.544    543.363    533.544    534.210    533.544
 27.570    546.000    546.140     -0.140    533.249    545.418    533.249    533.969    533.249
 27.670    523.681    550.297    -26.616    532.956    549.513    532.956    533.736    532.956
 27.770    554.000    560.818     -6.818    532.663    559.960    532.663    533.513    532.663
 27.870    602.000    588.773     13.227    532.371    587.825    532.371    533.302    532.371
 27.970    667.000    651.927     15.073    532.079    650.862    532.079    533.106    532.079
 28.070    758.000    759.285     -1.285    531.789    758.075    531.789    532.928    531.789
 28.170    895.000    882.700     12.300    531.499    881.329    531.499    532.772    531.499
 28.270    934.000    949.146    -15.146    531.210    947.614    531.210    532.645    531.210
 28.370    930.524    905.669     24.855    530.922    903.976    530.922    532.554    530.922
 28.470    829.000    797.786     31.214    530.635    795.887    530.635    532.510    530.635
 28.570    713.000    708.697      4.303    530.348    706.506    530.348    532.531    530.348
 28.670    727.000    685.648     41.352    530.063    683.055    530.063    532.645    530.063
 28.770    766.897    727.718     39.179    529.778    724.569    529.778    532.907    529.778
 28.870    796.000    797.189     -1.189    529.494    793.238    529.494    533.420    529.494
 28.970    761.000    834.326    -73.326    529.211    829.148    529.211    534.372    529.211
 29.070    766.000    800.486    -34.486    528.929    793.339    528.929    536.076    528.929
 29.170    721.000    722.843     -1.843    528.648    712.549    528.648    538.954    528.648
 29.270    627.000    649.631    -22.631    528.368    634.573    528.368    543.438    528.368
 29.370    610.000    604.751      5.249    528.089    583.120    528.089    549.727    528.089
 29.470    562.300    586.516    -24.215    527.810    556.965    527.810    557.363    527.810
 29.570    647.000    582.700     64.300    527.533    545.631    527.533    564.601    527.533
 29.670    646.000    581.722     64.278    527.256    540.681    527.256    568.296    527.256
 29.770    647.000    577.256     69.744    526.981    538.083    526.981    566.152    526.981
 29.870    569.000    569.087     -0.087    526.707    536.418    526.707    559.374    526.707
 29.970    594.000    559.920     34.080    526.433    535.248    526.433    551.104    526.433
 30.070    554.000    551.927      2.073    526.161    534.435    526.161    543.652    526.161
 30.170    556.000    545.971     10.029    525.890    533.948    525.890    537.911    525.890
 30.270    577.000    542.144     34.856    525.619    533.870    525.619    533.891    525.619
 30.370    500.584    540.458    -39.874    525.350    534.585    525.350    531.220    525.350
 30.470    606.000    541.539     64.461    525.082    537.157    525.082    529.457    525.082
 30.570    538.000    547.114     -9.114    524.815    543.673    524.815    528.244    524.815
 30.670    526.892    559.423    -32.531    524.549    556.604    524.549    527.347    524.549
 30.770    606.302    578.655     27.647    524.284    576.271    524.284    526.631    524.284
 30.870    631.754    599.422     32.332    524.020    597.364    524.020    526.028    524.020
 30.970    629.619    610.089     19.530    523.758    608.291    523.758    525.500    523.758
 31.070    647.936    602.111     45.826    523.496    600.534    523.496    525.026    523.496
 31.170    618.000    581.503     36.497    523.236    580.116    523.236    524.593    523.236
 31.270    578.288    560.086     18.203    522.976    558.854    522.976    524.191    522.976
 31.370    505.000    544.675    -39.675    522.718    543.571    522.718    523.814    522.718
 31.470    532.000    535.986     -3.986    522.461    534.986    522.461    523.457    522.461
 31.570    541.293    531.796      9.497    522.206    530.883    522.206    523.116    522.206
 31.670    486.879    529.837    -42.958    521.951    528.997    521.951    522.789    521.951
 31.770    535.000    528.800      6.200    521.698    528.024    521.698    522.473    521.698
 31.870    551.422    528.146     23.276    521.445    527.424    521.445    522.166    521.445
 31.970    557.562    527.685     29.877    521.194    527.011    521.194    521.868    521.194
 32.070    509.810    527.358    -17.548    520.945    526.725    520.945    521.576    520.945
 32.170    522.000    527.140     -5.140    520.696    526.543    520.696    521.291    520.696
 32.270    528.000    527.022      0.978    520.449    526.458    520.449    521.011    520.449
 32.370    485.519    527.005    -41.485    520.203    526.469    520.203    520.737    520.203
 32.470    548.000    527.094     20.906    519.958    526.584    519.958    520.466    519.958
 32.570    523.000    527.304     -4.304    519.714    526.817    519.714    520.200    519.714
 32.670    484.829    527.657    -42.828    519.472    527.191    519.472    519.937    519.472
 32.770    507.000    528.188    -21.188    519.231    527.741    519.231    519.677    519.231
 32.870    548.849    528.941     19.908    518.991    528.510    518.991    519.421    518.991
 32.970    514.000    529.989    -15.989    518.752    529.573    518.752    519.167    518.752
 33.070    563.000    531.443     31.557    518.515    531.041    518.515    518.916    518.515
 33.170    513.147    533.499    -20.351    518.279    533.108    518.279    518.668    518.279
 33.270    521.899    536.594    -14.695    518.045    536.215    518.045    518.422    518.045
 33.370    522.735    541.933    -19.198    517.812    541.563    517.812    518.178    517.812
 33.470    541.000    552.810    -11.810    517.580    552.447    517.580    517.937    517.580
 33.570    618.990    576.739     42.250    517.349    576.380    517.349    517.698    517.349
 33.670    669.613    626.369     43.244    517.120    626.007    517.120    517.461    517.120
 33.770    705.454    714.470     -9.017    516.892    714.100    516.892    517.225    516.892
 33.870    830.000    840.083    -10.083    516.665    839.700    516.665    516.992    516.665
 33.970    965.041    971.581     -6.540    516.440    971.193    516.440    516.761    516.440
 34.070   1028.000   1044.525    -16.525    516.216   1044.150    516.216    516.532    516.216
 34.170   1039.379   1009.424     29.954    515.994   1009.081    515.994    516.304    515.994
 34.270    904.058    892.542     11.515    515.773    892.228    515.773    516.079    515.773
 34.370    757.269    759.436     -2.166    515.553    759.138    515.553    515.855    515.553
 34.470    601.000    655.179    -54.179    515.334    654.888    515.334    515.632    515.334
 34.570    577.838    591.041    -13.202    515.117    590.750    515.117    515.412    515.117
 34.670    560.000    557.898      2.102    514.902    557.608    514.902    515.193    514.902
 34.770    567.000    542.279     24.721    514.688    541.990    514.688    514.976    514.688
 34.870    560.833    534.664     26.169    514.475    534.378    514.475    514.761    514.475
 34.970    551.000    530.334     20.666    514.264    530.050    514.264    514.547    514.264
 35.070    517.000    527.418    -10.418    514.054    527.137    514.054    514.335    514.054
 35.170    558.000    525.242     32.758    513.845    524.962    513.845    514.124    513.845
 35.270    572.000    523.533     48.467    513.638    523.255    513.638    513.916    513.638
 35.370    527.000    522.151      4.849    513.433    521.875    513.433    513.708    513.433
 35.470    515.962    521.010     -5.048    513.228    520.735    513.228    513.503    513.228
 35.570    514.000    520.050     -6.050    513.026    519.777    513.026    513.299    513.026
 35.670    511.972    519.231     -7.258    512.824    518.958    512.824    513.097    512.824
 35.770    493.000    518.521    -25.521    512.625    518.249    512.625    512.896    512.625
 35.870    554.000    517.898     36.102    512.426    517.627    512.426    512.697    512.426
 35.970    475.751    517.346    -41.596    512.229    517.076    512.229    512.499    512.229
 36.070    518.249    516.854      1.396    512.034    516.584    512.034    512.304    512.034
 36.170    523.000    516.410      6.590    511.840    516.141    511.840    512.109    511.840
 36.270    581.000    516.010     64.990    511.647    515.740    511.647    511.917    511.647
 36.370    533.000    515.647     17.353    511.456    515.377    511.456    511.725    511.456
 36.470    530.000    515.318     14.682    511.267    515.049    511.267    511.536    511.267
 36.570    473.028    515.023    -41.995    511.079    514.754    511.079    511.348    511.079
 36.670    500.637    514.761    -14.125    510.892    514.492    510.892    511.162    510.892
 36.770    523.495    514.537      8.958    510.707    514.267    510.707    510.977    510.707
 36.870    484.000    514.365    -30.365    510.523    514.094    510.523    510.794    510.523
 36.970    533.000    514.283     18.717    510.341    514.012    510.341    510.612    510.341
 37.070    504.000    514.392    -10.392    510.161    514.121    510.161    510.432    510.161
 37.170    496.515    514.902    -18.387    509.981    514.630    509.981    510.254    509.981
 37.270    470.000    516.142    -46.142    509.804    515.869    509.804    510.077    509.804
 37.370    529.597    518.439     11.158    509.628    518.166    509.628    509.902    509.628
 37.470    519.000    521.815     -2.815    509.453    521.541    509.453    509.729    509.453
 37.570    522.147    525.606     -3.459    509.280    525.332    509.280    509.557    509.280
 37.670    485.000    528.340    -43.340    509.109    528.066    509.109    509.386    509.109
 37.770    518.000    528.540    -10.540    508.939    528.267    508.939    509.217    508.939
 37.870    537.000    526.173     10.827    508.770    525.900    508.770    509.050    508.770
 37.970    541.450    522.594     18.855    508.603    522.322    508.603    508.885    508.603
 38.070    484.000    519.079    -35.079    508.438    518.806    508.438    508.721    508.438
 38.170    529.000    516.185     12.815    508.274    515.910    508.274    508.559    508.274
 38.270    520.000    514.057      5.943    508.111    513.777    508.111    508.398    508.111
 38.370    526.712    512.617     14.095    507.950    512.333    507.950    508.239    507.950
 38.470    468.000    511.684    -43.684    507.791    511.396    507.791    508.081    507.791
 38.570    499.000    511.084    -12.084    507.633    510.793    507.633    507.926    507.633
 38.670    515.772    510.681      5.091    507.477    510.387    507.477    507.771    507.477
 38.770    525.000    510.386     14.614    507.322    510.090    507.322    507.619    507.322
 38.870    523.121    510.148     12.973    507.169    509.850    507.169    507.468    507.169
 38.970    483.717    509.941    -26.224    507.018    509.641    507.018    507.318    507.018
 39.070    513.000    509.754      3.246    506.867    509.451    506.867    507.171    506.867
 39.170    524.000    509.580     14.420    506.719    509.275    506.719    507.025    506.719
 39.270    435.000    509.418    -74.418    506.572    509.110    506.572    506.880    506.572
 39.370    497.000    509.266    -12.266    506.426    508.955    506.426    506.737    506.426
 39.470    492.000    509.123    -17.123    506.283    508.809    506.283    506.596    506.283
 39.570    501.000    508.987     -7.987    506.140    508.671    506.140    506.457    506.140
 39.670    521.000    508.859     12.141    505.999    508.540    505.999    506.319    505.999
 39.770    500.000    508.738     -8.738    505.860    508.416    505.860    506.183    505.860
 39.870    526.924    508.625     18.300    505.722    508.299    505.722    506.048    505.722
 39.970    480.000    508.518    -28.518    505.586    508.190    505.586    505.915    505.586
 40.070    525.451    508.419     17.032    505.452    508.087    505.452    505.784    505.452
 40.170    498.000    508.328    -10.328    505.319    507.993    505.319    505.654    505.319
 40.270    501.000    508.245     -7.245    505.187    507.906    505.187    505.526    505.187
 40.370    499.000    508.171     -9.171    505.057    507.828    505.057    505.400    505.057
 40.470    525.056    508.107     16.949    504.929    507.760    504.929    505.275    504.929
 40.570    570.000    508.053     61.947    504.802    507.703    504.802    505.153    504.802
 40.670    483.000    508.012    -25.012    504.676    507.658    504.676    505.031    504.676
 40.770    497.000    507.986    -10.986    504.553    507.627    504.553    504.912    504.553
 40.870    486.000    507.975    -21.975    504.430    507.612    504.430    504.794    504.430
 40.970    534.000    507.985     26.015    504.310    507.617    504.310    504.678    504.310
 41.070    474.000    508.017    -34.017    504.191    507.645    504.191    504.563    504.191
 41.170    516.000    508.079      7.921    504.073    507.702    504.073    504.450    504.073
 41.270    495.000    508.176    -13.176    503.957    507.794    503.957    504.339    503.957
 41.370    548.023    508.318     39.705    503.843    507.932    503.843    504.230    503.843
 41.470    484.000    508.519    -24.519    503.730    508.127    503.730    504.122    503.730
 41.570    523.000    508.798     14.202    503.618    508.401    503.618    504.016    503.618
 41.670    450.000    509.192    -59.192    503.508    508.789    503.508    503.912    503.508
 41.770    494.000    509.777    -15.777    503.400    509.369    503.400    503.809    503.400
 41.870    519.000    510.742      8.258    503.293    510.329    503.293    503.709    503.293
 41.970    512.000    512.539     -0.539    503.188    512.121    503.188    503.610    503.188
 42.070    493.000    516.123    -23.123    503.084    515.700    503.084    503.512    503.084
 42.170    539.383    523.123     16.260    502.982    522.696    502.982    503.417    502.982
 42.270    505.000    535.591    -30.591    502.882    535.163    502.882    503.323    502.882
 42.370    544.638    554.930    -10.292    502.783    554.504    502.783    503.231    502.783
 42.470    609.628    580.078     29.550    502.685    579.657    502.685    503.141    502.685
 42.570    594.000    605.756    -11.756    502.589    605.342    502.589    503.053    502.589
 42.670    596.887    622.554    -25.667    502.495    622.143    502.495    502.966    502.495
 42.770    661.117    622.020     39.097    502.402    621.604    502.402    502.881    502.402
 42.870    553.000    604.445    -51.445    502.310    604.013    502.310    502.799    502.310
 42.970    621.783    578.517     43.266    502.220    578.063    502.220    502.718    502.220
 43.070    524.000    553.484    -29.484    502.132    553.007    502.132    502.638    502.132
 43.170    561.000    534.389     26.611    502.045    533.891    502.045    502.561    502.045
 43.270    525.000    522.130      2.870    501.960    521.614    501.960    502.486    501.960
 43.370    483.804    515.239    -31.434    501.876    514.708    501.876    502.412    501.876
 43.470    496.000    511.670    -15.670    501.793    511.126    501.793    502.341    501.793
 43.570    519.166    509.829      9.337    501.713    509.273    501.713    502.272    501.713
 43.670    473.062    508.792    -35.730    501.633    508.223    501.633    502.204    501.633
 43.770    499.000    508.124     -9.124    501.555    507.542    501.555    502.139    501.555
 43.870    483.000    507.644    -24.644    501.479    507.049    501.479    502.075    501.479
 43.970    520.000    507.278     12.722    501.404    506.669    501.404    502.014    501.404
 44.070    533.000    506.991     26.009    501.331    506.368    501.331    501.955    501.331
 44.170    530.000    506.765     23.235    501.259    506.126    501.259    501.898    501.259
 44.270    487.909    506.585    -18.677    501.189    505.931    501.189    501.843    501.189
 44.370    492.000    506.444    -14.444    501.120    505.773    501.120    501.791    501.120
 44.470    539.889    506.334     33.555    501.053    505.646    501.053    501.741    501.053
 44.570    518.000    506.251     11.749    500.987    505.545    500.987    501.693    500.987
 44.670    499.988    506.191     -6.203    500.922    505.465    500.922    501.648    500.922
 44.770    499.292    506.151     -6.859    500.859    505.405    500.859    501.605    500.859
 44.870    526.000    506.130     19.870    500.798    505.363    500.798    501.565    500.798
 44.970    506.000    506.127     -0.127    500.738    505.337    500.738    501.528    500.738
 45.070    479.393    506.139    -26.746    500.679    505.325    500.679    501.493    500.679
 45.170    508.000    506.168      1.832    500.622    505.329    500.622    501.462    500.622
 45.270    530.000    506.212     23.788    500.566    505.346    500.566    501.433    500.566
 45.370    516.000    506.272      9.728    500.512    505.377    500.512    501.408    500.512
 45.470    531.941    506.348     25.593    500.460    505.422    500.460    501.386    500.460
 45.570    477.000    506.441    -29.441    500.408    505.482    500.408    501.367    500.408
 45.670    489.000    506.552    -17.552    500.358    505.557    500.358    501.352    500.358
 45.770    520.427    506.681     13.746    500.310    505.649    500.310    501.341    500.310
 45.870    518.000    506.830     11.170    500.263    505.758    500.263    501.335    500.263
 45.970    549.800    507.002     42.798    500.217    505.887    500.217    501.332    500.217
 46.070    564.000    507.200     56.800    500.173    506.037    500.173    501.335    500.173
 46.170    499.000    507.425     -8.425    500.131    506.212    500.131    501.343    500.131
 46.270    542.072    507.682     34.389    500.089    506.414    500.089    501.356    500.089
 46.370    467.000    507.977    -40.977    500.049    506.650    500.049    501.376    500.049
 46.470    543.073    508.316     34.757    500.011    506.924    500.011    501.402    500.011
 46.570    517.000    508.707      8.293    499.974    507.244    499.974    501.436    499.974
 46.670    499.500    509.163     -9.663    499.938    507.622    499.938    501.478    499.938
 46.770    498.000    509.707    -11.707    499.904    508.081    499.904    501.529    499.904
 46.870    486.000    510.384    -24.384    499.871    508.663    499.871    501.590    499.871
 46.970    549.000    511.289     37.711    499.839    509.463    499.839    501.663    499.839
 47.070    527.772    512.640     15.132    499.809    510.698    499.809    501.748    499.809
 47.170    471.000    514.877    -43.877    499.780    512.804    499.780    501.849    499.780
 47.270    531.604    518.755     12.849    499.753    516.534    499.753    501.966    499.753
 47.370    498.031    525.294    -27.263    499.727    522.905    499.727    502.103    499.727
 47.470    528.000    535.439     -7.439    499.702    532.857    499.702    502.264    499.702
 47.570    534.000    549.368    -15.368    499.679    546.566    499.679    502.451    499.679
 47.670    525.000    565.679    -40.679    499.657    562.624    499.657    502.671    499.657
 47.770    550.037    580.848    -30.811    499.636    577.504    499.636    502.929    499.636
 47.870    614.000    589.835     24.165    499.617    586.162    499.617    503.234    499.617
 47.970    560.604    588.976    -28.372    499.599    584.927    499.599    503.596    499.599
 48.070    578.973    579.290     -0.318    499.582    574.800    499.582    504.029    499.582
 48.170    574.000    565.423      8.577    499.567    560.403    499.567    504.554    499.567
 48.270    569.000    552.075     16.925    499.553    546.403    499.553    505.203    499.553
 48.370    536.000    542.068     -6.068    499.540    535.565    499.540    506.028    499.540
 48.470    580.832    536.292     44.541    499.529    528.685    499.529    507.126    499.529
 48.570    531.663    534.432     -2.769    499.518    525.277    499.518    508.668    499.518
 48.670    514.000    535.825    -21.825    499.510    524.382    499.510    510.948    499.510
 48.770    537.000    540.082     -3.082    499.502    525.141    499.502    514.440    499.502
 48.870    494.000    547.346    -53.346    499.496    527.028    499.496    519.810    499.496
 48.970    531.000    558.234    -27.234    499.491    529.850    499.491    527.870    499.491
 49.070    571.000    573.615     -2.615    499.487    533.710    499.487    539.386    499.487
 49.170    611.000    594.387     16.613    499.485    539.108    499.485    554.756    499.485
 49.270    635.522    621.536     13.986    499.483    547.456    499.483    573.554    499.483
 49.370    702.981    656.941     46.040    499.483    562.420    499.483    593.989    499.483
 49.470    744.000    705.484     38.516    499.485    592.522    499.485    612.419    499.485
 49.570    810.288    778.862     31.426    499.487    654.586    499.487    623.717    499.487
 49.670    921.844    899.680     22.164    499.491    775.375    499.491    623.717    499.491
 49.770   1137.000   1099.180     37.820    499.496    986.126    499.496    612.427    499.496
 49.870   1458.279   1400.178     58.101    499.502   1305.500    499.502    594.016    499.502
 49.970   1741.415   1788.464    -47.049    499.509   1714.181    499.509    573.611    499.509
 50.070   2177.369   2190.753    -13.385    499.518   2135.273    499.518    554.850    499.518
 50.170   2435.000   2481.207    -46.207    499.528   2441.163    499.528    539.520    499.528
 50.270   2545.200   2536.044      9.156    499.539   2507.613    499.539    528.042    499.539
 50.370   2401.481   2323.198     78.284    499.551   2302.895    499.551    520.019    499.551
 50.470   1928.000   1933.639     -5.639    499.564   1918.717    499.564    514.684    499.564
 50.570   1526.325   1505.362     20.963    499.579   1493.893    499.579    511.227    499.579
 50.670   1180.105   1142.778     37.327    499.594   1133.529    499.594    508.979    499.594
 50.770    881.872    890.313     -8.441    499.611    882.546    499.611    507.469    499.611
 50.870    724.000    742.403    -18.403    499.629    735.691    499.629    506.403    499.629
 50.970    673.000    668.317      4.683    499.648    662.402    499.648    505.609    499.648
 51.070    629.826    634.509     -4.683    499.669    629.223    499.669    504.992    499.669
 51.170    649.000    616.354     32.646    499.690    611.580    499.690    504.499    499.690
 51.270    579.000    601.060    -22.060    499.713    596.704    499.713    504.098    499.713
 51.370    604.858    585.283     19.575    499.736    581.274    499.736    503.769    499.736
 51.470    606.000    570.117     35.883    499.761    566.399    499.761    503.497    499.761
 51.570    577.829    557.263     20.566    499.787    553.790    499.787    503.272    499.787
 51.670    509.000    547.615    -38.615    499.814    544.351    499.814    503.086    499.814
 51.770    515.000    541.146    -26.146    499.842    538.061    499.842    502.933    499.842
 51.870    557.000    537.252     19.748    499.871    534.319    499.871    502.807    499.871
 51.970    533.000    535.183     -2.183    499.901    532.383    499.901    502.705    499.901
 52.070    558.000    534.345     23.655    499.932    531.656    499.932    502.623    499.932
 52.170    506.428    534.396    -27.968    499.965    531.804    499.965    502.559    499.965
 52.270    571.469    535.240     36.230    499.998    532.728    499.998    502.511    499.998
 52.370    595.000    537.011     57.989    500.032    534.568    500.032    502.476    500.032
 52.470    583.395    540.183     43.212    500.068    537.797    500.068    502.454    500.068
 52.570    602.000    545.860     56.140    500.104    543.522    500.104    502.443    500.104
 52.670    563.000    556.294      6.706    500.142    553.993    500.142    502.442    500.142
 52.770    611.000    575.480     35.520    500.180    573.208    500.180    502.450    500.180
 52.870    618.000    609.403      8.597    500.220    607.152    500.220    502.467    500.220
 52.970    638.519    665.173    -26.654    500.260    662.936    500.260    502.492    500.260
 53.070    779.000    748.388     30.612    500.302    746.158    500.302    502.525    500.302
 53.170    849.420    858.899     -9.480    500.344    856.672    500.344    502.564    500.344
 53.270   1000.000    986.308     13.692    500.388    984.081    500.388    502.611    500.388
 53.370   1132.000   1107.311     24.689    500.432   1105.083    500.432    502.664    500.432
 53.470   1143.554   1188.476    -44.922    500.477   1186.246    500.477    502.724    500.477
 53.570   1170.181   1200.147    -29.966    500.524   1197.911    500.524    502.790    500.524
 53.670   1074.000   1137.357    -63.357    500.571   1135.103    500.571    502.862    500.571
 53.770   1054.000   1024.454     29.546    500.619   1022.171    500.619    502.941    500.619
 53.870    835.000    896.182    -61.182    500.668    893.858    500.668    503.026    500.668
 53.970    770.102    779.576     -9.475    500.718    777.203    500.718    503.117    500.718
 54.070    679.560    688.630     -9.070    500.769    686.202    500.769    503.215    500.769
 54.170    664.000    625.996     38.004    500.821    623.508    500.821    503.320    500.821
 54.270    583.000    587.205     -4.205    500.874    584.654    500.874    503.432    500.874
 54.370    575.000    565.183      9.817    500.927    562.564    500.927    503.551    500.927
 54.470    595.000    553.430     41.570    500.982    550.737    500.982    503.677    500.982
 54.570    575.000    547.357     27.643    501.037    544.584    501.037    503.812    501.037
 54.670    539.000    544.271     -5.271    501.093    541.411    501.093    503.954    501.093
 54.770    561.000    542.801     18.199    501.150    539.847    501.150    504.106    501.150
 54.870    533.000    542.325     -9.325    501.208    539.267    501.208    504.268    501.208
 54.970    569.000    542.582     26.418    501.267    539.410    501.267    504.439    501.267
 55.070    599.000    543.474     55.526    501.327    540.180    501.327    504.622    501.327
 55.170    515.973    544.986    -29.013    501.387    541.556    501.387    504.817    501.387
 55.270    573.000    547.145     25.855    501.448    543.569    501.448    505.025    501.448
 55.370    598.000    550.028     47.972    501.510    546.292    501.510    505.247    501.510
 55.470    570.000    553.773     16.227    501.573    549.861    501.573    505.484    501.573
 55.570    593.000    558.635     34.365    501.636    554.532    501.636    505.739    501.636
 55.670    548.000    565.144    -17.144    501.701    560.831    501.701    506.013    501.701
 55.770    561.000    574.452    -13.452    501.766    569.907    501.766    506.309    501.766
 55.870    625.000    589.055     35.945    501.832    584.256    501.832    506.628    501.832
 55.970    623.000    614.026      8.974    501.898    608.944    501.898    506.974    501.898
 56.070    611.000    658.602    -47.602    501.966    653.206    501.966    507.349    501.966
 56.170    711.000    737.367    -26.367    502.034    731.617    502.034    507.759    502.034
 56.270    900.768    869.411     31.357    502.102    863.266    502.102    508.207    502.102
 56.370   1052.889   1073.601    -20.712    502.172   1067.015    502.172    508.700    502.172
 56.470   1313.243   1359.278    -46.035    502.242   1352.204    502.242    509.243    502.242
 56.570   1738.000   1714.511     23.489    502.313   1706.906    502.313    509.845    502.313
 56.670   2058.000   2096.513    -38.513    502.385   2088.333    502.385    510.514    502.385
 56.770   2438.000   2429.904      8.096    502.457   2421.103    502.457    511.264    502.457
 56.870   2607.000   2622.436    -15.436    502.530   2612.949    502.530    512.107    502.530
 56.970   2690.556   2608.280     82.276    502.603   2598.001    502.603    513.061    502.603
 57.070   2444.447   2393.572     50.875    502.678   2382.339    502.678    514.148    502.678
 57.170   2121.000   2051.269     69.731    502.752   2038.874    502.752    515.397    502.752
 57.270   1715.000   1672.884     42.116    502.828   1659.091    502.828    516.845    502.828
 57.370   1268.000   1329.544    -61.544    502.904   1314.078    502.904    518.548    502.904
 57.470   1070.000   1059.453     10.547    502.981   1041.970    502.981    520.590    502.981
 57.570    839.292    871.124    -31.833    503.058    851.150    503.058    523.114    503.058
 57.670    703.966    753.710    -49.744    503.136    730.532    503.136    526.362    503.136
 57.770    780.000    688.818     91.182    503.215    661.309    503.215    530.749    503.215
 57.870    737.000    659.497     77.503    503.294    625.841    503.294    536.960    503.294
 57.970    657.002    654.725      2.277    503.373    612.044    503.373    546.054    503.373
 58.070    663.000    670.038     -7.038    503.454    613.952    503.454    559.530    503.454
 58.170    676.000    706.091    -30.091    503.534    630.324    503.534    579.281    503.534
 58.270    724.158    766.243    -42.085    503.616    662.464    503.616    607.362    503.616
 58.370    867.000    853.803     13.197    503.698    711.944    503.698    645.512    503.698
 58.470    915.000    969.306    -54.306    503.780    778.569    503.780    694.461    503.780
 58.570   1084.826   1108.167    -23.341    503.863    858.864    503.863    753.105    503.863
 58.670   1283.153   1259.224     23.929    503.946    945.508    503.946    817.603    503.946
 58.770   1438.000   1405.247     32.753    504.030   1028.731    504.030    880.496    504.030
 58.870   1573.152   1526.132     47.020    504.115   1099.694    504.115    930.518    504.115
 58.970   1592.470   1602.937    -10.467    504.199   1151.984    504.199    955.140    504.199
 59.070   1566.822   1622.020    -55.197    504.285   1179.423    504.285    946.891    504.285
 59.170   1567.000   1580.959    -13.959    504.370   1176.824    504.370    908.534    504.370
 59.270   1426.673   1492.437    -65.764    504.457   1146.016    504.457    850.912    504.457
 59.370   1408.000   1380.200     27.800    504.543   1098.401    504.543    786.366    504.543
 59.470   1252.000   1269.137    -17.137    504.630   1049.447    504.630    724.321    504.630
 59.570   1203.000   1179.126     23.874    504.718   1013.444    504.718    670.366    504.718
 59.670   1186.478   1125.687     60.791    504.806   1003.515    504.806    626.901    504.806
 59.770   1176.000   1120.818     55.182    504.894   1031.554    504.894    594.030    504.894
 59.870   1136.658   1169.075    -32.417    504.983   1103.432    504.983    570.442    504.983
 59.970   1288.056   1262.493     25.563    505.072   1213.151    505.072    554.176    505.072
 60.070   1439.000   1378.581     60.419    505.161   1340.242    505.161    543.222    505.161
 60.170   1498.000   1482.359     15.641    505.251   1451.450    505.251    535.867    505.251
 60.270   1465.591   1534.663    -69.072    505.341   1508.897    505.341    530.835    505.341
 60.370   1537.335   1508.940     28.395    505.432   1486.886    505.432    527.262    505.432
 60.470   1387.000   1406.563    -19.563    505.523   1387.314    505.523    524.611    505.523
 60.570   1274.000   1253.999     20.001    505.614   1236.947    505.614    522.565    505.614
 60.670   1108.760   1085.872     22.888    505.705   1070.578    505.705    520.943    505.705
 60.770    924.000    930.805     -6.805    505.797    916.929    505.797    519.646    505.797
 60.870    795.000    805.774    -10.774    505.889    793.031    505.889    518.620    505.889
 60.970    730.000    716.294     13.706    505.982    704.428    505.982    517.841    505.982
 61.070    648.000    659.855    -11.855    506.074    648.624    506.074    517.298    506.074
 61.170    658.000    630.606     27.394    506.167    619.772    506.167    516.990    506.167
 61.270    569.000    623.440    -54.440    506.261    612.767    506.261    516.914    506.261
 61.370    590.000    636.427    -46.427    506.354    625.691    506.354    517.060    506.354
 61.470    688.000    671.325     16.675    506.448    660.331    506.448    517.394    506.448
 61.570    733.000    732.314      0.686    506.542    720.929    506.542    517.856    506.542
 61.670    815.000    823.243     -8.243    506.636    811.433    506.636    518.346    506.636
 61.770    911.941    943.942    -32.001    506.730    931.818    506.730    518.723    506.730
 61.870   1131.580   1086.661     44.918    506.825   1074.494    506.825    518.830    506.825
 61.970   1227.000   1233.922     -6.922    506.919   1222.097    506.919    518.563    506.919
 62.070   1360.000   1359.124      0.876    507.014   1348.028    507.014    517.928    507.014
 62.170   1382.000   1432.046    -50.046    507.109   1421.961    507.109    517.035    507.109
 62.270   1410.000   1431.109    -21.109    507.204   1422.165    507.204    516.029    507.204
 62.370   1411.369   1356.153     55.216    507.300   1348.342    507.300    515.037    507.300
 62.470   1181.000   1228.600    -47.600    507.395   1221.820    507.395    514.140    507.395
 62.570   1071.000   1078.752     -7.752    507.491   1072.854    507.491    513.380    507.491
 62.670    960.000    933.312     26.688    507.587    928.132    507.587    512.771    507.587
 62.770    803.000    809.716     -6.716    507.683    805.104    507.683    512.305    507.683
 62.870    670.000    715.451    -45.451    507.779    711.278    507.779    511.962    507.779
 62.970    614.000    650.054    -36.054    507.875    646.218    507.875    511.716    507.875
 63.070    623.252    608.365     14.886    507.971    604.794    507.971    511.544    507.971
 63.170    597.000    583.734     13.266    508.067    580.375    508.067    511.425    508.067
 63.270    601.000    570.216     30.784    508.164    567.034    508.164    511.342    508.164
 63.370    610.000    563.584     46.416    508.260    560.552    508.260    511.287    508.260
 63.470    531.035    561.463    -30.427    508.356    558.560    508.356    511.252    508.356
 63.570    527.000    563.075    -36.075    508.453    560.288    508.453    511.231    508.453
 63.670    591.470    568.951     22.519    508.549    566.265    508.549    511.223    508.549
 63.770    605.000    580.668     24.332    508.646    578.073    508.646    511.224    508.646
 63.870    568.000    600.559    -32.559    508.742    598.041    508.742    511.233    508.742
 63.970    599.589    631.198    -31.609    508.839    628.747    508.839    511.249    508.839
 64.070    733.000    674.573     58.427    508.936    672.179    508.936    511.272    508.936
 64.170    775.000    730.997     44.003    509.032    728.651    509.032    511.301    509.032
 64.270    830.000    797.980     32.020    509.128    795.676    509.128    511.335    509.128
 64.370    852.414    869.411    -16.997    509.225    867.146    509.225    511.374    509.225
 64.470    922.170    935.530    -13.360    509.321    933.307    509.321    511.417    509.321
 64.570    981.000    984.630     -3.630    509.418    982.456    509.418    511.464    509.418
 64.670   1042.000   1007.084     34.916    509.514   1004.967    509.514    511.515    509.514
 64.770   1019.000    999.481     19.519    509.610    997.427    509.610    511.570    509.610
 64.870   1021.000    965.398     55.602    509.706    963.410    509.706    511.627    509.706
 64.970    965.620    913.227     52.393    509.802    911.301    509.802    511.688    509.802
 65.070    823.842    853.163    -29.321    509.898    851.294    509.898    511.751    509.898
 65.170    771.945    794.107    -22.162    509.994    792.287    509.994    511.817    509.994
 65.270    705.000    741.573    -36.573    510.089    739.793    510.089    511.886    510.089
 65.370    727.733    697.518     30.215    510.185    695.770    510.185    511.957    510.185
 65.470    692.017    661.653     30.364    510.280    659.929    510.280    512.030    510.280
 65.570    616.000    632.965    -16.965    510.375    631.259    510.375    512.105    510.375
 65.670    641.000    610.440     30.560    510.471    608.747    510.471    512.182    510.471
 65.770    597.000    593.154      3.846    510.565    591.472    510.565    512.261    510.565
 65.870    600.000    580.278     19.722    510.660    578.605    510.660    512.342    510.660
 65.970    616.000    571.086     44.914    510.755    569.420    510.755    512.425    510.755
 66.070    548.806    564.941    -16.135    510.849    563.282    510.849    512.509    510.849
 66.170    548.421    561.278    -12.857    510.943    559.625    510.943    512.595    510.943
 66.270    515.784    559.607    -43.823    511.037    557.960    511.037    512.683    511.037
 66.370    543.000    559.538    -16.538    511.131    557.895    511.131    512.773    511.131
 66.470    540.000    560.823    -20.823    511.224    559.183    511.224    512.864    511.224
 66.570    504.000    563.407    -59.407    511.317    561.768    511.317    512.957    511.317
 66.670    555.361    567.519    -12.158    511.410    565.878    511.410    513.051    511.410
 66.770    545.000    573.832    -28.832    511.503    572.187    511.503    513.148    511.503
 66.870    575.000    583.764     -8.764    511.595    582.113    511.595    513.245    511.595
 66.970    595.724    599.922     -4.198    511.687    598.262    511.687    513.345    511.687
 67.070    586.014    626.651    -40.637    511.779    624.978    511.779    513.446    511.779
 67.170    631.000    670.489    -39.489    511.870    668.800    511.870    513.549    511.870
 67.270    731.000    740.173     -9.173    511.962    738.463    511.962    513.654    511.962
 67.370    832.000    845.711    -13.711    512.052    843.979    512.052    513.760    512.052
 67.470    991.000    996.169     -5.169    512.143    994.414    512.143    513.869    512.143
 67.570   1145.722   1196.198    -50.476    512.233   1194.424    512.233    513.980    512.233
 67.670   1445.876   1441.976      3.900    512.323   1440.193    512.323    514.093    512.323
 67.770   1758.000   1717.749     40.251    512.412   1715.970    512.412    514.208    512.412
 67.870   2050.000   1994.221     55.779    512.501   1992.462    512.501    514.326    512.501
 67.970   2182.000   2230.127    -48.127    512.590   2228.402    512.590    514.446    512.590
 68.070   2458.000   2379.433     78.567    512.679   2377.749    512.679    514.569    512.679
 68.170   2459.000   2406.624     52.376    512.767   2404.970    512.767    514.695    512.767
 68.270   2217.603   2304.446    -86.842    512.854   2302.794    512.854    514.824    512.854
 68.370   2012.876   2098.445    -85.569    512.941   2096.757    512.941    514.956    512.941
 68.470   1890.000   1832.900     57.100    513.028   1831.141    513.028    515.092    513.028
 68.570   1572.000   1552.556     19.444    513.114   1550.702    513.114    515.232    513.114
 68.670   1304.000   1292.074     11.926    513.200   1290.109    513.200    515.377    513.200
 68.770   1104.293   1072.663     31.630    513.285   1070.582    513.285    515.526    513.285
 68.870    898.827    902.643     -3.816    513.370    900.446    513.370    515.681    513.370
 68.970    773.000    780.287     -7.287    513.455    777.978    513.455    515.841    513.455
 69.070    752.000    697.805     54.195    513.539    695.386    513.539    516.007    513.539
 69.170    623.458    645.180    -21.722    513.622    642.653    513.622    516.181    513.622
 69.270    628.000    612.945     15.055    513.705    610.308    513.705    516.362    513.705
 69.370    609.000    593.605     15.395    513.788    590.854    513.788    516.552    513.788
 69.470    574.000    581.949     -7.949    513.870    579.077    513.870    516.751    513.870
 69.570    527.432    574.712    -47.280    513.952    571.708    513.952    516.961    513.952
 69.670    538.000    570.016    -32.016    514.033    566.869    514.033    517.183    514.033
 69.770    618.000    566.856     51.144    514.113    563.554    514.113    517.419    514.113
 69.870    585.000    564.721     20.279    514.193    561.247    514.193    517.670    514.193
 69.970    582.807    563.358     19.450    514.272    559.694    514.272    517.937    514.272
 70.070    576.000    562.647     13.353    514.351    558.774    514.351    518.225    514.351
 70.170    597.000    562.542     34.458    514.429    558.437    514.429    518.534    514.429
 70.270    537.729    563.051    -25.321    514.507    558.687    514.507    518.870    514.507
 70.370    547.000    564.248    -17.248    514.584    559.596    514.584    519.234    514.584
 70.470    598.000    566.312     31.688    514.660    561.337    514.660    519.633    514.660
 70.570    592.000    569.606     22.394    514.736    564.267    514.736    520.071    514.736
 70.670    558.056    574.821    -16.766    514.811    569.070    514.811    520.556    514.811
 70.770    576.004    583.191     -7.187    514.886    576.971    514.886    521.096    514.886
 70.870    554.000    596.768    -42.768    514.960    590.008    514.960    521.704    514.960
 70.970    598.000    618.703    -20.703    515.033    611.316    515.033    522.395    515.033
 71.070    666.000    653.403     12.597    515.106    645.275    515.106    523.196    515.106
 71.170    712.000    706.367      5.633    515.178    697.341    515.178    524.148    515.178
 71.270    753.249    783.493    -30.244    515.250    773.345    515.250    525.318    515.250
 71.370    846.364    889.748    -43.384    515.320    878.142    515.320    526.819    515.320
 71.470   1030.975   1027.294      3.682    515.390   1013.712    515.390    528.833    515.390
 71.570   1169.013   1193.461    -24.448    515.460   1177.106    515.460    531.646    515.460
 71.670   1342.356   1379.134    -36.778    515.528   1358.787    515.528    535.682    515.528
 71.770   1628.596   1568.054     60.542    515.596   1541.917    515.596    541.526    515.596
 71.870   1742.000   1737.491      4.509    515.664   1703.018    515.664    549.931    515.664
 71.970   1846.000   1861.274    -15.274    515.730   1815.052    515.730    561.765    515.730
 72.070   1861.000   1916.947    -55.947    515.796   1854.687    515.796    577.902    515.796
 72.170   1942.000   1895.849     46.151    515.861   1812.553    515.861    599.041    515.861
 72.270   1757.000   1808.141    -51.141    515.925   1698.522    515.925    625.463    515.925
 72.370   1620.433   1677.025    -56.592    515.989   1536.186    515.989    656.777    515.989
 72.470   1507.008   1528.223    -21.215    516.052   1352.565    516.052    691.679    516.052
 72.570   1416.000   1382.637     33.363    516.114   1170.960    516.114    727.773    516.114
 72.670   1243.000   1253.307    -10.307    516.175   1007.968    516.175    761.502    516.175
 72.770   1130.000   1145.023    -15.023    516.236    872.884    516.236    788.366    516.236
 72.870    962.000   1055.941    -93.941    516.296    768.467    516.296    803.761    516.296
 72.970    916.000    980.839    -64.839    516.354    692.621    516.354    804.565    516.354
 73.070    838.000    914.656    -76.656    516.413    640.454    516.413    790.607    516.413
 73.170    786.000    854.468    -68.468    516.470    606.159    516.470    764.773    516.470
 73.270    791.960    799.423     -7.463    516.526    584.341    516.526    731.604    516.526
 73.370    703.377    749.789    -46.412    516.582    570.700    516.582    695.668    516.582
 73.470    661.577    706.187    -44.610    516.637    562.189    516.637    660.633    516.637
 73.570    699.213    669.175     30.038    516.691    556.859    516.691    629.007    516.691
 73.670    676.040    639.023     37.018    516.744    553.577    516.744    602.191    516.744
 73.770    592.000    615.603    -23.603    516.796    551.746    516.796    580.657    516.796
 73.870    566.835    598.395    -31.559    516.848    551.075    516.848    564.175    516.848
 73.970    612.000    586.577     25.423    516.898    551.410    516.898    552.077    516.898
 74.070    594.000    579.155     14.845    516.948    552.625    516.948    543.494    516.948
 74.170    584.000    575.076      8.924    516.997    554.542    516.997    537.552    516.997
 74.270    572.000    573.305     -1.305    517.045    556.893    517.045    533.485    517.045
 74.370    616.905    572.864     44.041    517.092    559.302    517.092    530.687    517.092
 74.470    534.000    572.855    -38.855    517.138    561.308    517.138    528.723    517.138
 74.570    624.000    572.498     51.502    517.183    562.430    517.183    527.294    517.183
 74.670    649.000    571.238     77.762    517.228    562.301    517.228    526.208    517.228
 74.770    666.000    568.861     97.139    517.271    560.824    517.271    525.350    517.271
 74.870    548.116    565.522    -17.406    517.313    558.227    517.313    524.646    517.313
 74.970    680.000    561.635    118.365    517.355    554.967    517.355    524.055    517.355
 75.070    586.000    557.707     28.293    517.395    551.579    517.395    523.550    517.395
 75.170    560.000    554.243      5.757    517.435    548.586    517.435    523.113    517.435
 75.270    515.649    551.717    -36.068    517.474    546.474    517.474    522.731    517.474
 75.370    558.549    550.586      7.963    517.511    545.709    517.511    522.397    517.511
 75.470    580.000    551.314     28.686    517.548    546.763    517.548    522.102    517.548
 75.570    532.000    554.394    -22.394    517.584    550.134    517.584    521.841    517.584
 75.670    574.480    560.340     14.140    517.619    556.340    517.619    521.609    517.619
 75.770    556.000    569.623    -13.623    517.652    565.858    517.652    521.403    517.652
 75.870    560.000    582.558    -22.558    517.685    579.002    517.685    521.219    517.685
 75.970    611.000    599.133     11.867    517.717    595.765    517.717    521.054    517.717
 76.070    649.000    618.844     30.156    517.748    615.647    517.748    520.906    517.748
 76.170    617.980    640.565    -22.585    517.777    637.522    517.777    520.773    517.777
 76.270    681.000    662.487     18.513    517.806    659.586    517.806    520.652    517.806
 76.370    646.256    682.191    -35.934    517.834    679.421    517.834    520.543    517.834
 76.470    727.345    696.905     30.440    517.861    694.258    517.861    520.445    517.861
 76.570    741.000    704.100     36.900    517.886    701.570    517.886    520.355    517.886
 76.670    674.791    702.347    -27.556    517.911    699.928    517.911    520.273    517.911
 76.770    689.000    691.944     -2.944    517.934    689.631    517.934    520.198    517.934
 76.870    650.000    674.767    -24.767    517.957    672.554    517.957    520.129    517.957
 76.970    621.000    653.489    -32.489    517.978    651.369    517.978    520.066    517.978
 77.070    621.000    630.791     -9.791    517.998    628.757    517.998    520.008    517.998
 77.170    580.162    608.884    -28.723    518.018    606.930    518.018    519.955    518.018
 77.270    562.000    589.319    -27.319    518.036    587.438    518.036    519.905    518.036
 77.370    534.030    572.957    -38.927    518.053    571.143    518.053    519.859    518.053
 77.470    595.809    560.049     35.761    518.069    558.297    518.069    519.816    518.069
 77.570    548.000    550.387     -2.387    518.084    548.692    518.084    519.776    518.084
 77.670    484.000    543.487    -59.487    518.098    541.844    518.098    519.738    518.098
 77.770    504.000    538.749    -34.749    518.111    537.156    518.111    519.702    518.111
 77.870    512.000    535.593    -23.593    518.122    534.045    518.122    519.669    518.122
 77.970    494.000    533.527    -39.527    518.133    532.022    518.133    519.637    518.133
 78.070    481.000    532.166    -51.166    518.142    530.700    518.142    519.607    518.142
 78.170    483.000    531.243    -48.243    518.150    529.815    518.150    519.578    518.150
 78.270    532.642    530.637      2.005    518.157    529.243    518.157    519.550    518.157
 78.370    519.000    530.218    -11.218    518.163    528.856    518.163    519.524    518.163
 78.470    571.986    529.926     42.060    518.168    528.595    518.168    519.498    518.168
 78.570    509.850    529.735    -19.885    518.172    528.433    518.172    519.474    518.172
 78.670    533.000    529.636      3.364    518.175    528.360    518.175    519.450    518.175
 78.770    519.000    529.634    -10.634    518.176    528.382    518.176    519.428    518.176
 78.870    529.000    529.745     -0.745    518.176    528.514    518.176    519.406    518.176
 78.970    511.000    529.992    -18.992    518.175    528.780    518.175    519.386    518.175
 79.070    529.000    530.405     -1.405    518.173    529.210    518.173    519.367    518.173
 79.170    571.332    531.017     40.315    518.170    529.835    518.170    519.351    518.170
 79.270    550.000    531.863     18.137    518.165    530.689    518.165    519.338    518.165
 79.370    539.000    532.973      6.027    518.160    531.802    518.160    519.328    518.160
 79.470    527.000    534.375     -7.375    518.153    533.201    518.153    519.325    518.153
 79.570    513.000    536.099    -23.099    518.145    534.913    518.145    519.328    518.145
 79.670    559.381    538.185     21.196    518.136    536.977    518.136    519.340    518.136
 79.770    536.000    540.698     -4.698    518.126    539.457    518.126    519.361    518.126
 79.870    545.082    543.749      1.333    518.114    542.464    518.114    519.393    518.114
 79.970    565.000    547.521     17.479    518.101    546.180    518.101    519.436    518.101
 80.070    559.000    552.291      6.709    518.087    550.883    518.087    519.490    518.087
 80.170    616.000    558.452     57.548    518.072    556.968    518.072    519.552    518.072
 80.270    574.000    566.482      7.518    518.056    564.916    518.056    519.618    518.056
 80.370    571.000    576.860     -5.860    518.038    575.214    518.038    519.684    518.038
 80.470    589.000    589.947     -0.947    518.019    588.228    518.019    519.741    518.019
 80.570    582.737    605.863    -23.126    517.999    604.088    517.999    519.780    517.999
 80.670    648.690    624.395     24.295    517.978    622.589    517.978    519.794    517.978
 80.770    631.000    644.932    -13.932    517.955    643.129    517.955    519.774    517.955
 80.870    637.858    666.474    -28.615    517.931    664.708    517.931    519.719    517.931
 80.970    725.541    687.717     37.824    517.906    686.020    517.906    519.633    517.906
 81.070    708.549    707.242      1.307    517.880    705.637    517.880    519.522    517.880
 81.170    766.000    723.714     42.286    517.852    722.214    517.852    519.396    517.852
 81.270    781.000    736.017     44.983    517.824    734.626    517.824    519.264    517.824
 81.370    763.913    743.349     20.564    517.794    742.066    517.794    519.133    517.794
 81.470    750.721    745.321      5.401    517.762    744.137    517.762    519.007    517.762
 81.570    763.000    741.996     21.004    517.730    740.900    517.730    518.890    517.730
 81.670    717.430    733.818    -16.388    517.696    732.798    517.696    518.783    517.696
 81.770    719.000    721.535     -2.535    517.661    720.577    517.661    518.686    517.661
 81.870    705.000    706.185     -1.185    517.625    705.276    517.625    518.599    517.625
 81.970    704.000    689.008     14.992    517.587    688.137    517.587    518.522    517.587
 82.070    622.169    671.216    -49.047    517.548    670.374    517.548    518.452    517.548
 82.170    669.000    653.742     15.258    517.508    652.920    517.508    518.387    517.508
 82.270    673.667    637.134     36.533    517.467    636.327    517.467    518.327    517.467
 82.370    633.000    621.634     11.366    517.424    620.838    517.424    518.269    517.424
 82.470    576.000    607.338    -31.338    517.380    606.549    517.380    518.214    517.380
 82.570    587.713    594.348     -6.635    517.335    593.562    517.335    518.159    517.335
 82.670    581.000    582.811     -1.811    517.288    582.027    517.288    518.105    517.288
 82.770    512.000    572.905    -60.905    517.241    572.121    517.241    518.051    517.241
 82.870    593.000    564.791     28.209    517.191    564.006    517.191    517.997    517.191
 82.970    551.000    558.598     -7.598    517.141    557.811    517.141    517.942    517.141
 83.070    552.792    554.407     -1.615    517.089    553.617    517.089    517.886    517.089
 83.170    557.000    552.237      4.763    517.036    551.444    517.036    517.830    517.036
 83.270    594.035    552.024     42.010    516.982    551.227    516.982    517.773    516.982
 83.370    520.846    553.601    -32.754    516.927    552.798    516.927    517.715    516.927
 83.470    514.766    556.682    -41.917    516.870    555.874    516.870    517.656    516.870
 83.570    540.000    560.863    -20.863    516.812    560.049    516.812    517.596    516.812
 83.670    533.000    565.622    -32.622    516.752    564.804    516.752    517.535    516.752
 83.770    538.000    570.349    -32.349    516.692    569.526    516.692    517.474    516.692
 83.870    541.000    574.380    -33.380    516.629    573.554    516.629    517.411    516.629
 83.970    587.000    577.077      9.923    516.566    576.249    516.566    517.347    516.566
 84.070    575.000    577.943     -2.943    516.502    577.115    516.502    517.283    516.502
 84.170    568.000    576.756     -8.756    516.436    575.930    516.436    517.217    516.436
 84.270    595.000    573.633     21.367    516.368    572.810    516.368    517.151    516.368
 84.370    531.000    568.973    -37.973    516.300    568.155    516.300    517.083    516.300
 84.470    556.000    563.320     -7.320    516.230    562.506    516.230    517.014    516.230
 84.570    535.000    557.234    -22.234    516.159    556.424    516.159    516.945    516.159
 84.670    521.711    551.207    -29.496    516.086    550.400    516.086    516.874    516.086
 84.770    536.000    545.621     -9.621    516.013    544.817    516.013    516.802    516.013
 84.870    576.000    540.732     35.268    515.938    539.929    515.938    516.730    515.938
 84.970    557.418    536.668     20.750    515.861    535.865    515.861    516.656    515.861
 85.070    529.000    533.453     -4.453    515.784    532.648    515.784    516.581    515.784
 85.170    529.000    531.030     -2.030    515.705    530.224    515.705    516.505    515.705
 85.270    558.546    529.298     29.249    515.624    528.489    515.624    516.429    515.624
 85.370    568.000    528.137     39.863    515.543    527.325    515.543    516.351    515.543
 85.470    554.000    527.435     26.565    515.460    526.619    515.460    516.272    515.460
 85.570    517.932    527.105     -9.172    515.376    526.284    515.376    516.192    515.376
 85.670    559.536    527.090     32.446    515.290    526.264    515.290    516.112    515.290
 85.770    478.000    527.374    -49.374    515.203    526.543    515.203    516.030    515.203
 85.870    541.000    527.984     13.016    515.115    527.147    515.115    515.947    515.115
 85.970    515.000    528.989    -13.989    515.026    528.144    515.026    515.863    515.026
 86.070    538.227    530.501      7.726    514.935    529.648    514.935    515.779    514.935
 86.170    526.079    532.673     -6.594    514.843    531.811    514.843    515.693    514.843
 86.270    496.000    535.691    -39.691    514.750    534.817    514.750    515.606    514.750
 86.370    580.931    539.747     41.184    514.655    538.862    514.655    515.519    514.655
 86.470    563.000    545.039     17.961    514.560    544.139    514.560    515.430    514.560
 86.570    532.375    551.730    -19.355    514.462    550.815    514.462    515.341    514.462
 86.670    547.000    559.872    -12.872    514.364    558.938    514.364    515.251    514.364
 86.770    586.000    569.393     16.607    514.264    568.441    514.264    515.159    514.264
 86.870    558.016    580.057    -22.040    514.163    579.084    514.163    515.066    514.163
 86.970    598.188    591.432      6.756    514.061    590.437    514.061    514.973    514.061
 87.070    616.000    602.889     13.111    513.957    601.873    513.957    514.880    513.957
 87.170    644.018    613.622     30.396    513.852    612.585    513.852    514.785    513.852
 87.270    616.000    622.700     -6.700    513.746    621.644    513.746    514.690    513.746
 87.370    593.000    629.190    -36.190    513.639    628.119    513.639    514.594    513.639
 87.470    631.000    632.345     -1.345    513.530    631.262    513.530    514.498    513.530
 87.570    673.410    631.816     41.594    513.420    630.726    513.420    514.401    513.420
 87.670    640.000    627.763     12.237    513.309    626.669    513.309    514.303    513.309
 87.770    637.000    620.793     16.207    513.196    619.697    513.196    514.205    513.196
 87.870    631.000    611.790     19.210    513.082    610.692    513.082    514.106    513.082
 87.970    651.000    601.734     49.266    512.967    600.635    512.967    514.006    512.967
 88.070    620.000    591.585     28.415    512.851    590.483    512.851    513.906    512.851
 88.170    628.409    582.199     46.210    512.733    581.092    512.733    513.806    512.733
 88.270    545.986    574.276    -28.290    512.614    573.161    512.614    513.705    512.614
 88.370    596.000    568.323     27.677    512.494    567.200    512.494    513.604    512.494
 88.470    517.470    564.646    -47.176    512.373    563.511    512.373    513.503    512.373
 88.570    567.000    563.345      3.655    512.250    562.196    512.250    513.402    512.250
 88.670    596.000    564.331     31.669    512.127    563.168    512.127    513.300    512.127
 88.770    578.000    567.341     10.659    512.002    566.161    512.002    513.199    512.002
 88.870    605.000    571.957     33.043    511.875    570.760    511.875    513.098    511.875
 88.970    587.325    577.632      9.693    511.748    576.416    511.748    512.997    511.748
 89.070    605.783    583.717     22.066    511.619    582.480    511.619    512.896    511.619
 89.170    573.000    589.493    -16.493    511.489    588.234    511.489    512.796    511.489
 89.270    639.000    594.228     44.772    511.358    592.943    511.358    512.696    511.358
 89.370    579.000    597.249    -18.249    511.225    595.935    511.225    512.597    511.225
 89.470    612.000    598.067     13.933    511.092    596.721    511.092    512.499    511.092
 89.570    551.000    596.486    -45.486    510.957    595.102    510.957    512.403    510.957
 89.670    632.822    592.647     40.175    510.821    591.221    510.821    512.308    510.821
 89.770    550.732    586.968    -36.236    510.683    585.495    510.683    512.214    510.683
 89.870    548.000    580.020    -32.020    510.545    578.495    510.545    512.122    510.545
 89.970    569.786    572.402     -2.616    510.405    570.821    510.405    512.033    510.405
 90.070    555.000    564.666     -9.666    510.265    563.024    510.265    511.946    510.265
 90.170    563.820    557.266      6.555    510.123    555.559    510.123    511.862    510.123
 90.270    537.000    550.539    -13.539    509.979    548.763    509.979    511.782    509.979
 90.370    538.984    544.700     -5.717    509.835    542.850    509.835    511.705    509.835
 90.470    531.288    539.850     -8.562    509.690    537.920    509.690    511.634    509.690
 90.570    533.000    535.991     -2.991    509.543    533.976    509.543    511.569    509.543
 90.670    479.000    533.053    -54.053    509.395    530.948    509.395    511.509    509.395
 90.770    497.000    530.904    -33.904    509.246    528.697    509.246    511.457    509.246
 90.870    536.000    529.457      6.543    509.096    527.137    509.096    511.419    509.096
 90.970    514.000    528.611    -14.611    508.945    526.161    508.945    511.396    508.945
 91.070    545.122    528.247     16.875    508.792    525.647    508.792    511.393    508.792
 91.170    519.000    528.300     -9.300    508.639    525.523    508.639    511.415    508.639
 91.270    511.000    528.742    -17.742    508.484    525.752    508.484    511.473    508.484
 91.370    496.000    529.594    -33.594    508.329    526.341    508.329    511.579    508.329
 91.470    568.580    530.927     37.653    508.172    527.345    508.172    511.751    508.172
 91.570    521.000    532.852    -11.852    508.014    528.852    508.014    512.009    508.014
 91.670    512.000    535.530    -23.530    507.855    530.997    507.855    512.381    507.855
 91.770    504.000    539.169    -35.169    507.695    533.953    507.695    512.902    507.695
 91.870    499.560    544.011    -44.451    507.533    537.923    507.533    513.610    507.533
 91.970    541.329    550.326     -8.997    507.371    543.132    507.371    514.550    507.371
 92.070    568.000    558.384      9.616    507.208    549.805    507.208    515.768    507.208
 92.170    607.868    568.435     39.433    507.044    558.143    507.044    517.311    507.044
 92.270    533.000    580.672    -47.672    506.878    568.301    506.878    519.219    506.878
 92.370    600.304    595.200      5.105    506.712    580.351    506.712    521.524    506.712
 92.470    587.000    612.002    -25.002    506.544    594.265    506.544    524.239    506.544
 92.570    655.269    630.913     24.355    506.376    609.883    506.376    527.356    506.376
 92.670    675.000    651.599     23.401    506.206    626.909    506.206    530.839    506.206
 92.770    654.000    673.558    -19.558    506.035    644.911    506.035    534.618    506.035
 92.870    673.000    696.103    -23.103    505.864    663.309    505.864    538.587    505.864
 92.970    745.000    718.412     26.588    505.691    681.431    505.691    542.598    505.691
 93.070    752.287    739.614     12.673    505.518    698.595    505.518    546.460    505.518
 93.170    754.000    758.912     -4.912    505.343    714.232    505.343    549.944    505.343
 93.270    791.000    775.724     15.276    505.168    728.018    505.168    552.794    505.168
 93.370    817.000    789.774     27.226    504.991    739.927    504.991    554.760    504.991
 93.470    798.000    801.084     -3.084    504.814    750.186    504.814    555.635    504.814
 93.570    804.000    809.908     -5.908    504.636    759.157    504.636    555.312    504.636
 93.670    765.258    816.664    -51.406    504.456    767.239    504.456    553.809    504.456
 93.770    817.000    821.885     -4.885    504.276    774.825    504.276    551.266    504.276
 93.870    858.783    826.221     32.562    504.095    782.343    504.095    547.905    504.095
 93.970    883.000    830.422     52.578    503.913    790.286    503.913    543.984    503.913
 94.070    842.000    835.271      6.729    503.730    799.187    503.730    539.751    503.730
 94.170    799.777    841.425    -41.648    503.546    809.483    503.546    535.426    503.546
 94.270    890.000    849.217     40.783    503.361    821.331    503.361    531.188    503.361
 94.370    891.000    858.512     32.488    503.176    834.458    503.176    527.173    503.176
 94.470    893.000    868.642     24.358    502.989    848.100    502.989    523.479    502.989
 94.570    831.078    878.450    -47.372    502.802    861.040    502.802    520.164    502.802
 94.670    895.000    886.403      8.597    502.614    871.718    502.614    517.257    502.614
 94.770    855.039    890.800    -35.760    502.425    878.430    502.425    514.760    502.425
 94.870    840.581    890.064    -49.483    502.235    879.621    502.235    512.654    502.235
 94.970    876.000    883.090     -7.090    502.044    874.215    502.044    510.903    502.044
 95.070    823.801    869.526    -45.725    501.853    861.905    501.853    509.466    501.853
 95.170    812.042    849.873    -37.831    501.661    843.237    501.661    508.297    501.661
 95.270    793.127    825.400    -32.272    501.468    819.525    501.468    507.349    501.468
 95.370    831.000    797.841     33.159    501.274    792.547    501.274    506.579    501.274
 95.470    801.000    769.139     31.861    501.079    764.282    501.079    505.949    501.079
 95.570    774.895    741.264     33.631    500.884    736.732    500.884    505.429    500.884
 95.670    710.997    716.082     -5.085    500.688    711.789    500.688    504.991    500.688
 95.770    732.000    695.283     36.717    500.492    691.165    500.492    504.616    500.492
 95.870    687.000    680.346      6.654    500.294    676.352    500.294    504.289    500.294
 95.970    672.000    672.529     -0.529    500.096    668.622    500.096    503.997    500.096
 96.070    665.000    672.899     -7.899    499.897    669.049    499.897    503.734    499.897
 96.170    700.582    682.320     18.262    499.698    678.503    499.698    503.492    499.698
 96.270    742.000    701.471     40.529    499.498    697.668    499.498    503.268    499.498
 96.370    737.000    730.813      6.187    499.297    727.007    499.297    503.059    499.297
 96.470    771.512    770.532      0.980    499.095    766.708    499.095    502.864    499.095
 96.570    829.560    820.441      9.119    498.893    816.587    498.893    502.681    498.893
 96.670    884.000    879.868      4.132    498.691    875.972    498.691    502.509    498.691
 96.770    986.166    947.550     38.616    498.488    943.602    498.488    502.348    498.488
 96.870    976.398   1021.544    -45.146    498.284   1017.535    498.284    502.198    498.284
 96.970   1075.000   1099.188    -24.188    498.079   1095.109    498.079    502.059    498.079
 97.070   1217.116   1177.115     40.001    497.874   1172.959    497.874    501.930    497.874
 97.170   1321.000   1251.339     69.661    497.669   1247.098    497.669    501.813    497.669
 97.270   1384.000   1317.445     66.555    497.463   1313.111    497.463    501.708    497.463
 97.370   1300.000   1370.934    -70.934    497.256   1366.500    497.256    501.615    497.256
 97.470   1356.014   1407.766    -51.752    497.049   1403.221    497.049    501.535    497.049
 97.570   1376.028   1425.032    -49.004    496.841   1420.365    496.841    501.469    496.841
 97.670   1464.000   1421.548     42.452    496.633   1416.745    496.633    501.419    496.633
 97.770   1448.000   1398.083     49.917    496.425   1393.125    496.425    501.386    496.425
 97.870   1278.000   1357.102    -79.102    496.216   1351.967    496.216    501.372    496.216
 97.970   1282.000   1302.212    -20.212    496.007   1296.874    496.007    501.381    496.007
 98.070   1228.000   1237.566     -9.566    495.797   1231.995    495.797    501.415    495.797
 98.170   1136.000   1167.407    -31.407    495.586   1161.567    495.586    501.481    495.586
 98.270   1133.875   1095.767     38.108    495.376   1089.615    495.376    501.584    495.376
 98.370   1045.135   1026.276     18.859    495.165   1019.761    495.165    501.736    495.165
 98.470    908.409    962.054    -53.645    494.953    955.111    494.953    501.949    494.953
 98.570    909.321    905.675      3.645    494.742    898.222    494.742    502.241    494.742
 98.670    804.327    859.178    -54.851    494.530    851.108    494.530    502.638    494.530
 98.770    813.836    824.110    -10.275    494.317    815.285    494.317    503.172    494.317
 98.870    788.819    801.635    -12.816    494.105    791.873    494.105    503.887    494.105
 98.970    757.000    792.595    -35.595    493.892    781.661    493.892    504.837    493.892
 99.070    775.000    797.573    -22.573    493.679    785.162    493.679    506.092    493.679
 99.170    730.000    816.966    -86.966    493.465    802.690    493.465    507.736    493.465
 99.270    853.958    850.994      2.964    493.251    834.365    493.251    509.868    493.251
 99.370    875.531    899.668    -24.137    493.038    880.085    493.038    512.602    493.038
 99.470   1020.453    962.718     57.735    492.823    939.456    492.823    516.063    492.823
 99.570   1040.000   1039.508      0.492    492.609   1011.708    492.609    520.384    492.609
 99.670   1143.000   1128.923     14.077    492.395   1095.598    492.395    525.696    492.395
 99.770   1284.996   1229.272     55.724    492.180   1189.311    492.180    532.121    492.180
 99.870   1335.332   1338.201     -2.869    491.965   1290.397    491.965    539.756    491.965
 99.970   1493.000   1452.652     40.348    491.750   1395.734    491.750    548.666    491.750
100.070   1598.892   1568.885     30.007    491.535   1501.569    491.535    558.865    491.535
100.170   1608.868   1682.621    -73.753    491.320   1603.672    491.320    570.302    491.320
100.270   1765.035   1789.321    -24.286    491.105   1697.627    491.105    582.853    491.105
100.370   1926.699   1884.589     42.109    490.890   1779.251    490.890    596.308    490.890
100.470   1974.000   1964.583      9.417    490.675   1845.000    490.675    610.363    490.675
100.570   2136.000   2026.255    109.745    490.460   1892.231    490.460    624.614    490.460
100.670   2152.000   2067.381     84.619    490.244   1919.218    490.244    638.562    490.244
100.770   2109.000   2086.462     22.538    490.029   1925.055    490.029    651.611    490.029
100.870   1997.313   2082.721    -85.407    489.814   1909.632    489.814    663.095    489.814
100.970   2091.000   2056.292     34.708    489.599   1873.777    489.599    672.318    489.599
101.070   1974.541   2008.528    -33.987    489.384   1819.489    489.384    678.634    489.384
101.170   1921.040   1942.183    -21.142    489.169   1750.023    489.169    681.542    489.169
101.270   1940.000   1861.298     78.702    488.954   1669.676    488.954    680.787    488.954
101.370   1840.877   1770.773     70.105    488.739   1583.299    488.739    676.415    488.739
101.470   1632.006   1675.773    -43.768    488.525   1495.725    488.525    668.764    488.525
101.570   1598.522   1581.180     17.342    488.311   1411.278    488.311    658.388    488.311
101.670   1453.000   1491.163    -38.163    488.096   1333.461    488.096    645.959    488.096
101.770   1385.186   1408.929    -23.743    487.883   1264.788    487.883    632.167    487.883
101.870   1403.636   1336.603     67.033    487.669   1206.737    487.669    617.663    487.669
101.970   1307.000   1275.214     31.786    487.455   1159.770    487.455    603.013    487.455
102.070   1176.000   1224.754    -48.754    487.242   1123.407    487.242    588.690    487.242
102.170   1170.000   1184.291    -14.291    487.029   1096.345    487.029    575.066    487.029
102.270   1106.000   1152.131    -46.131    486.817   1076.613    486.817    562.418    486.817
102.370   1061.961   1126.020    -64.060    486.605   1061.774    486.605    550.929    486.605
102.470   1081.179   1103.400    -22.221    486.393   1049.167    486.393    540.702    486.393
102.570   1078.000   1081.710     -3.710    486.181   1036.202    486.181    531.765    486.181
102.670   1039.000   1058.720    -19.720    485.970   1020.678    485.970    524.088    485.970
102.770   1057.000   1032.817     24.183    485.760   1001.058    485.760    517.596    485.760
102.870    994.000   1003.168     -9.168    485.549    976.613    485.549    512.183    485.549
102.970   1012.000    969.705     42.295    485.340    947.399    485.340    507.724    485.340
103.070    906.000    932.972    -26.972    485.131    914.095    485.131    504.085    485.131
103.170    921.919    893.908     28.011    484.922    877.769    484.922    501.136    484.922
103.270    909.141    853.641     55.500    484.714    839.671    484.714    498.754    484.714
103.370    774.513    813.334    -38.820    484.506    801.075    484.506    496.830    484.506
103.470    746.278    774.071    -27.793    484.299    763.165    484.299    495.265    484.299
103.570    734.027    736.808     -2.781    484.092    726.969    484.092    493.986    484.092
103.670    737.000    702.293     34.707    483.887    693.300    483.887    492.927    483.887
103.770    626.464    671.069    -44.604    483.681    662.755    483.681    492.036    483.681
103.870    677.000    643.454     33.546    483.477    635.693    483.477    491.272    483.477
103.970    608.000    619.556    -11.556    483.273    612.252    483.273    490.606    483.273
104.070    554.747    599.305    -44.558    483.070    592.386    483.070    490.014    483.070
104.170    599.000    582.491     16.509    482.867    575.899    482.867    489.478    482.867
104.270    572.000    568.795      3.205    482.666    562.496    482.666    488.980    482.666
104.370    542.000    557.864    -15.864    482.465    551.817    482.465    488.523    482.465
104.470    530.511    549.307    -18.796    482.265    543.480    482.265    488.101    482.265
104.570    511.174    542.743    -31.569    482.066    537.111    482.066    487.703    482.066
104.670    511.000    537.825    -26.825    481.867    532.368    481.867    487.328    481.867
104.770    542.000    534.250      7.750    481.670    528.951    481.670    486.971    481.670
104.870    512.121    531.771    -19.650    481.473    526.613    481.473    486.631    481.473
104.970    576.000    530.195     45.805    481.278    525.165    481.278    486.307    481.278
105.070    502.432    529.385    -26.953    481.083    524.468    481.083    485.997    481.083
105.170    546.000    529.255     16.745    480.889    524.442    480.889    485.699    480.889
105.270    534.000    529.768      4.232    480.697    525.045    480.697    485.414    480.697
105.370    505.520    530.924    -25.405    480.505    526.283    480.505    485.140    480.505
105.470    529.621    532.764     -3.143    480.314    528.194    480.314    484.876    480.314
105.570    572.966    535.356     37.610    480.125    530.849    480.125    484.622    480.125
105.670    552.000    538.792     13.208    479.937    534.340    479.937    484.377    479.937
105.770    511.882    543.175    -31.293    479.749    538.769    479.749    484.141    479.749
105.870    573.000    548.605     24.395    479.563    544.237    479.563    483.914    479.563
105.970    540.000    555.166    -15.166    479.378    550.830    479.378    483.694    479.378
106.070    578.865    562.910     15.956    479.195    558.599    479.195    483.483    479.195
106.170    629.000    571.844     57.156    479.012    567.551    479.012    483.279    479.012
106.270    554.000    581.916    -27.916    478.831    577.636    478.831    483.082    478.831
106.370    606.308    593.011     13.297    478.651    588.737    478.651    482.892    478.651
106.470    609.847    604.942      4.905    478.473    600.668    478.473    482.710    478.473
106.570    660.928    617.452     43.477    478.295    613.173    478.295    482.534    478.295
106.670    665.758    630.217     35.540    478.120    625.929    478.120    482.365    478.120
106.770    614.432    642.862    -28.429    477.945    638.559    477.945    482.203    477.945
106.870    651.000    654.967     -3.967    477.772    650.645    477.772    482.047    477.772
106.970    607.000    666.098    -59.098    477.601    661.753    477.601    481.898    477.601
107.070    648.000    675.837    -27.837    477.431    671.466    477.431    481.756    477.431
107.170    665.000    683.830    -18.830    477.262    679.427    477.262    481.620    477.262
107.270    681.000    689.833     -8.833    477.095    685.394    477.095    481.491    477.095
107.370    671.000    693.764    -22.764    476.930    689.286    476.930    481.368    476.930
107.470    696.000    695.723      0.277    476.766    691.201    476.766    481.253    476.766
107.570    700.000    695.982      4.018    476.604    691.411    476.604    481.144    476.604
107.670    665.000    694.941    -29.941    476.444    690.314    476.444    481.043    476.444
107.770    731.546    693.063     38.483    476.285    688.378    476.285    480.948    476.285
107.870    677.000    690.819    -13.819    476.128    686.067    476.128    480.861    476.128
107.970    655.117    688.625    -33.508    475.973    683.802    475.973    480.782    475.973
108.070    660.000    686.811    -26.811    475.819    681.910    475.819    480.710    475.819
108.170    708.754    685.593     23.161    475.667    680.609    475.667    480.647    475.667
108.270    711.447    685.061     26.386    475.518    679.986    475.518    480.591    475.518
108.370    670.000    685.172    -15.172    475.370    680.000    475.370    480.545    475.370
108.470    633.000    685.758    -52.758    475.224    680.481    475.224    480.507    475.224
108.570    694.000    686.538      7.462    475.079    681.148    475.079    480.478    475.079
108.670    687.182    687.141      0.040    474.937    681.632    474.937    480.459    474.937
108.770    715.017    687.149     27.868    474.797    681.511    474.797    480.450    474.797
108.870    732.915    686.141     46.774    474.659    680.366    474.659    480.452    474.659
108.970    638.000    683.756    -45.756    474.523    677.834    474.523    480.465    474.523
109.070    732.000    679.743     52.257    474.389    673.665    474.389    480.489    474.389
109.170    661.075    673.999    -12.924    474.257    667.753    474.257    480.525    474.257
109.270    704.000    666.563     37.437    474.128    660.139    474.128    480.575    474.128
109.370    667.498    657.624      9.873    474.000    651.010    474.000    480.637    474.000
109.470    659.000    647.516     11.484    473.875    640.700    473.875    480.715    473.875
109.570    638.000    636.557      1.443    473.752    629.524    473.752    480.807    473.752
109.670    583.000    625.106    -42.106    473.631    617.842    473.631    480.916    473.631
109.770    567.665    613.518    -45.852    473.513    606.008    473.513    481.042    473.513
109.870    614.000    602.120     11.880    473.397    594.348    473.397    481.186    473.397
109.970    615.000    591.198     23.802    473.283    583.146    473.283    481.351    473.283
110.070    616.737    580.990     35.747    473.172    572.639    473.172    481.537    473.172
110.170    547.374    571.680    -24.306    473.064    563.007    473.064    481.748    473.064
110.270    585.000    563.396     21.604    472.957    554.379    472.957    481.984    472.957
110.370    557.000    556.213      0.787    472.854    546.825    472.854    482.249    472.854
110.470    538.364    550.159    -11.795    472.753    540.371    472.753    482.547    472.753
110.570    549.000    545.221      3.779    472.654    534.997    472.654    482.882    472.654
110.670    501.000    541.351    -40.351    472.558    530.651    472.558    483.260    472.558
110.770    559.000    538.479     20.521    472.465    527.257    472.465    483.688    472.465
110.870    573.000    536.522     36.478    472.374    524.719    472.374    484.176    472.374
110.970    558.143    535.388     22.755    472.287    522.937    472.287    484.735    472.287
111.070    574.689    534.989     39.700    472.202    521.806    472.202    485.382    472.202
111.170    559.148    535.243     23.906    472.119    521.223    472.119    486.135    472.119
111.270    550.000    536.080     13.920    472.040    521.096    472.040    487.019    472.040
111.370    500.593    537.446    -36.853    471.963    521.337    471.963    488.066    471.963
111.470    555.000    539.304     15.696    471.890    521.873    471.890    489.314    471.890
111.570    517.211    541.639    -24.428    471.819    522.640    471.819    490.811    471.819
111.670    531.825    544.454    -12.629    471.752    523.584    471.752    492.613    471.752
111.770    517.150    547.777    -30.627    471.687    524.664    471.687    494.791    471.687
111.870    522.209    551.658    -29.450    471.626    525.849    471.626    497.426    471.626
111.970    540.000    556.172    -16.172    471.567    527.119    471.567    500.611    471.567
112.070    567.000    561.416      5.584    471.512    528.464    471.512    504.453    471.512
112.170    543.000    567.510    -24.510    471.460    529.887    471.460    509.073    471.460
112.270    568.000    574.598     -6.598    471.411    531.397    471.411    514.601    471.411
112.370    597.000    582.835     14.165    471.365    533.014    471.365    521.176    471.365
112.470    595.000    592.394      2.606    471.323    534.764    471.323    528.942    471.323
112.570    633.000    603.452     29.548    471.284    536.682    471.284    538.042    471.284
112.670    641.563    616.189     25.373    471.248    538.811    471.248    548.614    471.248
112.770    578.000    630.783    -52.783    471.216    541.205    471.216    560.780    471.216
112.870    636.000    647.402    -11.402    471.187    543.932    471.187    574.643    471.187
112.970    638.000    666.204    -28.204    471.162    547.078    471.162    590.272    471.162
113.070    713.000    687.333     25.667    471.140    550.757    471.140    607.699    471.140
113.170    666.992    710.919    -43.926    471.121    555.119    471.121    626.903    471.121
113.270    743.000    737.082      5.918    471.107    560.361    471.107    647.807    471.107
113.370    761.000    765.940     -4.940    471.096    566.743    471.096    670.270    471.096
113.470    841.188    797.621     43.567    471.088    574.608    471.088    694.076    471.088
113.570    814.521    832.281    -17.760    471.085    584.402    471.085    718.934    471.085
113.670    927.615    870.123     57.492    471.085    596.701    471.085    744.474    471.085
113.770    950.000    911.428     38.572    471.089    612.237    471.089    770.241    471.089
113.870    975.000    956.581     18.419    471.097    631.930    471.097    795.701    471.097
113.970    960.000   1006.104    -46.104    471.109    656.916    471.109    820.241    471.109
114.070   1055.905   1060.696     -4.790    471.124    688.571    471.124    843.182    471.124
114.170   1152.000   1121.270     30.730    471.144    728.538    471.144    863.796    471.144
114.270   1171.499   1188.998    -17.500    471.167    778.729    471.167    881.340    471.167
114.370   1226.000   1265.357    -39.357    471.195    841.330    471.195    895.106    471.195
114.470   1315.000   1352.166    -37.166    471.227    918.771    471.227    904.481    471.227
114.570   1455.000   1451.611      3.389    471.263   1013.686    471.263    909.019    471.263
114.670   1615.000   1566.225     48.775    471.303   1128.833    471.303    908.495    471.303
114.770   1700.000   1698.821      1.179    471.347   1266.995    471.347    902.936    471.347
114.870   1893.000   1852.344     40.656    471.396   1430.841    471.396    892.622    471.396
114.970   2113.000   2029.678     83.322    471.448   1622.762    471.448    878.041    471.448
115.070   2286.674   2233.387     53.286    471.506   1844.688    471.506    859.833    471.506
115.170   2529.975   2465.450     64.524    471.567   2097.877    471.567    838.719    471.567
115.270   2877.000   2726.990    150.010    471.633   2382.708    471.633    815.442    471.633
115.370   2951.000   3018.026    -67.026    471.704   2698.487    471.704    790.720    471.704
115.470   3410.413   3337.276     73.137    471.779   3043.264    471.779    765.220    471.779
115.570   3777.246   3681.994     95.252    471.858   3413.701    471.858    739.539    471.858
115.670   3946.000   4047.886   -101.886    471.943   3804.990    471.943    714.192    471.943
115.770   4529.293   4429.081    100.212    472.032   4210.825    472.032    689.616    472.032
115.870   4659.000   4818.182   -159.182    472.125   4623.460    472.125    666.163    472.125
115.970   5201.430   5206.391     -4.961    472.224   5033.823    472.224    644.109    472.224
116.070   5594.613   5583.712     10.901    472.327   5431.724    472.327    623.651    472.327
116.170   5872.462   5939.241    -66.779    472.435   5806.130    472.435    604.917    472.435
116.270   6176.000   6261.543    -85.543    472.548   6145.543    472.548    587.971    472.548
116.370   6555.000   6539.262     15.738    472.665   6438.601    472.665    572.821    472.665
116.470   6919.225   6761.621    157.603    472.788   6674.564    472.788    559.425    472.788
116.570   7028.000   6919.291    108.709    472.916   6844.179    472.916    547.708    472.916
116.670   7067.000   7005.190     61.810    473.049   6940.466    473.049    537.562    473.049
116.770   6886.957   7015.205   -128.248    473.187   6959.434    473.187    528.859    473.187
116.870   7000.000   6948.648     51.352    473.330   6900.530    473.330    521.461    473.330
116.970   6882.572   6808.323     74.249    473.478   6766.696    473.478    515.224    473.478
117.070   6600.402   6600.179      0.223    473.632   6564.020    473.632    510.005    473.632
117.170   6381.445   6332.653     48.792    473.791   6301.074    473.791    505.667    473.791
117.270   5867.000   6015.874   -148.874    473.955   5988.112    473.955    502.080    473.955
117.370   5526.000   5660.875   -134.875    474.125   5636.283    474.125    499.129    474.125
117.470   5264.000   5278.910    -14.910    474.300   5256.947    474.300    496.709    474.300
117.570   4931.000   4880.918     50.082    474.481   4861.133    474.481    494.729    474.481
117.670   4568.872   4477.101     91.771    474.667   4459.123    474.667    493.111    474.667
117.770   4205.000   4076.618    128.382    474.859   4060.145    474.859    491.788    474.859
117.870   3605.962   3687.367    -81.405    475.056   3672.154    475.056    490.705    475.056
117.970   3521.000   3315.852    205.148    475.260   3301.702    475.260    489.816    475.260
118.070   2899.295   2967.127    -67.831    475.469   2953.881    475.469    489.086    475.469
118.170   2677.000   2644.809     32.191    475.683   2632.341    475.683    488.484    475.683
118.270   2384.000   2351.167     32.833    475.904   2339.375    475.904    487.987    475.904
118.370   2136.101   2087.246     48.855    476.130   2076.051    476.130    487.577    476.130
118.470   1859.000   1853.042      5.958    476.363   1842.377    476.363    487.238    476.363
118.570   1608.000   1647.677    -39.677    476.601   1637.492    476.601    486.961    476.601
118.670   1430.000   1469.603    -39.603    476.846   1459.853    476.846    486.736    476.846
118.770   1323.012   1316.780      6.231    477.096   1307.432    477.096    486.556    477.096
118.870   1201.422   1186.860     14.562    477.353   1177.882    477.353    486.416    477.353
118.970   1023.667   1077.338    -53.671    477.616   1068.705    477.616    486.312    477.616
119.070    926.000    985.687    -59.687    477.885    977.378    477.885    486.240    477.885
119.170    854.000    909.466    -55.466    478.160    901.460    478.160    486.199    478.160
119.270    873.152    846.391     26.761    478.442    838.668    478.442    486.187    478.442
119.370    761.000    794.387    -33.387    478.730    786.931    478.730    486.201    478.730
119.470    734.000    751.619    -17.619    479.025    744.412    479.025    486.240    479.025
119.570    736.000    716.494     19.506    479.326    709.520    479.326    486.304    479.326
119.670    642.000    687.658    -45.658    479.634    680.902    479.634    486.392    479.634
119.770    623.425    663.978    -40.552    479.948    657.423    479.948    486.504    479.948
119.870    654.000    644.520      9.480    480.269    638.151    480.269    486.639    480.269
119.970    627.000    628.524     -1.524    480.597    622.324    480.597    486.797    480.597
120.070    605.000    615.377    -10.377    480.932    609.330    480.932    486.979    480.932
120.170    574.000    604.590    -30.590    481.273    598.679    481.273    487.185    481.273
120.270    559.000    595.776    -36.776    481.622    589.983    481.622    487.416    481.622
120.370    600.000    588.631     11.369    481.977    582.938    481.977    487.672    481.977
120.470    574.000    582.916     -8.916    482.339    577.303    482.339    487.955    482.339
120.570    561.000    578.446    -17.446    482.708    572.892    482.708    488.265    482.708
120.670    551.000    575.076    -24.076    483.085    569.561    483.085    488.604    483.085
120.770    563.000    572.695     -9.695    483.469    567.194    483.469    488.973    483.469
120.870    547.504    571.215    -23.711    483.859    565.706    483.859    489.374    483.859
120.970    531.588    570.568    -38.979    484.257    565.024    484.257    489.807    484.257
121.070    596.000    570.697     25.303    484.663    565.094    484.663    490.273    484.663
121.170    587.000    571.556     15.444    485.076    565.865    485.076    490.775    485.076
121.270    609.000    573.101     35.899    485.496    567.296    485.496    491.311    485.496
121.370    587.000    575.291     11.709    485.924    569.343    485.924    491.882    485.924
121.470    567.000    578.081    -11.081    486.359    571.961    486.359    492.492    486.359
121.570    607.000    581.422     25.578    486.802    575.100    486.802    493.138    486.802
121.670    609.000    585.257     23.743    487.253    578.707    487.253    493.820    487.253
121.770    612.000    589.521     22.479    487.711    582.716    487.711    494.535    487.711
121.870    643.000    594.139     48.861    488.177    587.055    488.177    495.283    488.177
121.970    640.798    599.028     41.770    488.651    591.644    488.651    496.060    488.651
122.070    608.000    604.094      3.906    489.133    596.391    489.133    496.863    489.133
122.170    600.000    609.234     -9.234    489.623    601.199    489.623    497.688    489.623
122.270    659.000    614.338     44.662    490.121    605.961    490.121    498.530    490.121
122.370    597.665    619.289    -21.624    490.627    610.568    490.627    499.383    490.627
122.470    604.000    623.969    -19.969    491.141    614.906    491.141    500.241    491.141
122.570    642.000    628.259     13.741    491.664    618.865    491.664    501.098    491.664
122.670    627.000    632.047     -5.047    492.194    622.339    492.194    501.944    492.194
122.770    650.000    635.232     14.768    492.733    625.237    492.733    502.773    492.733
122.870    651.000    637.731     13.269    493.280    627.482    493.280    503.575    493.280
122.970    626.000    639.483    -13.483    493.836    629.024    493.836    504.343    493.836
123.070    623.341    640.456    -17.115    494.400    629.837    494.400    505.068    494.400
123.170    645.000    640.644      4.356    494.973    629.922    494.973    505.743    494.973
123.270    605.663    640.069    -34.406    495.555    629.308    495.555    506.364    495.555
123.370    655.000    638.777     16.223    496.145    628.042    496.145    506.927    496.145
123.470    616.000    636.833    -20.833    496.744    626.191    496.744    507.431    496.744
123.570    657.000    634.315     22.685    497.352    623.832    497.352    507.878    497.352
123.670    625.000    631.309     -6.309    497.968    621.046    497.968    508.272    497.968
123.770    620.000    627.908     -7.908    498.594    617.921    498.594    508.618    498.594
123.870    688.000    624.201     63.799    499.228    614.539    499.228    508.924    499.228
123.970    613.000    620.276     -7.276    499.872    610.981    499.872    509.199    499.872
124.070    642.000    616.216     25.784    500.524    607.320    500.524    509.449    500.524
124.170    702.000    612.092     89.908    501.186    603.620    501.186    509.684    501.186
124.270    633.422    607.970     25.452    501.858    599.938    501.858    509.912    501.858
124.370    572.000    603.898    -31.898    502.538    596.316    502.538    510.140    502.538
124.470    566.000    599.916    -33.916    503.228    592.786    503.228    510.375    503.228
124.570    570.000    596.056    -26.056    503.927    589.375    503.927    510.623    503.927
124.670    622.000    592.336     29.664    504.636    586.095    504.636    510.889    504.636
124.770    592.000    588.761      3.239    505.354    582.951    505.354    511.175    505.354
124.870    623.218    585.337     37.881    506.082    579.940    506.082    511.487    506.082
124.970    599.593    582.064     17.529    506.820    577.059    506.820    511.832    506.820
