neutron_powder_diffraction_0084
R_wp: 4.516
Temperature (K): 813.003
Counts: 83455.00
Wavelength (Ã…): 2.52098
COMMENTS
Test file for demonstrating the .xyy file format in Reel1.0
END OF HEADER
   tth       Y_obs     Y_calc      Y_res    Background    Phase_1_Nuc    Phase_1_Mag    Phase_2_Nuc    Phase_2_Mag
  9.970    658.000    580.971     77.029    579.951    580.971    579.951    579.951    579.951
 10.070    561.746    581.442    -19.696    580.341    581.441    580.341    580.341    580.341
 10.170    594.618    581.914     12.704    580.720    581.914    580.720    580.720    580.720
 10.270    617.000    582.391     34.609    581.090    582.390    581.090    581.090    581.090
 10.370    547.000    582.874    -35.874    581.450    582.873    581.450    581.450    581.450
 10.470    596.000    583.368     12.632    581.800    583.368    581.800    581.800    581.800
 10.570    592.000    583.878      8.122    582.141    583.877    582.141    582.141    582.141
 10.670    650.000    584.410     65.590    582.473    584.409    582.473    582.473    582.473
 10.770    616.000    584.973     31.027    582.795    584.971    582.795    582.795    582.795
 10.870    634.000    585.576     48.424    583.108    585.575    583.108    583.108    583.108
 10.970    609.096    586.237     22.859    583.412    586.236    583.412    583.412    583.412
 11.070    626.000    586.979     39.021    583.706    586.978    583.706    583.706    583.706
 11.170    587.194    587.839     -0.645    583.992    587.837    583.992    583.992    583.992
 11.270    588.604    588.961     -0.357    584.269    588.958    584.269    584.269    584.269
 11.370    604.000    590.240     13.760    584.537    590.237    584.537    584.537    584.537
 11.470    674.000    591.859     82.141    584.796    591.856    584.796    584.796    584.796
 11.570    636.000    594.212     41.788    585.046    594.207    585.046    585.046    585.046
 11.670    625.000    598.196     26.804    585.288    598.189    585.288    585.288    585.288
 11.770    631.000    605.784     25.216    585.521    605.773    585.521    585.521    585.521
 11.870    678.356    620.268     58.088    585.745    620.249    585.745    585.745    585.745
 11.970    610.837    645.047    -34.210    585.961    645.014    585.961    585.961    585.961
 12.070    724.000    680.059     43.941    586.169    680.007    586.169    586.169    586.169
 12.170    674.000    716.454    -42.454    586.369    716.382    586.369    586.369    586.369
 12.270    659.000    734.113    -75.113    586.560    734.031    586.560    586.560    586.560
 12.370    662.007    718.717    -56.710    586.743    718.644    586.743    586.743    586.743
 12.470    662.752    683.355    -20.602    586.918    683.301    586.918    586.918    586.918
 12.570    649.000    648.320      0.680    587.085    648.286    587.085    587.085    587.085
 12.670    604.090    623.187    -19.097    587.244    623.167    587.244    587.244    587.244
 12.770    614.000    608.463      5.537    587.395    608.452    587.395    587.395    587.395
 12.870    631.000    600.876     30.124    587.539    600.869    587.539    587.539    587.539
 12.970    550.000    597.083    -47.083    587.674    597.078    587.674    587.674    587.674
 13.070    553.952    595.028    -41.075    587.802    595.024    587.802    587.802    587.802
 13.170    596.000    593.755      2.245    587.923    593.752    587.923    587.923    587.923
 13.270    577.000    592.883    -15.883    588.035    592.880    588.035    588.035    588.035
 13.370    594.000    592.251      1.749    588.141    592.249    588.141    588.141    588.141
 13.470    555.000    591.781    -36.781    588.239    591.779    588.239    588.239    588.239
 13.570    583.000    591.425     -8.425    588.330    591.423    588.330    588.330    588.330
 13.670    607.585    591.150     16.435    588.413    591.149    588.413    588.413    588.413
 13.770    619.863    590.936     28.927    588.489    590.935    588.489    588.489    588.489
 13.870    633.520    590.770     42.750    588.558    590.769    588.558    588.558    588.558
 13.970    587.000    590.651     -3.651    588.621    590.650    588.621    588.621    588.621
 14.070    556.000    590.556    -34.556    588.676    590.555    588.676    588.676    588.676
 14.170    586.000    590.465     -4.465    588.724    590.464    588.724    588.724    588.724
 14.270    604.000    590.386     13.614    588.765    590.386    588.765    588.765    588.765
 14.370    590.000    590.318     -0.318    588.800    590.317    588.800    588.800    588.800
 14.470    615.498    590.257     25.241    588.827    590.257    588.827    588.827    588.827
 14.570    595.000    590.203      4.797    588.849    590.203    588.849    588.849    588.849
 14.670    556.000    590.154    -34.154    588.863    590.153    588.863    588.863    588.863
 14.770    579.000    590.103    -11.103    588.871    590.102    588.871    588.871    588.871
 14.870    622.459    590.052     32.406    588.873    590.052    588.873    588.873    588.873
 14.970    545.786    590.002    -44.216    588.868    590.001    588.868    588.868    588.868
 15.070    557.000    589.950    -32.950    588.856    589.950    588.856    588.856    588.856
 15.170    590.000    589.896      0.104    588.839    589.896    588.839    588.839    588.839
 15.270    592.000    589.847      2.153    588.815    589.847    588.815    588.815    588.815
 15.370    534.000    589.857    -55.857    588.785    589.857    588.785    588.785    588.785
 15.470    552.080    589.811    -37.731    588.749    589.811    588.749    588.749    588.749
 15.570    600.569    589.748     10.821    588.707    589.747    588.707    588.707    588.707
 15.670    586.000    589.680     -3.680    588.659    589.680    588.659    588.659    588.659
 15.770    515.000    589.608    -74.608    588.605    589.608    588.605    588.605    588.605
 15.870    547.000    589.533    -42.533    588.546    589.533    588.546    588.546    588.546
 15.970    524.000    589.453    -65.453    588.480    589.453    588.480    588.480    588.480
 16.070    567.000    589.376    -22.376    588.409    589.376    588.409    588.409    588.409
 16.170    604.462    589.349     15.113    588.332    589.348    588.332    588.332    588.332
 16.270    554.000    589.266    -35.266    588.249    589.266    588.249    588.249    588.249
 16.370    617.000    589.170     27.830    588.161    589.170    588.161    588.161    588.161
 16.470    534.000    589.070    -55.070    588.068    589.069    588.068    588.068    588.068
 16.570    576.000    588.965    -12.965    587.969    588.965    587.969    587.969    587.969
 16.670    613.674    588.859     24.814    587.864    588.859    587.864    587.864    587.864
 16.770    558.000    588.762    -30.762    587.754    588.762    587.754    587.754    587.754
 16.870    599.915    588.650     11.265    587.640    588.650    587.640    587.640    587.640
 16.970    581.655    588.528     -6.873    587.519    588.528    587.519    587.519    587.519
 17.070    608.000    588.401     19.599    587.394    588.401    587.394    587.394    587.394
 17.170    566.000    588.269    -22.269    587.264    588.269    587.264    587.264    587.264
 17.270    569.000    588.134    -19.134    587.128    588.134    587.128    587.128    587.128
 17.370    567.000    587.994    -20.994    586.988    587.994    586.988    586.988    586.988
 17.470    627.000    587.850     39.150    586.842    587.850    586.842    586.842    586.842
 17.570    632.169    587.708     44.461    586.692    587.708    586.692    586.692    586.692
 17.670    516.000    587.562    -71.562    586.537    587.562    586.537    586.537    586.537
 17.770    561.797    587.406    -25.609    586.377    587.405    586.377    586.377    586.377
 17.870    641.963    587.246     54.717    586.213    587.246    586.213    586.213    586.213
 17.970    535.000    587.103    -52.103    586.044    587.103    586.044    586.044    586.044
 18.070    642.898    586.948     55.949    585.870    586.948    585.870    585.870    585.870
 18.170    566.000    586.818    -20.818    585.692    586.818    585.692    585.692    585.692
 18.270    579.000    586.668     -7.668    585.509    586.668    585.509    585.509    585.509
 18.370    614.167    586.489     27.677    585.322    586.489    585.322    585.322    585.322
 18.470    551.000    586.305    -35.305    585.131    586.305    585.131    585.131    585.131
 18.570    568.000    586.117    -18.117    584.935    586.117    584.935    584.935    584.935
 18.670    546.749    585.935    -39.186    584.735    585.935    584.735    584.735    584.735
 18.770    598.000    585.763     12.237    584.530    585.763    584.530    584.530    584.530
 18.870    570.000    585.630    -15.630    584.322    585.630    584.322    584.322    584.322
 18.970    594.000    585.445      8.555    584.109    585.445    584.109    584.109    584.109
 19.070    577.000    585.241     -8.241    583.893    585.241    583.893    583.893    583.893
 19.170    565.000    585.039    -20.039    583.672    585.039    583.672    583.672    583.672
 19.270    589.219    584.837      4.381    583.448    584.837    583.448    583.448    583.448
 19.370    561.000    584.624    -23.624    583.219    584.624    583.219    583.219    583.219
 19.470    562.000    584.436    -22.436    582.987    584.435    582.987    582.987    582.987
 19.570    551.000    584.231    -33.231    582.751    584.231    582.751    582.751    582.751
 19.670    613.507    584.010     29.497    582.511    584.010    582.511    582.511    582.511
 19.770    536.000    583.784    -47.784    582.267    583.784    582.267    582.267    582.267
 19.870    520.000    583.552    -63.552    582.020    583.552    582.020    582.020    582.020
 19.970    562.000    583.317    -21.317    581.769    583.317    581.769    581.769    581.769
 20.070    597.705    583.081     14.624    581.515    583.081    581.515    581.515    581.515
 20.170    587.000    582.845      4.155    581.257    582.845    581.257    581.257    581.257
 20.270    564.394    582.610    -18.217    580.995    582.610    580.995    580.995    580.995
 20.370    575.000    582.366     -7.366    580.731    582.366    580.731    580.731    580.731
 20.470    611.000    582.117     28.883    580.463    582.117    580.463    580.463    580.463
 20.570    552.000    581.867    -29.867    580.191    581.867    580.191    580.191    580.191
 20.670    532.509    581.616    -49.107    579.916    581.616    579.916    579.916    579.916
 20.770    560.000    581.366    -21.366    579.638    581.366    579.638    579.638    579.638
 20.870    549.000    581.110    -32.110    579.357    581.110    579.357    579.357    579.357
 20.970    590.014    580.851      9.162    579.073    580.851    579.073    579.073    579.073
 21.070    535.000    580.591    -45.591    578.786    580.591    578.786    578.786    578.786
 21.170    630.841    580.330     50.511    578.496    580.330    578.496    578.496    578.496
 21.270    561.000    580.067    -19.067    578.202    580.067    578.202    578.202    578.202
 21.370    612.255    579.801     32.453    577.906    579.801    577.906    577.906    577.906
 21.470    592.000    579.535     12.465    577.607    579.535    577.607    577.607    577.607
 21.570    566.740    579.268    -12.528    577.305    579.268    577.305    577.305    577.305
 21.670    540.000    579.000    -39.000    577.000    579.000    577.000    577.000    577.000
 21.770    552.000    578.732    -26.732    576.693    578.732    576.693    576.693    576.693
 21.870    535.000    578.464    -43.464    576.382    578.464    576.382    576.382    576.382
 21.970    538.000    578.196    -40.196    576.069    578.197    576.069    576.069    576.069
 22.070    567.000    577.930    -10.930    575.754    577.930    575.754    575.754    575.754
 22.170    564.195    577.664    -13.469    575.436    577.664    575.436    575.436    575.436
 22.270    614.000    577.400     36.600    575.115    577.400    575.115    575.115    575.115
 22.370    571.655    577.139     -5.485    574.792    577.140    574.792    574.792    574.792
 22.470    581.016    576.883      4.133    574.466    576.883    574.466    574.466    574.466
 22.570    610.929    576.630     34.299    574.138    576.631    574.138    574.138    574.138
 22.670    554.000    576.382    -22.382    573.808    576.382    573.808    573.808    573.808
 22.770    531.170    576.139    -44.969    573.475    576.139    573.475    573.475    573.475
 22.870    594.000    575.904     18.096    573.140    575.905    573.140    573.140    573.140
 22.970    587.000    575.680     11.320    572.803    575.680    572.803    572.803    572.803
 23.070    571.437    575.468     -4.031    572.464    575.469    572.464    572.464    572.464
 23.170    535.000    575.273    -40.273    572.122    575.273    572.122    572.122    572.122
 23.270    565.000    575.096    -10.096    571.778    575.097    571.778    571.778    571.778
 23.370    553.963    574.945    -20.981    571.432    574.946    571.432    571.432    571.432
 23.470    521.000    574.826    -53.826    571.085    574.827    571.085    571.085    571.085
 23.570    564.000    574.749    -10.749    570.735    574.750    570.735    570.735    570.735
 23.670    618.317    574.728     43.589    570.383    574.729    570.383    570.383    570.383
 23.770    584.000    574.782      9.218    570.029    574.783    570.029    570.029    570.029
 23.870    581.000    574.939      6.061    569.674    574.941    569.674    569.674    569.674
 23.970    623.000    575.249     47.751    569.316    575.251    569.316    569.316    569.316
 24.070    579.781    575.798      3.983    568.957    575.801    568.957    568.957    568.957
 24.170    600.000    576.800     23.200    568.596    576.804    568.596    568.596    568.596
 24.270    618.662    578.767     39.895    568.233    578.773    568.233    568.233    568.233
 24.370    592.220    582.794      9.426    567.869    582.803    567.869    567.869    567.869
 24.470    633.000    590.748     42.252    567.503    590.763    567.503    567.503    567.503
 24.570    659.528    604.710     54.818    567.135    604.735    567.135    567.135    567.135
 24.670    639.000    625.199     13.801    566.766    625.239    566.766    566.766    566.766
 24.770    609.421    648.285    -38.864    566.396    648.342    566.396    566.396    566.396
 24.870    627.746    663.598    -35.853    566.023    663.667    566.023    566.023    566.023
 24.970    676.000    660.781     15.219    565.650    660.847    565.650    565.650    565.650
 25.070    650.000    641.900      8.100    565.275    641.953    565.275    565.275    565.275
 25.170    617.000    618.329     -1.329    564.898    618.366    564.898    564.898    564.898
 25.270    641.916    598.806     43.111    564.520    598.828    564.520    564.520    564.520
 25.370    632.000    585.913     46.087    564.141    585.926    564.141    564.141    564.141
 25.470    597.000    578.555     18.445    563.761    578.562    563.761    563.761    563.761
 25.570    627.000    574.622     52.378    563.379    574.627    563.379    563.379    563.379
 25.670    588.000    572.440     15.560    562.996    572.444    562.996    562.996    562.996
 25.770    601.000    571.079     29.921    562.612    571.082    562.612    562.612    562.612
 25.870    552.712    570.123    -17.411    562.227    570.125    562.227    562.227    562.227
 25.970    556.000    569.402    -13.402    561.840    569.404    561.840    561.840    561.840
 26.070    524.965    568.844    -43.879    561.453    568.846    561.453    561.453    561.453
 26.170    646.000    568.413     77.587    561.065    568.414    561.065    561.065    561.065
 26.270    621.000    568.088     52.912    560.675    568.089    560.675    560.675    560.675
 26.370    607.000    567.859     39.141    560.285    567.859    560.285    560.285    560.285
 26.470    559.069    567.723     -8.654    559.894    567.723    559.894    559.894    559.894
 26.570    611.000    567.682     43.318    559.501    567.682    559.501    559.501    559.501
 26.670    645.000    567.743     77.257    559.108    567.743    559.108    559.108    559.108
 26.770    636.000    567.922     68.078    558.714    567.921    558.714    558.714    558.714
 26.870    593.000    568.238     24.762    558.320    568.237    558.320    558.320    558.320
 26.970    595.000    568.721     26.279    557.924    568.720    557.924    557.924    557.924
 27.070    533.567    569.414    -35.848    557.528    569.413    557.528    557.528    557.528
 27.170    645.000    570.378     74.622    557.131    570.376    557.131    557.131    557.131
 27.270    624.000    571.700     52.300    556.734    571.698    556.734    556.734    556.734
 27.370    661.000    573.519     87.481    556.335    573.516    556.335    556.335    556.335
 27.470    612.908    576.087     36.821    555.936    576.083    555.936    555.936    555.936
 27.570    609.000    579.962     29.038    555.537    579.957    555.537    555.537    555.537
 27.670    648.000    586.504     61.496    555.137    586.497    555.137    555.137    555.137
 27.770    640.000    598.835     41.165    554.737    598.824    554.737    554.737    554.737
 27.870    686.000    622.812     63.188    554.336    622.791    554.336    554.336    554.336
 27.970    709.000    666.356     42.644    553.934    666.321    553.934    553.934    553.934
 28.070    718.961    734.811    -15.851    553.532    734.758    553.532    553.532    553.532
 28.170    812.000    821.921     -9.921    553.130    821.850    553.130    553.130    553.130
 28.270    918.293    900.710     17.583    552.727    900.634    552.727    552.727    552.727
 28.370   1036.000    929.525    106.475    552.324    929.460    552.324    552.324    552.324
 28.470    882.506    892.446     -9.940    551.921    892.399    551.921    551.921    551.921
 28.570    867.116    826.360     40.756    551.517    826.327    551.517    551.517    551.517
 28.670    714.172    777.311    -63.139    551.113    777.285    551.113    551.113    551.113
 28.770    768.000    766.580      1.420    550.709    766.557    550.709    550.709    550.709
 28.870    749.879    789.605    -39.726    550.305    789.583    550.305    550.305    550.305
 28.970    856.368    821.261     35.107    549.901    821.246    549.901    549.901    549.901
 29.070    867.000    827.209     39.791    549.496    827.205    549.496    549.496    549.496
 29.170    822.000    791.360     30.640    549.091    791.365    549.091    549.091    549.091
 29.270    778.000    731.714     46.286    548.686    731.721    548.686    548.686    548.686
 29.370    717.000    673.635     43.365    548.282    673.641    548.282    548.282    548.282
 29.470    644.000    629.693     14.307    547.877    629.696    547.877    547.877    547.877
 29.570    660.000    601.390     58.610    547.472    601.390    547.472    547.472    547.472
 29.670    652.000    584.969     67.031    547.067    584.969    547.067    547.067    547.067
 29.770    574.516    575.782     -1.266    546.662    575.780    546.662    546.662    546.662
 29.870    648.000    570.422     77.578    546.257    570.420    546.257    546.257    546.257
 29.970    661.000    567.016     93.984    545.852    567.014    545.852    545.852    545.852
 30.070    590.000    564.715     25.285    545.448    564.713    545.448    545.448    545.448
 30.170    690.000    563.199    126.801    545.043    563.196    545.043    545.043    545.043
 30.270    513.490    562.428    -48.939    544.639    562.424    544.639    544.639    544.639
 30.370    559.075    562.619     -3.544    544.235    562.614    544.235    544.235    544.235
 30.470    619.000    564.317     54.683    543.831    564.310    543.831    543.831    543.831
 30.570    584.000    568.429     15.571    543.428    568.418    543.428    543.428    543.428
 30.670    604.000    575.994     28.006    543.024    575.976    543.024    543.024    543.024
 30.770    559.883    587.523    -27.641    542.621    587.497    542.621    542.621    542.621
 30.870    688.000    601.913     86.087    542.219    601.877    542.219    542.219    542.219
 30.970    622.783    615.110      7.673    541.816    615.067    541.816    541.816    541.816
 31.070    636.000    620.222     15.778    541.414    620.178    541.414    541.414    541.414
 31.170    678.000    613.270     64.730    541.013    613.232    541.013    541.013    541.013
 31.270    662.000    598.600     63.400    540.611    598.572    540.611    540.611    540.611
 31.370    626.000    583.079     42.921    540.210    583.060    540.210    540.210    540.210
 31.470    596.000    570.542     25.458    539.810    570.529    539.810    539.810    539.810
 31.570    562.000    561.919      0.081    539.410    561.911    539.410    539.410    539.410
 31.670    543.598    556.605    -13.007    539.011    556.599    539.011    539.011    539.011
 31.770    576.622    553.515     23.108    538.612    553.510    538.612    538.612    538.612
 31.870    552.949    551.713      1.236    538.214    551.710    538.214    538.214    538.214
 31.970    513.317    550.612    -37.295    537.816    550.609    537.816    537.816    537.816
 32.070    571.992    549.911     22.082    537.419    549.908    537.419    537.419    537.419
 32.170    558.771    549.476      9.295    537.022    549.474    537.022    537.022    537.022
 32.270    517.047    549.255    -32.208    536.627    549.253    536.627    536.627    536.627
 32.370    509.390    549.230    -39.840    536.231    549.228    536.231    536.231    536.231
 32.470    605.000    549.403     55.597    535.837    549.401    535.837    535.837    535.837
 32.570    565.000    549.791     15.209    535.443    549.789    535.443    535.443    535.443
 32.670    503.006    550.423    -47.417    535.050    550.421    535.050    535.050    535.050
 32.770    519.952    551.348    -31.396    534.657    551.346    534.657    534.657    534.657
 32.870    509.036    552.634    -43.598    534.266    552.632    534.266    534.266    534.266
 32.970    590.000    554.384     35.616    533.875    554.382    533.875    533.875    533.875
 33.070    571.000    556.758     14.242    533.485    556.755    533.485    533.485    533.485
 33.170    541.020    560.031    -19.010    533.095    560.028    533.095    533.095    533.095
 33.270    611.000    564.744     46.256    532.707    564.741    532.707    532.707    532.707
 33.370    586.000    572.029     13.971    532.319    572.025    532.319    532.319    532.319
 33.470    547.450    584.159    -36.709    531.932    584.153    531.932    531.932    531.932
 33.570    536.000    605.169    -69.169    531.546    605.159    531.546    531.546    531.546
 33.670    641.884    640.926      0.958    531.162    640.910    531.162    531.162    531.162
 33.770    709.000    697.678     11.322    530.777    697.655    530.777    530.777    530.777
 33.870    768.000    778.404    -10.404    530.394    778.369    530.394    530.394    530.394
 33.970    858.000    876.961    -18.961    530.012    876.917    530.012    530.012    530.012
 34.070    974.265    970.673      3.592    529.631    970.624    529.631    529.631    529.631
 34.170   1000.112   1019.720    -19.608    529.251   1019.678    529.251    529.251    529.251
 34.270    965.996    995.343    -29.347    528.872    995.318    528.872    528.872    528.872
 34.370    937.000    913.028     23.972    528.494    913.019    528.494    528.494    528.494
 34.470    741.000    812.424    -71.424    528.117    812.425    528.117    528.117    528.117
 34.570    719.673    722.992     -3.319    527.741    722.995    527.741    527.741    527.741
 34.670    658.000    656.374      1.626    527.366    656.377    527.366    527.366    527.366
 34.770    560.504    612.386    -51.883    526.992    612.388    526.992    526.992    526.992
 34.870    627.825    585.562     42.263    526.619    585.563    526.619    526.619    526.619
 34.970    579.000    569.674      9.326    526.247    569.673    526.247    526.247    526.247
 35.070    534.618    559.965    -25.348    525.877    559.965    525.877    525.877    525.877
 35.170    518.639    553.554    -34.915    525.508    553.553    525.508    525.508    525.508
 35.270    523.000    548.933    -25.933    525.140    548.933    525.140    525.140    525.140
 35.370    554.000    545.376      8.624    524.773    545.375    524.773    524.773    524.773
 35.470    591.891    542.519     49.372    524.407    542.519    524.407    524.407    524.407
 35.570    497.000    540.164    -43.164    524.042    540.163    524.042    524.042    524.042
 35.670    565.000    538.184     26.816    523.679    538.184    523.679    523.679    523.679
 35.770    489.000    536.495    -47.495    523.317    536.494    523.317    523.317    523.317
 35.870    547.000    535.033     11.967    522.956    535.033    522.956    522.956    522.956
 35.970    504.609    533.753    -29.144    522.597    533.753    522.597    522.597    522.597
 36.070    508.196    532.621    -24.425    522.239    532.621    522.239    522.239    522.239
 36.170    529.000    531.610     -2.610    521.882    531.610    521.882    521.882    521.882
 36.270    499.000    530.702    -31.702    521.526    530.701    521.526    521.526    521.526
 36.370    532.000    529.880      2.120    521.172    529.879    521.172    521.172    521.172
 36.470    484.000    529.133    -45.133    520.819    529.133    520.819    520.819    520.819
 36.570    506.296    528.454    -22.158    520.468    528.454    520.468    520.468    520.468
 36.670    475.000    527.838    -52.838    520.117    527.838    520.117    520.117    520.117
 36.770    474.000    527.282    -53.282    519.769    527.282    519.769    519.769    519.769
 36.870    518.000    526.791     -8.791    519.421    526.791    519.421    519.421    519.421
 36.970    506.000    526.378    -20.378    519.075    526.378    519.075    519.075    519.075
 37.070    478.901    526.083    -47.182    518.731    526.083    518.731    518.731    518.731
 37.170    502.000    525.995    -23.995    518.388    525.995    518.388    518.388    518.388
 37.270    485.000    526.281    -41.281    518.046    526.282    518.046    518.046    518.046
 37.370    511.000    527.216    -16.216    517.706    527.217    517.706    517.706    517.706
 37.470    556.721    529.074     27.647    517.367    529.076    517.367    517.367    517.367
 37.570    515.000    531.960    -16.960    517.030    531.962    517.030    517.030    517.030
 37.670    490.298    535.529    -45.231    516.694    535.533    516.694    516.694    516.694
 37.770    554.677    538.731     15.946    516.360    538.736    516.360    516.360    516.360
 37.870    506.100    539.969    -33.869    516.027    539.976    516.027    516.027    516.027
 37.970    505.708    538.386    -32.678    515.696    538.395    515.696    515.696    515.696
 38.070    478.000    534.888    -56.888    515.366    534.898    515.366    515.366    515.366
 38.170    538.000    530.913      7.087    515.038    530.924    515.038    515.038    515.038
 38.270    514.000    527.327    -13.327    514.712    527.337    514.712    514.712    514.712
 38.370    480.000    524.483    -44.483    514.387    524.491    514.387    514.387    514.387
 38.470    506.000    522.412    -16.412    514.064    522.418    514.064    514.064    514.064
 38.570    490.000    520.957    -30.957    513.742    520.962    513.742    513.742    513.742
 38.670    501.463    519.924    -18.461    513.422    519.927    513.422    513.422    513.422
 38.770    493.000    519.156    -26.156    513.103    519.158    513.103    513.103    513.103
 38.870    501.000    518.553    -17.553    512.786    518.555    512.786    512.786    512.786
 38.970    473.410    518.052    -44.642    512.471    518.053    512.471    512.471    512.471
 39.070    485.000    517.615    -32.615    512.157    517.616    512.157    512.157    512.157
 39.170    512.000    517.220     -5.220    511.845    517.221    511.845    511.845    511.845
 39.270    568.278    516.855     51.423    511.535    516.855    511.535    511.535    511.535
 39.370    494.000    516.511    -22.511    511.226    516.512    511.226    511.226    511.226
 39.470    517.000    516.186      0.814    510.919    516.187    510.919    510.919    510.919
 39.570    521.000    515.877      5.123    510.613    515.877    510.613    510.613    510.613
 39.670    506.677    515.582     -8.905    510.310    515.583    510.310    510.310    510.310
 39.770    550.283    515.301     34.982    510.008    515.301    510.008    510.008    510.008
 39.870    538.000    515.032     22.968    509.707    515.033    509.707    509.707    509.707
 39.970    485.000    514.776    -29.776    509.409    514.777    509.409    509.409    509.409
 40.070    488.792    514.533    -25.741    509.112    514.534    509.112    509.112    509.112
 40.170    491.000    514.304    -23.304    508.817    514.304    508.817    508.817    508.817
 40.270    490.000    514.088    -24.088    508.524    514.089    508.524    508.524    508.524
 40.370    511.694    513.887     -2.194    508.232    513.888    508.232    508.232    508.232
 40.470    541.000    513.702     27.298    507.942    513.703    507.942    507.942    507.942
 40.570    526.020    513.535     12.485    507.654    513.536    507.654    507.654    507.654
 40.670    545.390    513.388     32.002    507.368    513.389    507.368    507.368    507.368
 40.770    508.000    513.264     -5.264    507.083    513.265    507.083    507.083    507.083
 40.870    564.251    513.165     51.086    506.800    513.166    506.800    506.800    506.800
 40.970    512.738    513.097     -0.360    506.519    513.098    506.519    506.519    506.519
 41.070    558.173    513.065     45.108    506.240    513.066    506.240    506.240    506.240
 41.170    516.000    513.076      2.924    505.962    513.077    505.962    505.962    505.962
 41.270    544.447    513.139     31.308    505.687    513.141    505.687    505.687    505.687
 41.370    491.000    513.268    -22.268    505.413    513.269    505.413    505.413    505.413
 41.470    519.000    513.478      5.522    505.141    513.480    505.141    505.141    505.141
 41.570    552.319    513.795     38.525    504.871    513.797    504.871    504.871    504.871
 41.670    527.595    514.258     13.338    504.602    514.260    504.602    504.602    504.602
 41.770    458.000    514.939    -56.939    504.336    514.942    504.336    504.336    504.336
 41.870    524.236    515.976      8.260    504.071    515.979    504.071    504.071    504.071
 41.970    503.000    517.638    -14.638    503.808    517.642    503.808    503.808    503.808
 42.070    484.212    520.415    -36.203    503.547    520.421    503.547    503.547    503.547
 42.170    503.000    525.100    -22.100    503.288    525.108    503.288    503.288    503.288
 42.270    548.325    532.763     15.562    503.030    532.774    503.030    503.030    503.030
 42.370    490.000    544.510    -54.510    502.775    544.527    502.775    502.775    502.775
 42.470    601.889    560.960     40.929    502.521    560.985    502.521    502.521    502.521
 42.570    546.000    581.458    -35.458    502.269    581.495    502.269    502.269    502.269
 42.670    585.000    603.141    -18.141    502.019    603.190    502.019    502.019    502.019
 42.770    593.000    620.253    -27.253    501.771    620.313    501.771    501.771    501.771
 42.870    592.000    625.698    -33.698    501.525    625.763    501.525    501.525    501.525
 42.970    607.000    616.496     -9.496    501.281    616.558    501.281    501.281    501.281
 43.070    612.491    597.126     15.365    501.039    597.178    501.039    501.039    501.039
 43.170    622.347    574.875     47.472    500.798    574.916    500.798    500.798    500.798
 43.270    539.000    554.841    -15.841    500.559    554.870    500.559    500.559    500.559
 43.370    519.000    539.227    -20.227    500.323    539.247    500.323    500.323    500.323
 43.470    495.000    528.267    -33.267    500.088    528.280    500.088    500.088    500.088
 43.570    522.000    521.144      0.856    499.855    521.153    499.855    499.855    499.855
 43.670    545.000    516.713     28.287    499.624    516.720    499.624    499.624    499.624
 43.770    518.755    513.958      4.798    499.395    513.962    499.395    499.395    499.395
 43.870    471.000    512.164    -41.164    499.167    512.168    499.167    499.167    499.167
 43.970    524.000    510.909     13.091    498.942    510.912    498.942    498.942    498.942
 44.070    504.000    509.965     -5.965    498.719    509.967    498.719    498.719    498.719
 44.170    526.317    509.218     17.099    498.497    509.220    498.497    498.497    498.497
 44.270    505.788    508.609     -2.821    498.277    508.611    498.277    498.277    498.277
 44.370    493.068    508.103    -15.035    498.060    508.104    498.060    498.060    498.060
 44.470    481.000    507.678    -26.678    497.844    507.679    497.844    497.844    497.844
 44.570    548.070    507.320     40.750    497.630    507.321    497.630    497.630    497.630
 44.670    518.581    507.017     11.564    497.418    507.018    497.418    497.418    497.418
 44.770    470.000    506.761    -36.761    497.208    506.762    497.208    497.208    497.208
 44.870    481.000    506.546    -25.546    497.000    506.547    497.000    497.000    497.000
 44.970    524.073    506.369     17.704    496.794    506.369    496.794    496.794    496.794
 45.070    489.000    506.224    -17.224    496.590    506.225    496.590    496.590    496.590
 45.170    513.480    506.111      7.370    496.387    506.111    496.387    496.387    496.387
 45.270    522.000    506.026     15.974    496.187    506.027    496.187    496.187    496.187
 45.370    534.000    505.971     28.029    495.988    505.971    495.988    495.988    495.988
 45.470    518.048    505.943     12.104    495.792    505.943    495.792    495.792    495.792
 45.570    504.000    505.944     -1.944    495.597    505.944    495.597    495.597    495.597
 45.670    473.426    505.973    -32.548    495.404    505.973    495.404    495.404    495.404
 45.770    484.554    506.033    -21.479    495.214    506.033    495.214    495.214    495.214
 45.870    504.000    506.125     -2.125    495.025    506.124    495.025    495.025    495.025
 45.970    493.000    506.250    -13.250    494.838    506.250    494.838    494.838    494.838
 46.070    480.000    506.413    -26.413    494.653    506.413    494.653    494.653    494.653
 46.170    489.253    506.617    -17.363    494.470    506.616    494.470    494.470    494.470
 46.270    550.997    506.867     44.130    494.288    506.866    494.288    494.288    494.288
 46.370    540.436    507.169     33.267    494.109    507.168    494.109    494.109    494.109
 46.470    475.000    507.531    -32.531    493.932    507.530    493.932    493.932    493.932
 46.570    481.899    507.964    -26.064    493.756    507.963    493.756    493.756    493.756
 46.670    530.000    508.481     21.519    493.583    508.480    493.583    493.583    493.583
 46.770    545.000    509.105     35.895    493.411    509.103    493.411    493.411    493.411
 46.870    479.449    509.870    -30.422    493.242    509.868    493.242    493.242    493.242
 46.970    503.094    510.841     -7.747    493.074    510.838    493.074    493.074    493.074
 47.070    457.844    512.136    -54.292    492.908    512.133    492.908    492.908    492.908
 47.170    550.000    513.971     36.029    492.744    513.966    492.744    492.744    492.744
 47.270    556.790    516.703     40.088    492.582    516.696    492.582    492.582    492.582
 47.370    543.000    520.851     22.149    492.422    520.842    492.422    492.422    492.422
 47.470    524.000    527.043     -3.043    492.264    527.029    492.264    492.264    492.264
 47.570    551.000    535.840     15.160    492.107    535.821    492.107    492.107    492.107
 47.670    576.830    547.440     29.390    491.953    547.413    491.953    491.953    491.953
 47.770    578.000    561.294     16.706    491.800    561.257    491.800    491.800    491.800
 47.870    576.000    575.676      0.324    491.650    575.631    491.650    491.650    491.650
 47.970    624.000    587.409     36.591    491.501    587.357    491.501    491.501    491.501
 48.070    640.000    592.640     47.360    491.354    592.587    491.354    491.354    491.354
 48.170    574.774    589.566    -14.792    491.209    589.517    491.209    491.209    491.209
 48.270    609.000    580.285     28.715    491.066    580.244    491.066    491.066    491.066
 48.370    565.000    568.757     -3.757    490.925    568.726    490.925    490.925    490.925
 48.470    628.000    558.142     69.858    490.786    558.119    490.786    490.786    490.786
 48.570    503.000    550.138    -47.138    490.648    550.122    490.648    490.648    490.648
 48.670    524.000    545.316    -21.316    490.513    545.304    490.513    490.513    490.513
 48.770    562.062    543.552     18.509    490.379    543.544    490.379    490.379    490.379
 48.870    503.118    544.422    -41.304    490.247    544.416    490.247    490.247    490.247
 48.970    531.000    547.508    -16.508    490.117    547.503    490.117    490.117    490.117
 49.070    523.000    552.618    -29.618    489.989    552.613    489.989    489.989    489.989
 49.170    525.000    559.957    -34.957    489.863    559.953    489.863    489.863    489.863
 49.270    557.969    570.408    -12.439    489.739    570.403    489.739    489.739    489.739
 49.370    567.000    586.113    -19.113    489.616    586.106    489.616    489.616    489.616
 49.470    581.000    611.546    -30.546    489.495    611.536    489.495    489.495    489.495
 49.570    633.723    654.969    -21.245    489.377    654.952    489.377    489.377    489.377
 49.670    668.822    729.547    -60.725    489.260    729.519    489.260    489.260    489.260
 49.770    799.271    852.572    -53.300    489.144    852.525    489.144    489.144    489.144
 49.870    998.354   1040.944    -42.590    489.031   1040.872    489.031    489.031    489.031
 49.970   1268.839   1302.333    -33.493    488.920   1302.234    488.920    488.920    488.920
 50.070   1600.000   1623.856    -23.856    488.810   1623.738    488.810    488.810    488.810
 50.170   2061.547   1961.622     99.924    488.702   1961.503    488.702    488.702    488.702
 50.270   2200.000   2236.053    -36.053    488.596   2235.967    488.596    488.596    488.596
 50.370   2377.546   2350.728     26.818    488.492   2350.714    488.492    488.492    488.492
 50.470   2267.000   2255.435     11.565    488.389   2255.511    488.389    488.389    488.389
 50.570   1934.000   1994.254    -60.254    488.288   1994.397    488.288    488.288    488.288
 50.670   1662.316   1662.663     -0.346    488.189   1662.831    488.189    488.189    488.189
 50.770   1260.000   1343.220    -83.220    488.092   1343.380    488.092    488.092    488.092
 50.870   1023.000   1083.384    -60.384    487.997   1083.518    487.997    487.997    487.997
 50.970    820.000    898.513    -78.513    487.903    898.617    487.903    487.903    487.903
 51.070    794.000    781.647     12.353    487.812    781.727    487.812    487.812    487.812
 51.170    731.339    714.602     16.737    487.722    714.665    487.722    487.722    487.722
 51.270    680.000    677.156      2.844    487.633    677.209    487.633    487.633    487.633
 51.370    662.000    652.924      9.076    487.547    652.970    487.547    487.547    487.547
 51.470    656.000    632.393     23.607    487.462    632.433    487.462    487.462    487.462
 51.570    564.434    612.723    -48.289    487.379    612.755    487.379    487.379    487.379
 51.670    584.000    594.579    -10.579    487.298    594.604    487.298    487.298    487.298
 51.770    584.000    579.206      4.794    487.218    579.225    487.218    487.218    487.218
 51.870    549.000    567.300    -18.300    487.140    567.313    487.140    487.140    487.140
 51.970    591.037    558.882     32.156    487.064    558.891    487.064    487.064    487.064
 52.070    573.000    553.505     19.495    486.989    553.512    486.989    486.989    486.989
 52.170    579.204    550.553     28.651    486.917    550.559    486.917    486.917    486.917
 52.270    506.864    549.491    -42.627    486.846    549.496    486.846    486.846    486.846
 52.370    559.000    550.012      8.988    486.776    550.016    486.776    486.776    486.776
 52.470    582.000    552.113     29.887    486.709    552.117    486.709    486.709    486.709
 52.570    573.000    556.187     16.813    486.643    556.191    486.643    486.643    486.643
 52.670    589.000    563.172     25.828    486.578    563.175    486.578    486.578    486.578
 52.770    614.168    574.791     39.378    486.516    574.793    486.516    486.516    486.516
 52.870    584.959    593.774     -8.815    486.455    593.777    486.455    486.455    486.455
 52.970    631.000    623.886      7.114    486.395    623.888    486.395    486.395    486.395
 53.070    639.000    669.467    -30.467    486.337    669.469    486.337    486.337    486.337
 53.170    719.000    734.303    -15.303    486.281    734.306    486.281    486.281    486.281
 53.270    830.000    819.804     10.196    486.227    819.809    486.227    486.227    486.227
 53.370    929.000    922.765      6.235    486.174    922.773    486.174    486.174    486.174
 53.470   1042.000   1032.971      9.029    486.123   1032.986    486.123    486.123    486.123
 53.570   1090.000   1131.445    -41.445    486.073   1131.470    486.073    486.073    486.073
 53.670   1151.000   1192.712    -41.712    486.025   1192.749    486.025    486.025    486.025
 53.770   1199.000   1196.068      2.932    485.978   1196.116    485.978    485.978    485.978
 53.870   1162.000   1140.337     21.663    485.933   1140.389    485.933    485.933    485.933
 53.970   1042.220   1044.947     -2.727    485.890   1044.997    485.890    485.890    485.890
 54.070    912.624    935.653    -23.029    485.848    935.697    485.848    485.848    485.848
 54.170    792.000    832.284    -40.284    485.808    832.320    485.808    485.808    485.808
 54.270    758.000    745.817     12.183    485.769    745.844    485.769    485.769    485.769
 54.370    672.000    680.003     -8.003    485.732    680.023    485.732    485.732    485.732
 54.470    573.000    633.759    -60.759    485.697    633.773    485.697    485.697    485.697
 54.570    609.000    603.436      5.564    485.663    603.446    485.663    485.663    485.663
 54.670    574.000    584.686    -10.686    485.630    584.694    485.630    485.630    485.630
 54.770    623.104    573.669     49.436    485.599    573.675    485.599    485.599    485.599
 54.870    634.000    567.554     66.446    485.569    567.559    485.569    485.569    485.569
 54.970    601.000    564.526     36.474    485.541    564.530    485.541    485.541    485.541
 55.070    569.000    563.550      5.450    485.515    563.553    485.515    485.515    485.515
 55.170    558.000    564.097     -6.097    485.490    564.101    485.490    485.490    485.490
 55.270    538.362    565.943    -27.582    485.466    565.947    485.466    485.466    485.466
 55.370    526.490    569.044    -42.554    485.444    569.048    485.444    485.444    485.444
 55.470    641.000    573.482     67.518    485.423    573.486    485.423    485.423    485.423
 55.570    530.932    579.478    -48.546    485.404    579.482    485.404    485.404    485.404
 55.670    617.292    587.464     29.828    485.386    587.467    485.386    485.386    485.386
 55.770    614.000    598.257     15.743    485.369    598.260    485.369    485.369    485.369
 55.870    634.976    613.375     21.600    485.354    613.379    485.354    485.354    485.354
 55.970    638.325    635.541      2.785    485.341    635.543    485.341    485.341    485.341
 56.070    624.635    669.315    -44.680    485.328    669.316    485.328    485.328    485.328
 56.170    685.000    721.692    -36.692    485.317    721.690    485.317    485.317    485.317
 56.270    741.000    802.203    -61.203    485.308    802.197    485.308    485.308    485.308
 56.370    887.000    921.986    -34.986    485.300    921.975    485.300    485.300    485.300
 56.470   1101.679   1091.326     10.352    485.293   1091.312    485.293    485.293    485.293
 56.570   1324.278   1315.669      8.609    485.288   1315.653    485.288    485.288    485.288
 56.670   1545.000   1590.672    -45.672    485.283   1590.662    485.283    485.283    485.283
 56.770   1867.308   1897.065    -29.757    485.281   1897.072    485.281    485.281    485.281
 56.870   2141.000   2195.976    -54.976    485.279   2196.015    485.279    485.279    485.279
 56.970   2374.756   2428.123    -53.367    485.279   2428.213    485.279    485.279    485.279
 57.070   2614.760   2528.665     86.095    485.280   2528.819    485.280    485.280    485.280
 57.170   2464.000   2463.845      0.155    485.283   2464.061    485.283    485.283    485.283
 57.270   2180.000   2257.136    -77.136    485.286   2257.387    485.286    485.286    485.286
 57.370   2011.000   1970.009     40.991    485.291   1970.263    485.291    485.291    485.291
 57.470   1606.715   1664.438    -57.723    485.297   1664.668    485.297    485.297    485.297
 57.570   1427.578   1383.822     43.756    485.305   1384.013    485.305    485.305    485.305
 57.670   1141.951   1151.471     -9.520    485.314   1151.619    485.314    485.314    485.314
 57.770    926.000    974.834    -48.834    485.323    974.943    485.323    485.323    485.323
 57.870    788.908    850.700    -61.792    485.335    850.775    485.335    485.335    485.335
 57.970    758.000    770.367    -12.367    485.347    770.416    485.347    485.347    485.347
 58.070    758.747    724.023     34.725    485.360    724.052    485.360    485.360    485.360
 58.170    667.201    703.590    -36.389    485.375    703.604    485.375    485.375    485.375
 58.270    721.960    703.860     18.100    485.391    703.862    485.391    485.391    485.391
 58.370    697.541    722.238    -24.697    485.408    722.230    485.408    485.408    485.408
 58.470    756.000    757.655     -1.655    485.426    757.638    485.426    485.426    485.426
 58.570    862.000    809.138     52.862    485.446    809.113    485.446    485.446    485.446
 58.670    913.000    874.328     38.672    485.466    874.297    485.466    485.466    485.466
 58.770    999.073    948.279     50.795    485.488    948.247    485.488    485.488    485.488
 58.870   1070.885   1023.498     47.387    485.511   1023.471    485.511    485.511    485.511
 58.970   1168.000   1092.149     75.851    485.534   1092.132    485.534    485.534    485.534
 59.070   1108.486   1148.425    -39.939    485.559   1148.420    485.559    485.559    485.559
 59.170   1234.000   1187.785     46.215    485.585   1187.793    485.585    485.585    485.585
 59.270   1285.173   1205.575     79.597    485.612   1205.595    485.612    485.612    485.612
 59.370   1238.719   1200.207     38.512    485.640   1200.233    485.640    485.640    485.640
 59.470   1171.209   1177.754     -6.545    485.670   1177.775    485.670    485.670    485.670
 59.570   1127.503   1150.393    -22.890    485.700   1150.398    485.700    485.700    485.700
 59.670   1164.000   1130.275     33.725    485.731   1130.253    485.731    485.731    485.731
 59.770   1239.000   1125.958    113.042    485.763   1125.900    485.763    485.763    485.763
 59.870   1224.000   1143.247     80.753    485.797   1143.148    485.797    485.797    485.797
 59.970   1297.000   1186.285    110.715    485.831   1186.142    485.831    485.831    485.831
 60.070   1190.703   1255.379    -64.676    485.866   1255.191    485.866    485.866    485.866
 60.170   1329.000   1343.328    -14.328    485.902   1343.099    485.902    485.902    485.902
 60.270   1530.000   1433.295     96.705    485.939   1433.038    485.939    485.939    485.939
 60.370   1497.617   1499.776     -2.160    485.978   1499.513    485.978    485.978    485.978
 60.470   1644.000   1515.927    128.073    486.017   1515.684    486.017    486.017    486.017
 60.570   1451.340   1468.144    -16.804    486.057   1467.946    486.057    486.057    486.057
 60.670   1440.017   1365.394     74.624    486.097   1365.248    486.097    486.097    486.097
 60.770   1199.738   1231.551    -31.814    486.139   1231.453    486.139    486.139    486.139
 60.870   1114.000   1091.292     22.708    486.182   1091.230    486.182    486.182    486.182
 60.970    955.577    962.755     -7.178    486.225    962.719    486.225    486.225    486.225
 61.070    856.000    856.589     -0.589    486.270    856.567    486.270    486.270    486.270
 61.170    780.000    777.270      2.730    486.315    777.254    486.315    486.315    486.315
 61.270    717.966    725.067     -7.101    486.361    725.050    486.361    486.361    486.361
 61.370    666.973    698.203    -31.230    486.408    698.182    486.408    486.408    486.408
 61.470    702.000    694.765      7.235    486.456    694.734    486.456    486.456    486.456
 61.570    763.000    713.845     49.155    486.504    713.803    486.504    486.504    486.504
 61.670    737.000    755.668    -18.668    486.554    755.609    486.554    486.554    486.554
 61.770    804.000    820.731    -16.731    486.604    820.652    486.604    486.604    486.604
 61.870    897.000    908.285    -11.285    486.655    908.184    486.655    486.655    486.655
 61.970    967.000   1014.576    -47.576    486.707   1014.453    486.707    486.707    486.707
 62.070   1105.733   1131.202    -25.469    486.759   1131.060    486.759    486.759    486.759
 62.170   1226.000   1243.874    -17.874    486.812   1243.722    486.812    486.812    486.812
 62.270   1294.000   1332.635    -38.635    486.866   1332.486    486.866    486.866    486.866
 62.370   1303.404   1376.263    -72.859    486.921   1376.135    486.921    486.921    486.921
 62.470   1368.937   1362.060      6.877    486.976   1361.964    486.976    486.976    486.976
 62.570   1228.446   1293.849    -65.404    487.032   1293.788    487.032    487.032    487.032
 62.670   1139.374   1189.184    -49.811    487.089   1189.152    487.089    487.089    487.089
 62.770   1060.000   1069.338     -9.338    487.146   1069.327    487.146    487.146    487.146
 62.870    870.000    951.771    -81.771    487.204    951.771    487.204    487.204    487.204
 62.970    780.000    847.809    -67.809    487.263    847.815    487.263    487.263    487.263
 63.070    749.503    763.075    -13.571    487.322    763.081    487.322    487.322    487.322
 63.170    678.000    698.725    -20.725    487.382    698.729    487.382    487.382    487.382
 63.270    653.000    652.929      0.071    487.443    652.931    487.443    487.443    487.443
 63.370    625.000    622.357      2.643    487.504    622.356    487.504    487.504    487.504
 63.470    657.141    603.433     53.708    487.566    603.428    487.566    487.566    487.566
 63.570    594.603    593.181      1.421    487.628    593.174    487.628    487.628    487.628
 63.670    579.000    589.656    -10.656    487.691    589.646    487.691    487.691    487.691
 63.770    609.716    592.034     17.682    487.754    592.020    487.754    487.754    487.754
 63.870    583.650    600.496    -16.847    487.818    600.477    487.818    487.818    487.818
 63.970    621.352    615.980      5.372    487.883    615.954    487.883    487.883    487.883
 64.070    652.000    639.814     12.186    487.948    639.779    487.948    487.948    487.948
 64.170    671.000    673.250     -2.250    488.013    673.203    488.013    488.013    488.013
 64.270    687.000    716.893    -29.893    488.079    716.832    488.079    488.079    488.079
 64.370    764.000    770.083     -6.083    488.145    770.006    488.145    488.145    488.145
 64.470    852.000    830.267     21.733    488.212    830.175    488.212    488.212    488.212
 64.570    875.000    892.454    -17.454    488.280    892.350    488.280    488.280    488.280
 64.670    902.003    949.089    -47.086    488.347    948.978    488.347    488.347    488.347
 64.770    987.000    991.153     -4.153    488.416    991.044    488.416    488.416    488.416
 64.870    964.000   1011.053    -47.053    488.484   1010.954    488.484    488.484    488.484
 64.970   1000.661   1005.844     -5.184    488.553   1005.764    488.553    488.553    488.553
 65.070    929.356    978.237    -48.882    488.623    978.179    488.623    488.623    488.623
 65.170    965.000    934.972     30.028    488.693    934.936    488.693    488.693    488.693
 65.270    822.625    884.167    -61.542    488.763    884.152    488.763    488.763    488.763
 65.370    829.000    832.876     -3.876    488.833    832.879    488.833    488.833    488.833
 65.470    781.000    785.604     -4.604    488.904    785.621    488.904    488.904    488.904
 65.570    759.973    744.170     15.803    488.975    744.197    488.975    488.975    488.975
 65.670    655.972    708.483    -52.511    489.047    708.514    489.047    489.047    489.047
 65.770    621.828    677.867    -56.039    489.119    677.898    489.119    489.119    489.119
 65.870    659.000    651.936      7.064    489.191    651.964    489.191    489.191    489.191
 65.970    621.000    630.596     -9.596    489.263    630.619    489.263    489.263    489.263
 66.070    660.302    613.724     46.579    489.336    613.741    489.336    489.336    489.336
 66.170    582.000    601.044    -19.044    489.409    601.056    489.409    489.409    489.409
 66.270    585.000    592.174     -7.174    489.482    592.182    489.482    489.482    489.482
 66.370    579.000    586.693     -7.693    489.555    586.698    489.555    489.555    489.555
 66.470    586.000    584.203      1.797    489.629    584.207    489.629    489.629    489.629
 66.570    582.000    584.387     -2.387    489.703    584.390    489.703    489.703    489.703
 66.670    635.708    587.091     48.617    489.777    587.094    489.777    489.777    489.777
 66.770    577.000    592.433    -15.433    489.851    592.437    489.851    489.851    489.851
 66.870    593.000    600.956     -7.956    489.925    600.960    489.925    489.925    489.925
 66.970    600.585    613.812    -13.227    490.000    613.816    490.000    490.000    490.000
 67.070    634.000    632.994      1.006    490.074    632.998    490.074    490.074    490.074
 67.170    633.000    661.564    -28.564    490.149    661.567    490.149    490.149    490.149
 67.270    699.000    703.802     -4.802    490.224    703.804    490.224    490.224    490.224
 67.370    758.000    765.121     -7.121    490.299    765.122    490.299    490.299    490.299
 67.470    906.293    851.597     54.697    490.374    851.598    490.374    490.374    490.374
 67.570    985.772    968.992     16.779    490.449    968.997    490.449    490.449    490.449
 67.670   1053.000   1121.270    -68.270    490.524   1121.283    490.524    490.524    490.524
 67.770   1292.748   1308.766    -16.018    490.600   1308.795    490.600    490.600    490.600
 67.870   1469.000   1526.297    -57.297    490.675   1526.352    490.675    490.675    490.675
 67.970   1755.000   1761.418     -6.418    490.750   1761.512    490.750    490.750    490.750
 68.070   1961.000   1993.084    -32.084    490.826   1993.229    490.826    490.826    490.826
 68.170   2206.000   2191.566     14.434    490.901   2191.774    490.901    490.901    490.901
 68.270   2280.000   2322.309    -42.309    490.977   2322.584    490.977    490.977    490.977
 68.370   2311.203   2356.696    -45.494    491.052   2357.030    491.052    491.052    491.052
 68.470   2262.000   2286.177    -24.177    491.127   2286.545    491.127    491.127    491.127
 68.570   2105.000   2127.529    -22.529    491.203   2127.900    491.203    491.203    491.203
 68.670   1934.584   1913.302     21.282    491.278   1913.650    491.278    491.278    491.278
 68.770   1636.038   1677.427    -41.389    491.353   1677.735    491.353    491.353    491.353
 68.870   1464.671   1446.782     17.888    491.428   1447.042    491.428    491.428    491.428
 68.970   1137.000   1239.220   -102.220    491.503   1239.429    491.503    491.503    491.503
 69.070   1080.739   1064.379     16.360    491.578   1064.541    491.578    491.578    491.578
 69.170    908.792    925.234    -16.443    491.653    925.356    491.653    491.653    491.653
 69.270    840.000    819.910     20.090    491.728    819.999    491.728    491.728    491.728
 69.370    732.000    743.575    -11.575    491.802    743.639    491.802    491.802    491.802
 69.470    707.000    690.180     16.820    491.877    690.227    491.877    491.877    491.877
 69.570    643.000    653.770    -10.770    491.951    653.803    491.951    491.951    491.951
 69.670    636.000    629.266      6.734    492.025    629.291    492.025    492.025    492.025
 69.770    566.000    612.779    -46.779    492.099    612.797    492.099    492.099    492.099
 69.870    578.000    601.568    -23.568    492.173    601.583    492.173    492.173    492.173
 69.970    556.000    593.841    -37.841    492.246    593.853    492.246    492.246    492.246
 70.070    556.000    588.492    -32.492    492.319    588.501    492.319    492.319    492.319
 70.170    612.000    584.879     27.121    492.392    584.887    492.392    492.392    492.392
 70.270    614.000    582.657     31.343    492.465    582.663    492.465    492.465    492.465
 70.370    557.641    581.673    -24.032    492.538    581.677    492.538    492.538    492.538
 70.470    568.000    581.920    -13.920    492.610    581.923    492.610    492.610    492.610
 70.570    597.866    583.538     14.328    492.682    583.539    492.682    492.682    492.682
 70.670    592.000    586.850      5.150    492.754    586.849    492.754    492.754    492.754
 70.770    547.986    592.443    -44.457    492.825    592.440    492.825    492.825    492.825
 70.870    552.231    601.277    -49.046    492.896    601.271    492.896    492.896    492.896
 70.970    593.000    614.816    -21.816    492.967    614.806    492.967    492.967    492.967
 71.070    617.000    635.144    -18.144    493.037    635.128    493.037    493.037    493.037
 71.170    652.000    665.010    -13.010    493.107    664.985    493.107    493.107    493.107
 71.270    700.000    707.737     -7.737    493.177    707.702    493.177    493.177    493.177
 71.370    752.000    766.920    -14.920    493.246    766.872    493.246    493.246    493.246
 71.470    870.589    845.863     24.726    493.315    845.797    493.315    493.315    493.315
 71.570    939.000    946.783     -7.783    493.384    946.697    493.384    493.384    493.384
 71.670   1063.731   1069.863     -6.133    493.452   1069.756    493.452    493.452    493.452
 71.770   1177.000   1212.279    -35.279    493.519   1212.151    493.519    493.519    493.519
 71.870   1307.000   1367.317    -60.317    493.587   1367.170    493.587    493.587    493.587
 71.970   1449.000   1523.654    -74.654    493.653   1523.494    493.653    493.653    493.653
 72.070   1581.000   1665.107    -84.107    493.720   1664.945    493.720    493.720    493.720
 72.170   1796.000   1771.888     24.112    493.786   1771.736    493.786    493.786    493.786
 72.270   1818.000   1824.994     -6.994    493.851   1824.866    493.851    493.851    493.851
 72.370   1828.809   1813.448     15.360    493.916   1813.353    493.916    493.916    493.916
 72.470   1695.331   1739.712    -44.381    493.980   1739.651    493.980    493.980    493.980
 72.570   1588.941   1618.319    -29.378    494.044   1618.289    494.044    494.044    494.044
 72.670   1404.563   1469.150    -64.587    494.108   1469.143    494.108    494.108    494.108
 72.770   1337.808   1310.988     26.820    494.171   1310.996    494.171    494.171    494.171
 72.870   1202.282   1158.368     43.914    494.233   1158.385    494.233    494.233    494.233
 72.970   1008.000   1020.981    -12.981    494.295   1021.001    494.295    494.295    494.295
 73.070    936.000    904.125     31.875    494.356    904.144    494.356    494.356    494.356
 73.170    811.000    809.501      1.499    494.416    809.518    494.416    494.416    494.416
 73.270    759.623    736.142     23.481    494.476    736.156    494.476    494.476    494.476
 73.370    717.000    681.389     35.611    494.536    681.399    494.536    494.536    494.536
 73.470    667.063    641.799     25.264    494.595    641.807    494.595    494.595    494.595
 73.570    689.000    613.861     75.139    494.653    613.867    494.653    494.653    494.653
 73.670    674.000    594.466     79.534    494.710    594.471    494.710    494.710    494.710
 73.770    647.000    581.128     65.872    494.767    581.133    494.767    494.767    494.767
 73.870    626.000    572.023     53.977    494.823    572.029    494.823    494.823    494.823
 73.970    593.000    565.902     27.098    494.879    565.910    494.879    494.879    494.879
 74.070    592.000    561.951     30.049    494.934    561.961    494.934    494.934    494.934
 74.170    604.000    559.650     44.350    494.988    559.664    494.988    494.988    494.988
 74.270    539.000    558.645    -19.645    495.042    558.663    495.042    495.042    495.042
 74.370    599.000    558.656     40.344    495.094    558.679    495.094    495.094    495.094
 74.470    598.858    559.402     39.455    495.146    559.431    495.146    495.146    495.146
 74.570    533.420    560.565    -27.144    495.198    560.599    495.198    495.198    495.198
 74.670    598.000    561.759     36.241    495.248    561.798    495.248    495.248    495.248
 74.770    529.011    562.553    -33.543    495.298    562.596    495.298    495.298    495.298
 74.870    609.187    562.541     46.646    495.347    562.587    495.347    495.347    495.347
 74.970    634.000    561.476     72.524    495.396    561.522    495.396    495.396    495.396
 75.070    609.881    559.381     50.499    495.443    559.425    495.443    495.443    495.443
 75.170    630.000    556.556     73.444    495.490    556.595    495.490    495.490    495.490
 75.270    498.242    553.465    -55.223    495.536    553.500    495.536    495.536    495.536
 75.370    641.000    550.629     90.371    495.581    550.657    495.581    495.581    495.581
 75.470    638.000    548.554     89.446    495.625    548.575    495.625    495.625    495.625
 75.570    523.709    547.727    -24.018    495.669    547.741    495.669    495.669    495.669
 75.670    604.000    548.616     55.384    495.712    548.623    495.712    495.712    495.712
 75.770    577.000    551.669     25.331    495.753    551.670    495.753    495.753    495.753
 75.870    604.000    557.297     46.703    495.794    557.292    495.794    495.794    495.794
 75.970    570.000    565.829      4.171    495.834    565.816    495.834    495.834    495.834
 76.070    600.186    577.445     22.741    495.873    577.426    495.873    495.873    495.873
 76.170    638.623    592.106     46.516    495.912    592.079    495.912    495.912    495.912
 76.270    569.146    609.461    -40.316    495.949    609.427    495.949    495.949    495.949
 76.370    613.026    628.773    -15.748    495.986    628.732    495.986    495.986    495.986
 76.470    636.000    648.851    -12.851    496.021    648.803    496.021    496.021    496.021
 76.570    644.000    668.006    -24.006    496.056    667.953    496.056    496.056    496.056
 76.670    691.000    684.096      6.904    496.089    684.041    496.089    496.089    496.089
 76.770    665.879    694.792    -28.913    496.122    694.736    496.122    496.122    496.122
 76.870    645.745    698.184    -52.440    496.154    698.131    496.154    496.154    496.154
 76.970    682.666    693.548    -10.883    496.185    693.500    496.185    496.185    496.185
 77.070    683.713    681.691      2.022    496.215    681.649    496.215    496.215    496.215
 77.170    646.000    664.560    -18.560    496.243    664.524    496.243    496.243    496.243
 77.270    665.214    644.470     20.743    496.271    644.441    496.271    496.271    496.271
 77.370    635.000    623.511     11.489    496.298    623.488    496.298    496.298    496.298
 77.470    573.000    603.297    -30.297    496.324    603.279    496.324    496.324    496.324
 77.570    570.560    584.931    -14.372    496.349    584.918    496.349    496.349    496.349
 77.670    547.000    569.055    -22.055    496.373    569.045    496.373    496.373    496.373
 77.770    535.000    555.927    -20.927    496.395    555.919    496.395    496.395    496.395
 77.870    549.000    545.488      3.512    496.417    545.483    496.417    496.417    496.417
 77.970    525.000    537.475    -12.475    496.438    537.471    496.438    496.438    496.438
 78.070    540.000    531.510      8.490    496.457    531.506    496.457    496.457    496.457
 78.170    573.072    527.176     45.896    496.476    527.174    496.476    496.476    496.476
 78.270    528.000    524.085      3.915    496.493    524.084    496.493    496.493    496.493
 78.370    498.386    521.904    -23.518    496.510    521.902    496.510    496.510    496.510
 78.470    547.106    520.370     26.736    496.525    520.369    496.525    496.525    496.525
 78.570    489.000    519.291    -30.291    496.539    519.290    496.539    496.539    496.539
 78.670    532.742    518.535     14.206    496.552    518.535    496.552    496.552    496.552
 78.770    500.114    518.018    -17.904    496.564    518.018    496.564    496.564    496.564
 78.870    520.000    517.690      2.310    496.575    517.689    496.575    496.575    496.575
 78.970    495.000    517.526    -22.526    496.584    517.526    496.584    496.584    496.584
 79.070    487.237    517.522    -30.284    496.593    517.521    496.593    496.593    496.593
 79.170    500.000    517.685    -17.685    496.600    517.684    496.600    496.600    496.600
 79.270    503.000    518.035    -15.035    496.606    518.035    496.606    496.606    496.606
 79.370    513.000    518.602     -5.602    496.611    518.601    496.611    496.611    496.611
 79.470    473.081    519.422    -46.340    496.615    519.420    496.615    496.615    496.615
 79.570    537.000    520.542     16.458    496.618    520.540    496.618    496.618    496.618
 79.670    484.404    522.020    -37.616    496.619    522.018    496.619    496.619    496.619
 79.770    523.000    523.928     -0.928    496.620    523.926    496.620    496.620    496.620
 79.870    531.000    526.362      4.638    496.619    526.359    496.619    496.619    496.619
 79.970    488.129    529.440    -41.311    496.617    529.436    496.617    496.617    496.617
 80.070    523.288    533.316    -10.028    496.613    533.312    496.613    496.613    496.613
 80.170    529.000    538.178     -9.178    496.609    538.173    496.609    496.609    496.609
 80.270    569.999    544.247     25.752    496.603    544.243    496.603    496.603    496.603
 80.370    552.000    551.783      0.217    496.596    551.780    496.596    496.596    496.596
 80.470    616.000    561.079     54.921    496.587    561.078    496.587    496.587    496.587
 80.570    577.837    572.431      5.406    496.578    572.432    496.578    496.578    496.578
 80.670    565.102    586.077    -20.975    496.567    586.081    496.567    496.567    496.567
 80.770    615.000    602.105     12.895    496.555    602.113    496.555    496.555    496.555
 80.870    573.000    620.363    -47.363    496.541    620.376    496.541    496.541    496.541
 80.970    649.000    640.390      8.610    496.527    640.409    496.527    496.527    496.527
 81.070    618.000    661.389    -43.389    496.511    661.414    496.511    496.511    496.511
 81.170    656.000    682.271    -26.271    496.494    682.304    496.494    496.494    496.494
 81.270    649.000    701.804    -52.804    496.475    701.844    496.475    496.475    496.475
 81.370    640.000    718.812    -78.812    496.455    718.859    496.455    496.455    496.455
 81.470    696.000    732.332    -36.332    496.434    732.384    496.434    496.434    496.434
 81.570    733.094    741.677     -8.582    496.412    741.735    496.412    496.412    496.412
 81.670    703.000    746.474    -43.474    496.388    746.538    496.388    496.388    496.388
 81.770    790.141    746.678     43.464    496.363    746.746    496.363    496.363    496.363
 81.870    747.000    742.506      4.494    496.336    742.578    496.336    496.336    496.336
 81.970    700.000    734.342    -34.342    496.308    734.417    496.308    496.308    496.308
 82.070    690.000    722.722    -32.722    496.279    722.797    496.279    496.279    496.279
 82.170    726.000    708.381     17.619    496.249    708.456    496.249    496.249    496.249
 82.270    699.000    692.237      6.763    496.217    692.310    496.217    496.217    496.217
 82.370    621.000    675.216    -54.216    496.184    675.286    496.184    496.184    496.184
 82.470    644.000    658.064    -14.064    496.149    658.130    496.149    496.149    496.149
 82.570    683.769    641.273     42.497    496.113    641.334    496.113    496.113    496.113
 82.670    592.000    625.156    -33.156    496.076    625.212    496.076    496.076    496.076
 82.770    578.848    609.979    -31.131    496.037    610.030    496.037    496.037    496.037
 82.870    573.000    596.038    -23.038    495.997    596.082    495.997    495.997    495.997
 82.970    553.000    583.646    -30.646    495.956    583.682    495.956    495.956    495.956
 83.070    573.273    573.079      0.194    495.913    573.107    495.913    495.913    495.913
 83.170    547.000    564.532    -17.532    495.869    564.553    495.869    495.869    495.869
 83.270    542.000    558.109    -16.109    495.823    558.121    495.823    495.823    495.823
 83.370    579.221    553.819     25.402    495.776    553.824    495.776    495.776    495.776
 83.470    549.550    551.589     -2.040    495.727    551.586    495.727    495.727    495.727
 83.570    557.000    551.257      5.743    495.677    551.246    495.677    495.677    495.677
 83.670    559.000    552.573      6.427    495.626    552.555    495.626    495.626    495.626
 83.770    525.000    555.198    -30.198    495.573    555.172    495.573    495.573    495.573
 83.870    499.000    558.705    -59.705    495.519    558.673    495.519    495.519    495.519
 83.970    528.000    562.584    -34.584    495.464    562.546    495.464    495.464    495.464
 84.070    553.000    566.256    -13.256    495.407    566.214    495.407    495.407    495.407
 84.170    607.680    569.116     38.563    495.348    569.071    495.348    495.348    495.348
 84.270    536.838    570.611    -33.774    495.288    570.565    495.288    495.288    495.288
 84.370    544.000    570.362    -26.362    495.227    570.316    495.227    495.227    495.227
 84.470    590.139    568.265     21.874    495.164    568.222    495.164    495.164    495.164
 84.570    543.000    564.510    -21.510    495.100    564.470    495.100    495.100    495.100
 84.670    562.893    559.453      3.440    495.034    559.417    495.034    495.034    495.034
 84.770    508.473    553.688    -45.215    494.967    553.657    494.967    494.967    494.967
 84.870    553.000    547.639      5.361    494.898    547.612    494.898    494.898    494.898
 84.970    545.000    541.688      3.312    494.828    541.666    494.828    494.828    494.828
 85.070    487.000    536.133    -49.133    494.757    536.115    494.757    494.757    494.757
 85.170    514.000    531.175    -17.175    494.684    531.161    494.684    494.684    494.684
 85.270    475.603    526.936    -51.333    494.609    526.924    494.609    494.609    494.609
 85.370    517.000    523.454     -6.454    494.533    523.444    494.533    494.533    494.533
 85.470    556.000    520.715     35.285    494.456    520.707    494.456    494.456    494.456
 85.570    534.911    518.666     16.246    494.377    518.658    494.377    494.377    494.377
 85.670    504.177    517.232    -13.055    494.296    517.225    494.296    494.296    494.296
 85.770    553.000    516.340     36.660    494.214    516.334    494.214    494.214    494.214
 85.870    553.000    515.928     37.072    494.131    515.920    494.131    494.131    494.131
 85.970    516.000    515.953      0.047    494.046    515.946    494.046    494.046    494.046
 86.070    545.000    516.406     28.594    493.960    516.397    493.960    493.960    493.960
 86.170    496.000    517.306    -21.306    493.872    517.295    493.872    493.872    493.872
 86.270    468.191    518.709    -50.518    493.783    518.697    493.783    493.783    493.783
 86.370    473.453    520.698    -47.245    493.692    520.683    493.692    493.692    493.692
 86.470    540.555    523.380     17.176    493.600    523.361    493.600    493.600    493.600
 86.570    515.000    526.876    -11.876    493.506    526.853    493.506    493.506    493.506
 86.670    523.000    531.310     -8.310    493.411    531.282    493.411    493.411    493.411
 86.770    567.863    536.791     31.072    493.314    536.756    493.314    493.314    493.314
 86.870    576.000    543.389     32.611    493.216    543.347    493.216    493.216    493.216
 86.970    596.350    551.117     45.233    493.116    551.066    493.116    493.116    493.116
 87.070    604.003    559.903     44.101    493.015    559.842    493.015    493.015    493.015
 87.170    570.000    569.563      0.437    492.912    569.492    492.912    492.912    492.912
 87.270    586.241    579.788      6.453    492.808    579.707    492.808    492.808    492.808
 87.370    536.000    590.128    -54.128    492.702    590.037    492.702    492.702    492.702
 87.470    623.000    599.993     23.007    492.595    599.893    492.595    492.595    492.595
 87.570    637.000    608.673     28.327    492.486    608.567    492.486    492.486    492.486
 87.670    612.000    615.418     -3.418    492.376    615.309    492.376    492.376    492.376
 87.770    602.000    619.574    -17.574    492.265    619.465    492.265    492.265    492.265
 87.870    569.226    620.752    -51.526    492.151    620.647    492.151    492.151    492.151
 87.970    662.000    618.950     43.050    492.037    618.852    492.037    492.037    492.037
 88.070    609.150    614.550     -5.400    491.921    614.462    491.921    491.921    491.921
 88.170    560.845    608.201    -47.356    491.803    608.125    491.803    491.803    491.803
 88.270    582.000    600.674    -18.674    491.684    600.610    491.684    491.684    491.684
 88.370    626.000    592.746     33.254    491.563    592.695    491.563    491.563    491.563
 88.470    585.585    585.135      0.450    491.441    585.095    491.441    491.441    491.441
 88.570    546.000    578.451    -32.451    491.318    578.423    491.318    491.318    491.318
 88.670    581.000    573.172      7.828    491.193    573.155    491.193    491.193    491.193
 88.770    582.000    569.621     12.379    491.066    569.614    491.066    491.066    491.066
 88.870    570.000    567.954      2.046    490.938    567.956    490.938    490.938    490.938
 88.970    512.974    568.164    -55.190    490.809    568.176    490.809    490.809    490.809
 89.070    542.000    570.092    -28.092    490.678    570.111    490.678    490.678    490.678
 89.170    596.000    573.431     22.569    490.545    573.459    490.545    490.545    490.545
 89.270    566.000    577.752    -11.752    490.411    577.788    490.411    490.411    490.411
 89.370    538.776    582.515    -43.739    490.276    582.558    490.276    490.276    490.276
 89.470    582.000    587.097     -5.097    490.139    587.147    490.139    490.139    490.139
 89.570    603.646    590.838     12.808    490.001    590.895    490.001    490.001    490.001
 89.670    578.000    593.119    -15.119    489.861    593.181    489.861    489.861    489.861
 89.770    582.000    593.476    -11.476    489.720    593.541    489.720    489.720    489.720
 89.870    586.000    591.708     -5.708    489.577    591.773    489.577    489.577    489.577
 89.970    586.898    587.918     -1.021    489.433    587.982    489.433    489.433    489.433
 90.070    543.000    582.462    -39.462    489.288    582.522    489.288    489.288    489.288
 90.170    616.000    575.828     40.172    489.141    575.884    489.141    489.141    489.141
 90.270    543.000    568.532    -25.532    488.992    568.582    488.992    488.992    488.992
 90.370    568.000    561.041      6.959    488.842    561.085    488.842    488.842    488.842
 90.470    543.000    553.742    -10.742    488.691    553.780    488.691    488.691    488.691
 90.570    549.034    546.931      2.103    488.538    546.963    488.538    488.538    488.538
 90.670    536.000    540.817     -4.817    488.384    540.843    488.384    488.384    488.384
 90.770    581.054    535.526     45.528    488.229    535.547    488.229    488.229    488.229
 90.870    513.000    531.112    -18.112    488.072    531.128    488.072    488.072    488.072
 90.970    504.000    527.573    -23.573    487.913    527.585    487.913    487.913    487.913
 91.070    483.545    524.866    -41.322    487.754    524.875    487.754    487.754    487.754
 91.170    506.000    522.924    -16.924    487.593    522.930    487.593    487.593    487.593
 91.270    525.679    521.672      4.007    487.430    521.676    487.430    487.430    487.430
 91.370    513.000    521.043     -8.043    487.266    521.045    487.266    487.266    487.266
 91.470    523.121    520.988      2.133    487.101    520.989    487.101    487.101    487.101
 91.570    534.927    521.485     13.442    486.934    521.484    486.934    486.934    486.934
 91.670    494.000    522.542    -28.542    486.766    522.540    486.766    486.766    486.766
 91.770    489.353    524.204    -34.851    486.596    524.201    486.596    486.596    486.596
 91.870    549.000    526.550     22.450    486.426    526.545    486.426    486.426    486.426
 91.970    544.000    529.690     14.310    486.254    529.682    486.254    486.254    486.254
 92.070    565.457    533.759     31.698    486.080    533.749    486.080    486.080    486.080
 92.170    562.550    538.912     23.638    485.905    538.899    485.905    485.905    485.905
 92.270    508.715    545.310    -36.595    485.729    545.294    485.729    485.729    485.729
 92.370    526.594    553.106    -26.512    485.551    553.086    485.551    485.551    485.551
 92.470    588.327    562.432     25.895    485.373    562.407    485.373    485.373    485.373
 92.570    614.304    573.380     40.924    485.193    573.350    485.193    485.193    485.193
 92.670    592.000    585.986      6.014    485.011    585.950    485.011    485.011    485.011
 92.770    606.000    600.216      5.784    484.828    600.174    484.828    484.828    484.828
 92.870    572.000    615.948    -43.948    484.644    615.899    484.644    484.644    484.644
 92.970    640.566    632.958      7.608    484.459    632.903    484.459    484.459    484.459
 93.070    676.000    650.912     25.088    484.272    650.851    484.272    484.272    484.272
 93.170    695.000    669.367     25.633    484.084    669.301    484.084    484.084    484.084
 93.270    660.000    687.794    -27.794    483.895    687.724    483.895    483.895    483.895
 93.370    639.000    705.648    -66.648    483.705    705.575    483.705    483.705    483.705
 93.470    772.525    722.460     50.064    483.513    722.385    483.513    483.513    483.513
 93.570    686.398    737.982    -51.584    483.320    737.906    483.320    483.320    483.320
 93.670    782.000    752.219     29.781    483.126    752.144    483.126    483.126    483.126
 93.770    750.000    765.361    -15.361    482.931    765.287    482.931    482.931    482.931
 93.870    779.804    777.697      2.107    482.735    777.625    482.735    482.735    482.735
 93.970    753.000    789.486    -36.486    482.537    789.417    482.537    482.537    482.537
 94.070    787.574    800.884    -13.310    482.338    800.817    482.338    482.338    482.338
 94.170    799.000    811.950    -12.950    482.138    811.885    482.138    482.138    482.138
 94.270    857.000    822.719     34.281    481.937    822.657    481.937    481.937    481.937
 94.370    909.000    833.274     75.726    481.734    833.216    481.734    481.734    481.734
 94.470    789.845    843.745    -53.900    481.531    843.689    481.531    481.531    481.531
 94.570    894.032    854.215     39.816    481.326    854.163    481.326    481.326    481.326
 94.670    845.000    864.595    -19.595    481.120    864.547    481.120    481.120    481.120
 94.770    955.000    874.498     80.502    480.913    874.455    480.913    480.913    480.913
 94.870    846.000    883.203    -37.203    480.705    883.165    480.705    480.705    480.705
 94.970    886.000    889.685     -3.685    480.496    889.653    480.496    480.496    480.496
 95.070    954.279    892.755     61.524    480.285    892.730    480.285    480.285    480.285
 95.170    929.000    891.289     37.711    480.074    891.273    480.074    480.074    480.074
 95.270    857.000    884.524    -27.524    479.862    884.516    479.862    479.862    479.862
 95.370    895.000    872.309     22.691    479.648    872.309    479.648    479.648    479.648
 95.470    849.383    855.202     -5.818    479.434    855.207    479.434    479.434    479.434
 95.570    889.000    834.359     54.641    479.218    834.369    479.218    479.218    479.218
 95.670    789.000    811.308    -22.308    479.001    811.320    479.001    479.001    479.001
 95.770    795.000    787.713      7.287    478.784    787.727    478.784    478.784    478.784
 95.870    783.000    765.215     17.785    478.565    765.228    478.565    478.565    478.565
 95.970    765.000    745.343     19.657    478.346    745.354    478.346    478.346    478.346
 96.070    735.000    729.481      5.519    478.125    729.489    478.125    478.125    478.125
 96.170    685.000    718.854    -33.854    477.904    718.857    477.904    477.904    477.904
 96.270    670.000    714.515    -44.515    477.681    714.514    477.681    477.681    477.681
 96.370    684.617    717.346    -32.729    477.458    717.338    477.458    477.458    477.458
 96.470    693.000    728.039    -35.039    477.234    728.025    477.234    477.234    477.234
 96.570    708.000    747.094    -39.094    477.008    747.072    477.008    477.008    477.008
 96.670    809.856    774.789     35.067    476.782    774.760    476.782    476.782    476.782
 96.770    869.184    811.156     58.028    476.555    811.119    476.555    476.555    476.555
 96.870    820.113    855.939    -35.825    476.327    855.894    476.327    476.327    476.327
 96.970    844.000    908.546    -64.546    476.099    908.495    476.099    476.099    476.099
 97.070    991.341    967.997     23.344    475.869    967.941    475.869    475.869    475.869
 97.170   1007.000   1032.872    -25.872    475.639   1032.812    475.639    475.639    475.639
 97.270   1141.798   1101.269     40.529    475.408   1101.207    475.408    475.408    475.408
 97.370   1194.866   1170.775     24.091    475.176   1170.713    475.176    475.176    475.176
 97.470   1225.640   1238.469    -12.828    474.943   1238.410    474.943    474.943    474.943
 97.570   1265.000   1300.982    -35.982    474.709   1300.931    474.709    474.709    474.709
 97.670   1390.000   1354.678     35.322    474.475   1354.638    474.475    474.475    474.475
 97.770   1391.000   1395.998     -4.998    474.240   1395.972    474.240    474.240    474.240
 97.870   1470.000   1421.974     48.026    474.004   1421.965    474.004    474.004    474.004
 97.970   1390.930   1430.782    -39.852    473.768   1430.792    473.768    473.768    473.768
 98.070   1434.013   1422.126     11.887    473.531   1422.153    473.531    473.531    473.531
 98.170   1497.000   1397.259     99.741    473.293   1397.303    473.293    473.293    473.293
 98.270   1392.000   1358.686     33.314    473.055   1358.743    473.055    473.055    473.055
 98.370   1370.000   1309.645     60.355    472.816   1309.712    472.816    472.816    472.816
 98.470   1258.000   1253.646      4.354    472.576   1253.719    472.576    472.576    472.576
 98.570   1220.090   1194.134     25.956    472.336   1194.210    472.336    472.336    472.336
 98.670   1195.013   1134.292     60.721    472.095   1134.367    472.095    472.095    472.095
 98.770   1054.000   1076.934    -22.934    471.853   1077.005    471.853    471.853    471.853
 98.870   1066.000   1024.438     41.562    471.611   1024.503    471.611    471.611    471.611
 98.970    985.000    978.969      6.031    471.369    979.027    471.369    471.369    471.369
 99.070    910.849    942.191    -31.342    471.126    942.241    471.126    471.126    471.126
 99.170    877.000    915.466    -38.466    470.882    915.508    470.882    470.882    470.882
 99.270    873.000    899.863    -26.863    470.638    899.896    470.638    470.638    470.638
 99.370    838.036    896.160    -58.124    470.394    896.185    470.394    470.394    470.394
 99.470    911.000    904.853      6.147    470.149    904.872    470.149    470.149    470.149
 99.570    903.000    926.168    -23.168    469.903    926.183    469.903    469.903    469.903
 99.670    934.000    960.061    -26.061    469.658    960.073    469.658    469.658    469.658
 99.770    945.549   1006.207    -60.658    469.412   1006.218    469.412    469.412    469.412
 99.870   1081.000   1063.976     17.024    469.165   1063.989    469.165    469.165    469.165
 99.970   1147.000   1132.388     14.612    468.918   1132.405    468.918    468.918    468.918
100.070   1226.000   1210.094     15.906    468.671   1210.119    468.671    468.671    468.671
100.170   1310.000   1295.297     14.703    468.423   1295.333    468.423    468.423    468.423
100.270   1422.000   1385.713     36.287    468.176   1385.764    468.176    468.176    468.176
100.370   1534.380   1478.589     55.791    467.928   1478.658    467.928    467.928    467.928
100.470   1556.000   1570.766    -14.766    467.679   1570.856    467.679    467.679    467.679
100.570   1585.000   1658.871    -73.871    467.431   1658.986    467.431    467.431    467.431
100.670   1765.000   1739.602     25.398    467.182   1739.743    467.182    467.182    467.182
100.770   1754.085   1810.048    -55.963    466.933   1810.216    466.933    466.933    466.933
100.870   1850.948   1867.921    -16.974    466.684   1868.115    466.684    466.684    466.684
100.970   1906.000   1911.591     -5.591    466.435   1911.809    466.435    466.435    466.435
101.070   2027.000   1939.942     87.058    466.185   1940.182    466.185    466.185    466.185
101.170   1929.298   1952.198    -22.901    465.936   1952.456    465.936    465.936    465.936
101.270   1952.000   1947.874      4.126    465.687   1948.145    465.687    465.687    465.687
101.370   1977.000   1926.946     50.054    465.437   1927.226    465.437    465.437    465.437
101.470   1984.372   1890.162     94.211    465.187   1890.447    465.187    465.187    465.187
101.570   1881.000   1839.293     41.707    464.938   1839.578    464.938    464.938    464.938
101.670   1866.967   1777.143     89.824    464.688   1777.423    464.688    464.688    464.688
101.770   1667.000   1707.264    -40.264    464.439   1707.534    464.439    464.439    464.439
101.870   1688.000   1633.486     54.514    464.189   1633.743    464.189    464.189    464.189
101.970   1615.000   1559.451     55.549    463.940   1559.692    463.940    463.940    463.940
102.070   1473.505   1488.265    -14.760    463.690   1488.489    463.690    463.690    463.690
102.170   1327.000   1422.309    -95.309    463.441   1422.515    463.441    463.441    463.441
102.270   1362.547   1363.174     -0.627    463.192   1363.363    463.192    463.192    463.192
102.370   1361.824   1311.669     50.156    462.943   1311.842    462.943    462.943    462.943
102.470   1321.477   1267.863     53.614    462.695   1268.023    462.695    462.695    462.695
102.570   1234.000   1231.159      2.841    462.446   1231.306    462.446    462.446    462.446
102.670   1254.000   1200.376     53.624    462.198   1200.514    462.198    462.198    462.198
102.770   1205.000   1173.877     31.123    461.950   1174.007    461.950    461.950    461.950
102.870   1133.000   1149.722    -16.722    461.703   1149.847    461.703    461.703    461.703
102.970   1093.000   1126.022    -33.022    461.455   1126.143    461.455    461.455    461.455
103.070   1116.000   1101.031     14.969    461.208   1101.150    461.208    461.208    461.208
103.170   1057.703   1073.497    -15.794    460.962   1073.614    460.962    460.962    460.962
103.270   1054.000   1042.788     11.212    460.716   1042.903    460.716    460.716    460.716
103.370   1064.000   1008.891     55.109    460.470   1009.003    460.470    460.470    460.470
103.470   1059.000    972.284     86.716    460.225    972.393    460.225    460.225    460.225
103.570    898.000    933.755    -35.755    459.980    933.858    459.980    459.980    459.980
103.670    865.408    894.223    -28.815    459.736    894.321    459.736    459.736    459.736
103.770    834.000    854.618    -20.618    459.492    854.709    459.492    459.492    459.492
103.870    865.000    815.797     49.203    459.249    815.881    459.249    459.249    459.249
103.970    810.000    778.508     31.492    459.006    778.584    459.006    459.006    459.006
104.070    816.000    743.364     72.636    458.765    743.433    458.765    458.765    458.765
104.170    729.000    710.840     18.160    458.523    710.901    458.523    458.523    458.523
104.270    713.000    681.265     31.735    458.283    681.318    458.283    458.283    458.283
104.370    714.406    654.827     59.580    458.043    654.873    458.043    458.043    458.043
104.470    666.000    631.585     34.415    457.804    631.624    457.804    457.804    457.804
104.570    616.000    611.486      4.514    457.565    611.519    457.565    457.565    457.565
104.670    543.431    594.386    -50.955    457.328    594.414    457.328    457.328    457.328
104.770    614.978    580.074     34.904    457.091    580.098    457.091    457.091    457.091
104.870    552.000    568.299    -16.299    456.855    568.318    456.855    456.855    456.855
104.970    604.000    558.787     45.213    456.620    558.803    456.620    456.620    456.620
105.070    566.000    551.269     14.731    456.386    551.281    456.386    456.386    456.386
105.170    557.957    545.489     12.468    456.153    545.499    456.153    456.153    456.153
105.270    564.564    541.222     23.342    455.921    541.229    455.921    455.921    455.921
105.370    564.000    538.275     25.725    455.689    538.280    455.689    455.689    455.689
105.470    519.000    536.498    -17.498    455.459    536.500    455.459    455.459    455.459
105.570    563.000    535.777     27.223    455.230    535.777    455.230    455.230    455.230
105.670    538.418    536.036      2.381    455.002    536.034    455.002    455.002    455.002
105.770    559.000    537.234     21.766    454.775    537.230    454.775    454.775    454.775
105.870    551.000    539.354     11.646    454.550    539.348    454.550    454.550    454.550
105.970    495.349    542.407    -47.058    454.325    542.399    454.325    454.325    454.325
106.070    527.000    546.416    -19.416    454.102    546.405    454.102    454.102    454.102
106.170    588.000    551.414     36.586    453.880    551.401    453.880    453.880    453.880
106.270    593.000    557.434     35.566    453.659    557.418    453.659    453.659    453.659
106.370    543.112    564.498    -21.386    453.439    564.479    453.439    453.439    453.439
106.470    548.000    572.608    -24.608    453.221    572.586    453.221    453.221    453.221
106.570    553.000    581.733    -28.733    453.005    581.709    453.005    453.005    453.005
106.670    540.000    591.806    -51.806    452.789    591.779    452.789    452.789    452.789
106.770    587.000    602.710    -15.710    452.576    602.680    452.576    452.576    452.576
106.870    614.308    614.265      0.043    452.363    614.232    452.363    452.363    452.363
106.970    675.989    626.288     49.701    452.152    626.253    452.152    452.152    452.152
107.070    566.000    638.514    -72.514    451.943    638.476    451.943    451.943    451.943
107.170    635.000    650.622    -15.622    451.736    650.583    451.736    451.736    451.736
107.270    616.000    662.260    -46.260    451.529    662.220    451.529    451.529    451.529
107.370    631.000    673.053    -42.053    451.325    673.013    451.325    451.325    451.325
107.470    664.000    682.629    -18.629    451.122    682.589    451.122    451.122    451.122
107.570    665.000    690.657    -25.657    450.921    690.618    450.921    450.921    450.921
107.670    709.000    696.895     12.105    450.722    696.859    450.722    450.722    450.722
107.770    670.000    701.239    -31.239    450.525    701.207    450.525    450.525    450.525
107.870    674.000    703.744    -29.744    450.329    703.715    450.329    450.329    450.329
107.970    646.651    704.623    -57.972    450.136    704.598    450.136    450.136    450.136
108.070    676.000    704.213    -28.213    449.944    704.192    449.944    449.944    449.944
108.170    659.000    702.922    -43.922    449.754    702.905    449.754    449.754    449.754
108.270    748.090    701.171     46.919    449.566    701.158    449.566    449.566    449.566
108.370    719.098    699.345     19.753    449.381    699.336    449.381    449.381    449.381
108.470    697.974    697.762      0.213    449.197    697.757    449.197    449.197    449.197
108.570    663.000    696.648    -33.648    449.015    696.647    449.015    449.015    449.015
108.670    694.000    696.129     -2.129    448.836    696.133    448.836    448.836    448.836
108.770    749.341    696.227     53.114    448.659    696.234    448.659    448.659    448.659
108.870    695.000    696.856     -1.856    448.484    696.867    448.484    448.484    448.484
108.970    703.409    697.835      5.574    448.311    697.849    448.311    448.311    448.311
109.070    679.121    698.888    -19.766    448.140    698.905    448.140    448.140    448.140
109.170    700.000    699.670      0.330    447.972    699.691    447.972    447.972    447.972
109.270    646.000    699.798    -53.798    447.806    699.822    447.806    447.806    447.806
109.370    688.362    698.888    -10.526    447.643    698.915    447.643    447.643    447.643
109.470    673.000    696.609    -23.609    447.482    696.638    447.482    447.482    447.482
109.570    732.000    692.730     39.270    447.324    692.760    447.324    447.324    447.324
109.670    649.000    687.155    -38.155    447.168    687.187    447.168    447.168    447.168
109.770    729.212    679.933     49.279    447.014    679.965    447.014    447.014    447.014
109.870    658.000    671.240    -13.240    446.864    671.273    446.864    446.864    446.864
109.970    669.835    661.347      8.488    446.716    661.379    446.716    446.716    446.716
110.070    671.000    650.574     20.426    446.570    650.605    446.570    446.570    446.570
110.170    642.411    639.257      3.153    446.428    639.287    446.428    446.428    446.428
110.270    661.000    627.722     33.278    446.288    627.749    446.288    446.288    446.288
110.370    614.533    616.265     -1.732    446.151    616.290    446.151    446.151    446.151
110.470    607.000    605.147      1.853    446.017    605.171    446.017    446.017    446.017
110.570    622.000    594.589     27.411    445.885    594.610    445.885    445.885    445.885
110.670    594.000    584.768      9.232    445.757    584.786    445.757    445.757    445.757
110.770    569.000    575.819     -6.819    445.632    575.834    445.632    445.632    445.632
110.870    586.000    567.834     18.166    445.510    567.847    445.510    445.510    445.510
110.970    572.000    560.867     11.133    445.390    560.878    445.390    445.390    445.390
111.070    570.000    554.938     15.062    445.274    554.947    445.274    445.274    445.274
111.170    598.000    550.034     47.966    445.162    550.041    445.162    445.162    445.162
111.270    555.353    546.118      9.235    445.052    546.123    445.052    445.052    445.052
111.370    566.000    543.133     22.867    444.946    543.136    444.946    444.946    444.946
111.470    556.000    541.007     14.993    444.843    541.008    444.843    444.843    444.843
111.570    545.000    539.662      5.338    444.743    539.662    444.743    444.743    444.743
111.670    574.000    539.015     34.985    444.647    539.013    444.647    444.647    444.647
111.770    573.000    538.982     34.018    444.554    538.980    444.554    444.554    444.554
111.870    538.511    539.485     -0.974    444.464    539.482    444.464    444.464    444.464
111.970    587.553    540.450     47.103    444.379    540.446    444.379    444.379    444.379
112.070    574.000    541.813     32.187    444.296    541.808    444.296    444.296    444.296
112.170    535.997    543.522     -7.525    444.218    543.517    444.218    444.218    444.218
112.270    568.007    545.540     22.467    444.143    545.534    444.143    444.143    444.143
112.370    551.545    547.829      3.716    444.072    547.823    444.072    444.072    444.072
112.470    582.000    550.371     31.629    444.004    550.364    444.004    444.004    444.004
112.570    545.000    553.159     -8.159    443.941    553.152    443.941    443.941    443.941
112.670    599.741    556.202     43.539    443.881    556.194    443.881    443.881    443.881
112.770    558.000    559.520     -1.520    443.825    559.513    443.825    443.825    443.825
112.870    573.000    563.149      9.851    443.773    563.142    443.773    443.773    443.773
112.970    518.514    567.137    -48.623    443.726    567.130    443.726    443.726    443.726
113.070    569.000    571.548     -2.548    443.682    571.540    443.682    443.682    443.682
113.170    582.774    576.464      6.310    443.642    576.456    443.642    443.642    443.642
113.270    566.000    581.991    -15.991    443.607    581.982    443.607    443.607    443.607
113.370    579.000    588.263     -9.263    443.576    588.253    443.576    443.576    443.576
113.470    633.000    595.451     37.549    443.549    595.441    443.549    443.549    443.549
113.570    643.000    603.775     39.225    443.526    603.764    443.526    443.526    443.526
113.670    558.336    613.512    -55.175    443.508    613.499    443.508    443.508    443.508
113.770    656.000    625.011     30.989    443.494    624.996    443.494    443.494    443.494
113.870    635.535    638.713     -3.179    443.484    638.695    443.484    443.484    443.484
113.970    642.000    655.163    -13.163    443.480    655.142    443.480    443.480    443.480
114.070    639.000    675.031    -36.031    443.479    675.005    443.479    443.479    443.479
114.170    703.000    699.130      3.870    443.484    699.099    443.484    443.484    443.484
114.270    773.000    728.436     44.564    443.493    728.397    443.493    443.493    443.493
114.370    759.000    764.097     -5.097    443.506    764.050    443.506    443.506    443.506
114.470    778.000    807.450    -29.450    443.525    807.393    443.525    443.525    443.525
114.570    920.323    860.020     60.303    443.548    859.950    443.548    443.548    443.548
114.670    903.000    923.511    -20.511    443.576    923.426    443.576    443.576    443.576
114.770   1008.000    999.794      8.206    443.610    999.691    443.610    443.610    443.610
114.870   1092.000   1090.870      1.130    443.648   1090.747    443.648    443.648    443.648
114.970   1210.000   1198.821     11.179    443.691   1198.675    443.691    443.691    443.691
115.070   1379.000   1325.746     53.254    443.739   1325.575    443.739    443.739    443.739
115.170   1414.078   1473.675    -59.597    443.793   1473.475    443.793    443.793    443.793
115.270   1681.759   1644.467     37.292    443.852   1644.235    443.852    443.852    443.852
115.370   1900.723   1839.696     61.026    443.916   1839.432    443.916    443.916    443.916
115.470   2200.000   2060.527    139.473    443.985   2060.228    443.985    443.985    443.985
115.570   2209.966   2307.582    -97.616    444.060   2307.248    444.060    444.060    444.060
115.670   2491.003   2580.812    -89.809    444.140   2580.444    444.140    444.140    444.140
115.770   3040.000   2879.376    160.624    444.226   2878.975    444.226    444.226    444.226
115.870   3232.000   3201.536     30.464    444.317   3201.105    444.317    444.317    444.317
115.970   3618.000   3544.569     73.431    444.414   3544.112    444.414    444.414    444.414
116.070   3945.000   3904.710     40.290    444.516   3904.234    444.516    444.516    444.516
116.170   4348.000   4277.123     70.877    444.625   4276.635    444.625    444.625    444.625
116.270   4840.000   4655.894    184.106    444.739   4655.403    444.739    444.739    444.739
116.370   5056.000   5034.070     21.930    444.858   5033.587    444.858    444.858    444.858
116.470   5452.383   5403.723     48.660    444.984   5403.259    444.984    444.984    444.984
116.570   5704.000   5756.076    -52.076    445.116   5755.644    445.116    445.116    445.116
116.670   5960.848   6081.707   -120.859    445.254   6081.321    445.254    445.254    445.254
116.770   6508.314   6370.863    137.450    445.398   6370.537    445.398    445.398    445.398
116.870   6763.193   6613.927    149.266    445.548   6613.674    445.548    445.548    445.548
116.970   6744.000   6802.039    -58.039    445.704   6801.871    445.704    445.704    445.704
117.070   6965.000   6927.839     37.161    445.866   6927.766    445.866    445.866    445.866
117.170   6794.078   6986.210   -192.132    446.035   6986.239    446.035    446.035    446.035
117.270   6809.452   6974.876   -165.425    446.210   6975.007    446.210    446.210    446.210
117.370   6811.000   6894.676    -83.676    446.392   6894.905    446.392    446.392    446.392
117.470   6736.000   6749.453    -13.453    446.580   6749.773    446.580    446.580    446.580
117.570   6529.000   6545.577    -16.577    446.775   6545.976    446.775    446.775    446.775
117.670   6169.000   6291.239   -122.239    446.976   6291.704    446.976    446.976    446.976
117.770   6106.682   5995.696    110.986    447.184   5996.211    447.184    447.184    447.184
117.870   5837.124   5668.567    168.557    447.399   5669.117    447.399    447.399    447.399
117.970   5215.000   5319.310   -104.310    447.620   5319.879    447.620    447.620    447.620
118.070   4968.515   4956.951     11.564    447.849   4957.527    447.849    447.849    447.849
118.170   4607.000   4589.609     17.391    448.084   4590.177    448.084    448.084    448.084
118.270   4301.000   4224.498     76.502    448.327   4225.050    448.327    448.327    448.327
118.370   3923.876   3867.817     56.059    448.576   3868.343    448.576    448.576    448.576
118.470   3622.757   3524.699     98.058    448.833   3525.192    448.833    448.833    448.833
118.570   3160.597   3199.212    -38.615    449.097   3199.667    449.097    449.097    449.097
118.670   2984.232   2894.393     89.839    449.368   2894.806    449.368    449.368    449.368
118.770   2687.986   2612.314     75.672    449.646   2612.684    449.646    449.646    449.646
118.870   2409.211   2354.169     55.042    449.932   2354.496    449.932    449.932    449.932
118.970   2085.000   2120.384    -35.384    450.225   2120.668    450.225    450.225    450.225
119.070   1921.000   1910.727     10.273    450.526   1910.970    450.526    450.526    450.526
119.170   1686.568   1724.431    -37.863    450.835   1724.637    450.835    450.835    450.835
119.270   1586.666   1560.307     26.359    451.151   1560.479    451.151    451.151    451.151
119.370   1421.000   1416.855      4.145    451.474   1416.996    451.474    451.474    451.474
119.470   1281.000   1292.366    -11.366    451.806   1292.481    451.806    451.806    451.806
119.570   1149.000   1185.020    -36.020    452.146   1185.111    452.146    452.146    452.146
119.670   1033.156   1092.961    -59.805    452.493   1093.033    452.493    452.493    452.493
119.770    946.000   1014.370    -68.370    452.848   1014.427    452.848    452.848    452.848
119.870    925.851    947.518    -21.667    453.212    947.561    453.212    453.212    453.212
119.970    882.922    890.798     -7.876    453.584    890.832    453.584    453.584    453.584
120.070    880.000    842.758     37.242    453.963    842.784    453.963    453.963    453.963
120.170    802.000    802.105     -0.105    454.352    802.125    454.352    454.352    454.352
120.270    736.000    767.709    -31.709    454.748    767.725    454.748    454.748    454.748
120.370    751.000    738.601     12.399    455.153    738.614    455.153    455.153    455.153
120.470    727.000    713.956     13.044    455.566    713.967    455.566    455.566    455.566
120.570    642.000    693.083    -51.083    455.988    693.093    455.988    455.988    455.988
120.670    705.000    675.407     29.593    456.419    675.417    456.419    456.419    456.419
120.770    648.366    660.455    -12.089    456.858    660.465    456.858    456.858    456.858
120.870    617.079    647.839    -30.760    457.306    647.849    457.306    457.306    457.306
120.970    688.802    637.241     51.561    457.763    637.251    457.763    457.763    457.763
121.070    625.000    628.403     -3.403    458.229    628.414    458.229    458.229    458.229
121.170    641.000    621.114     19.886    458.704    621.125    458.704    458.704    458.704
121.270    596.000    615.200    -19.200    459.187    615.212    459.187    459.187    459.187
121.370    587.000    610.517    -23.517    459.680    610.530    459.680    459.680    459.680
121.470    572.000    606.945    -34.945    460.183    606.959    460.183    460.183    460.183
121.570    568.000    604.382    -36.382    460.694    604.397    460.694    460.694    460.694
121.670    580.000    602.735    -22.735    461.215    602.752    461.215    461.215    461.215
121.770    623.000    601.925     21.075    461.745    601.943    461.745    461.745    461.745
121.870    560.000    601.875    -41.875    462.285    601.895    462.285    462.285    462.285
121.970    578.000    602.512    -24.512    462.835    602.533    462.835    462.835    462.835
122.070    565.000    603.763    -38.763    463.394    603.786    463.394    463.394    463.394
122.170    600.000    605.552     -5.552    463.962    605.577    463.962    463.962    463.962
122.270    591.000    607.803    -16.803    464.541    607.831    464.541    464.541    464.541
122.370    592.000    610.433    -18.433    465.129    610.463    465.129    465.129    465.129
122.470    638.000    613.354     24.646    465.728    613.387    465.728    465.728    465.728
122.570    580.000    616.474    -36.474    466.336    616.509    466.336    466.336    466.336
122.670    666.326    619.693     46.634    466.955    619.731    466.955    466.955    466.955
122.770    631.000    622.905      8.095    467.584    622.946    467.584    467.584    467.584
122.870    615.983    626.002    -10.019    468.223    626.046    468.223    468.223    468.223
122.970    570.000    628.871    -58.871    468.872    628.918    468.872    468.872    468.872
123.070    641.000    631.400      9.600    469.532    631.449    469.532    469.532    469.532
123.170    663.228    633.482     29.746    470.202    633.534    470.202    470.202    470.202
123.270    636.000    635.019      0.981    470.883    635.074    470.883    470.883    470.883
123.370    615.766    635.930    -20.164    471.575    635.986    471.575    471.575    471.575
123.470    606.000    636.152    -30.152    472.277    636.210    472.277    472.277    472.277
123.570    619.053    635.651    -16.598    472.991    635.710    472.991    472.991    472.991
123.670    675.000    634.417     40.583    473.715    634.477    473.715    473.715    473.715
123.770    632.000    632.468     -0.468    474.450    632.527    474.450    474.450    474.450
123.870    641.000    629.843     11.157    475.196    629.903    475.196    475.196    475.196
123.970    576.996    626.603    -49.606    475.953    626.661    475.953    475.953    475.953
124.070    610.906    622.818    -11.912    476.722    622.876    476.722    476.722    476.722
124.170    686.000    618.570     67.430    477.502    618.626    477.502    477.502    477.502
124.270    630.000    613.942     16.058    478.293    613.996    478.293    478.293    478.293
124.370    602.117    609.020     -6.904    479.096    609.071    479.096    479.096    479.096
124.470    564.301    603.888    -39.587    479.910    603.937    479.910    479.910    479.910
124.570    621.000    598.626     22.374    480.736    598.672    480.736    480.736    480.736
124.670    554.684    593.312    -38.629    481.574    593.356    481.574    481.574    481.574
124.770    612.000    588.018     23.982    482.423    588.058    482.423    482.423    482.423
124.870    579.048    582.807     -3.759    483.285    582.845    483.285    483.285    483.285
124.970    621.000    577.740     43.260    484.158    577.774    484.158    484.158    484.158
