neutron_powder_diffraction_0020
R_wp: 3.848
Temperature (K): 496.730
Counts: 83539.00
Wavelength (Ã…): 2.52098
COMMENTS
Test file for demonstrating the .xyy file format in Reel1.0
END OF HEADER
   tth       Y_obs     Y_calc      Y_res    Background    Phase_1_Nuc    Phase_1_Mag    Phase_2_Nuc    Phase_2_Mag
  9.970    776.000    721.372     54.628    719.662    720.707    720.326    719.662    719.662
 10.070    752.229    720.370     31.858    718.569    719.698    719.241    718.569    718.569
 10.170    721.373    719.385      1.987    717.482    718.706    718.160    717.482    717.482
 10.270    726.000    718.419      7.581    716.400    717.733    717.085    716.400    716.400
 10.370    748.000    717.475     30.525    715.322    716.781    716.015    715.322    715.322
 10.470    728.000    716.556     11.444    714.251    715.855    714.951    714.251    714.251
 10.570    739.110    715.667     23.443    713.184    714.958    713.892    713.184    713.184
 10.670    741.000    714.814     26.186    712.122    714.097    712.838    712.122    712.122
 10.770    768.000    714.004     53.996    711.066    713.279    711.789    711.066    711.066
 10.870    754.000    713.247     40.753    710.015    712.514    710.746    710.015    710.015
 10.970    752.000    712.558     39.442    708.969    711.816    709.708    708.969    708.969
 11.070    711.000    711.954     -0.954    707.928    711.204    708.676    707.928    707.928
 11.170    701.304    711.464    -10.160    706.892    710.705    707.649    706.892    706.892
 11.270    690.000    711.126    -21.126    705.861    710.358    706.626    705.861    705.861
 11.370    739.127    711.005     28.123    704.836    710.228    705.610    704.836    704.836
 11.470    757.000    711.218     45.782    703.816    710.432    704.598    703.816    703.816
 11.570    749.000    712.023     36.977    702.801    711.226    703.592    702.801    702.801
 11.670    749.501    713.979     35.522    701.791    713.172    702.592    701.791    701.791
 11.770    811.000    718.227     92.773    700.786    717.407    701.596    700.786    700.786
 11.870    735.421    726.655      8.766    699.786    725.820    700.606    699.786    699.786
 11.970    791.000    741.501     49.499    698.791    740.647    699.621    698.791    698.791
 12.070    765.948    763.892      2.056    697.801    763.016    698.641    697.801    697.801
 12.170    832.000    791.140     40.860    696.817    790.238    697.666    696.817    696.817
 12.270    868.000    813.860     54.140    695.837    812.933    696.697    695.837    695.837
 12.370    825.508    818.276      7.232    694.863    817.336    695.733    694.863    694.863
 12.470    820.558    800.234     20.324    693.894    799.293    694.775    693.894    693.894
 12.570    757.000    771.200    -14.200    692.929    770.264    693.821    692.929    692.929
 12.670    750.000    743.962      6.038    691.970    743.031    692.873    691.970    691.970
 12.770    727.000    723.901      3.099    691.016    722.969    691.930    691.016    691.016
 12.870    698.605    711.076    -12.471    690.067    710.139    690.992    690.067    690.067
 12.970    681.000    703.428    -22.428    689.123    702.483    690.060    689.123    689.123
 13.070    727.997    698.788     29.209    688.184    697.834    689.132    688.184    688.184
 13.170    748.000    695.689     52.311    687.249    694.724    688.210    687.249    687.249
 13.270    694.611    693.355      1.256    686.320    692.379    687.293    686.320    686.320
 13.370    742.590    691.435     51.155    685.396    690.447    686.382    685.396    685.396
 13.470    656.702    689.772    -33.070    684.477    688.771    685.475    684.477    684.477
 13.570    681.000    688.282     -7.282    683.563    687.268    684.574    683.563    683.563
 13.670    662.000    686.919    -24.919    682.654    685.893    683.678    682.654    682.654
 13.770    653.000    685.652    -32.652    681.750    684.613    682.788    681.750    681.750
 13.870    679.000    684.461     -5.461    680.851    683.408    681.902    680.851    680.851
 13.970    755.000    683.343     71.657    679.956    682.275    681.023    679.956    679.956
 14.070    665.466    682.271    -16.805    679.067    681.189    680.148    679.067    679.067
 14.170    670.460    681.224    -10.764    678.183    680.127    679.278    678.183    678.183
 14.270    727.838    680.208     47.630    677.303    679.096    678.414    677.303    677.303
 14.370    633.000    679.219    -46.219    676.429    678.092    677.554    676.429    676.429
 14.470    729.366    678.253     51.113    675.559    677.111    676.700    675.559    675.559
 14.570    683.000    677.307      5.693    674.694    676.149    675.852    674.694    674.694
 14.670    682.254    676.379      5.874    673.834    675.205    675.008    673.834    673.834
 14.770    683.000    675.467      7.533    672.979    674.276    674.170    672.979    672.979
 14.870    621.682    674.569    -52.887    672.129    673.361    673.337    672.129    672.129
 14.970    602.000    673.683    -71.683    671.284    672.458    672.509    671.284    671.284
 15.070    621.000    672.813    -51.813    670.444    671.570    671.686    670.444    670.444
 15.170    671.000    671.953     -0.953    669.608    670.692    670.869    669.608    669.608
 15.270    721.739    671.100     50.639    668.778    669.821    670.057    668.778    668.778
 15.370    637.000    670.257    -33.257    667.952    668.959    669.250    667.952    667.952
 15.470    667.000    669.423     -2.423    667.131    668.106    668.448    667.131    667.131
 15.570    672.000    668.598      3.402    666.315    667.260    667.652    666.315    666.315
 15.670    680.717    667.780     12.937    665.503    666.423    666.860    665.503    665.503
 15.770    714.000    666.971     47.029    664.697    665.593    666.075    664.697    664.697
 15.870    662.641    666.169     -3.528    663.895    664.769    665.294    663.895    663.895
 15.970    640.000    665.374    -25.374    663.098    663.953    664.519    663.098    663.098
 16.070    716.048    664.587     51.461    662.306    663.144    663.749    662.306    662.306
 16.170    621.014    663.807    -42.793    661.518    662.341    662.984    661.518    661.518
 16.270    679.000    663.034     15.966    660.735    661.544    662.224    660.735    660.735
 16.370    653.000    662.270     -9.270    659.957    660.757    661.470    659.957    659.957
 16.470    646.000    661.514    -15.514    659.184    659.977    660.722    659.184    659.184
 16.570    683.000    660.761     22.239    658.416    659.199    659.978    658.416    658.416
 16.670    608.000    660.014    -52.014    657.652    658.426    659.240    657.652    657.652
 16.770    612.451    659.273    -46.822    656.893    657.659    658.507    656.893    656.893
 16.870    705.000    658.539     46.461    656.138    656.897    657.780    656.138    656.138
 16.970    642.799    657.810    -15.011    655.389    656.142    657.057    655.389    655.389
 17.070    706.863    657.092     49.771    654.644    655.395    656.341    654.644    654.644
 17.170    639.000    656.389    -17.389    653.903    654.662    655.630    653.903    653.903
 17.270    659.000    655.696      3.304    653.168    653.938    654.925    653.168    653.168
 17.370    671.000    655.057     15.943    652.437    653.266    654.227    652.437    652.437
 17.470    639.000    654.367    -15.367    651.710    652.545    653.532    651.710    651.710
 17.570    627.155    653.689    -26.534    650.988    651.835    652.843    650.988    650.988
 17.670    618.107    653.022    -34.916    650.271    651.135    652.159    650.271    650.271
 17.770    635.000    652.345    -17.345    649.559    650.424    651.480    649.559    649.559
 17.870    610.330    651.672    -41.342    648.851    649.716    650.807    648.851    648.851
 17.970    671.522    651.005     20.516    648.148    649.013    650.140    648.148    648.148
 18.070    706.559    650.345     56.214    647.449    648.316    649.478    647.449    647.449
 18.170    689.602    649.690     39.912    646.755    647.623    648.822    646.755    646.755
 18.270    597.000    649.042    -52.042    646.065    646.935    648.171    646.065    646.065
 18.370    675.000    648.399     26.601    645.380    646.253    647.526    645.380    645.380
 18.470    634.000    647.763    -13.763    644.699    645.575    646.887    644.699    644.699
 18.570    612.000    647.133    -35.133    644.023    644.903    646.254    644.023    644.023
 18.670    607.270    646.509    -39.239    643.352    644.235    645.626    643.352    643.352
 18.770    603.000    645.895    -42.895    642.685    643.576    645.004    642.685    642.685
 18.870    612.039    645.296    -33.257    642.022    642.930    644.389    642.022    642.022
 18.970    670.000    644.693     25.307    641.364    642.279    643.779    641.364    641.364
 19.070    630.000    644.094    -14.094    640.711    641.631    643.174    640.711    640.711
 19.170    629.000    643.503    -14.503    640.062    640.988    642.576    640.062    640.062
 19.270    621.000    642.922    -21.922    639.417    640.353    641.986    639.417    639.417
 19.370    643.000    642.395      0.605    638.777    639.756    641.416    638.777    638.777
 19.470    644.000    641.851      2.149    638.142    639.148    640.845    638.142    638.142
 19.570    644.627    641.291      3.336    637.510    638.529    640.272    637.510    637.510
 19.670    687.314    640.748     46.566    636.884    637.926    639.706    636.884    636.884
 19.770    607.097    640.210    -33.112    636.261    637.325    639.146    636.261    636.261
 19.870    598.350    639.667    -41.317    635.643    636.718    638.592    635.643    635.643
 19.970    613.000    639.132    -26.132    635.030    636.117    638.044    635.030    635.030
 20.070    625.000    638.609    -13.609    634.420    635.525    637.504    634.420    634.420
 20.170    612.655    638.120    -25.464    633.815    634.954    636.981    633.815    633.815
 20.270    626.000    637.645    -11.645    633.215    634.389    636.471    633.215    633.215
 20.370    624.000    637.156    -13.156    632.619    633.823    635.952    632.619    632.619
 20.470    616.000    636.704    -20.704    632.027    633.289    635.441    632.027    632.027
 20.570    583.021    636.242    -53.221    631.439    632.746    634.936    631.439    631.439
 20.670    592.555    635.788    -43.233    630.856    632.206    634.438    630.856    630.856
 20.770    664.000    635.320     28.680    630.277    631.650    633.947    630.277    630.277
 20.870    620.000    634.894    -14.894    629.703    631.131    633.465    629.703    629.703
 20.970    609.000    634.449    -25.449    629.132    630.591    632.990    629.132    629.132
 21.070    682.899    634.006     48.893    628.566    630.049    632.524    628.566    628.566
 21.170    578.411    633.582    -55.171    628.004    629.516    632.070    628.004    628.004
 21.270    671.000    633.161     37.839    627.447    628.986    631.621    627.447    627.447
 21.370    649.704    632.750     16.954    626.893    628.464    631.179    626.893    626.893
 21.470    605.000    632.356    -27.356    626.344    627.954    630.746    626.344    626.344
 21.570    594.000    631.963    -37.963    625.799    627.440    630.322    625.799    625.799
 21.670    597.000    631.578    -34.578    625.259    626.930    629.907    625.259    625.259
 21.770    634.000    631.205      2.795    624.722    626.426    629.501    624.722    624.722
 21.870    612.000    630.845    -18.845    624.190    625.929    629.105    624.190    624.190
 21.970    636.000    630.497      5.503    623.661    625.438    628.720    623.661    623.661
 22.070    581.629    630.165    -48.536    623.137    624.957    628.345    623.137    623.137
 22.170    659.000    629.845     29.155    622.618    624.481    627.981    622.618    622.618
 22.270    622.000    629.540     -7.540    622.102    624.013    627.629    622.102    622.102
 22.370    677.505    629.252     48.253    621.590    623.554    627.288    621.590    621.590
 22.470    637.000    628.983      8.017    621.083    623.106    626.960    621.083    621.083
 22.570    594.000    628.731    -34.731    620.579    622.665    626.645    620.579    620.579
 22.670    611.000    628.498    -17.498    620.080    622.235    626.343    620.080    620.080
 22.770    604.000    628.294    -24.294    619.584    621.822    626.057    619.584    619.584
 22.870    625.000    628.108     -3.108    619.093    621.417    625.784    619.093    619.093
 22.970    657.000    627.946     29.054    618.606    621.026    625.526    618.606    618.606
 23.070    609.000    627.813    -18.813    618.123    620.652    625.284    618.123    618.123
 23.170    585.000    627.712    -42.712    617.644    620.296    625.060    617.644    617.644
 23.270    650.000    627.647     22.353    617.169    619.963    624.854    617.169    617.169
 23.370    607.000    627.625    -20.625    616.698    619.655    624.668    616.698    616.698
 23.470    580.507    627.650    -47.143    616.231    619.380    624.501    616.231    616.231
 23.570    661.000    627.731     33.269    615.767    619.143    624.356    615.767    615.767
 23.670    591.334    627.880    -36.546    615.308    618.955    624.234    615.308    615.308
 23.770    662.715    628.110     34.605    614.853    618.828    624.136    614.853    614.853
 23.870    663.691    628.444     35.248    614.402    618.782    624.065    614.402    614.402
 23.970    611.000    628.909    -17.909    613.954    618.844    624.021    613.954    613.954
 24.070    627.593    629.555     -1.961    613.511    619.060    624.008    613.511    613.511
 24.170    589.000    630.469    -41.469    613.072    619.515    624.028    613.072    613.072
 24.270    627.205    631.838     -4.633    612.636    620.394    624.083    612.636    612.636
 24.370    627.000    634.057     -7.057    612.204    622.090    624.176    612.204    612.204
 24.470    629.367    637.900     -8.534    611.776    625.373    624.311    611.776    611.776
 24.570    621.000    644.589    -23.589    611.352    631.463    624.490    611.352    611.352
 24.670    711.324    655.508     55.816    610.932    641.741    624.719    610.932    610.932
 24.770    659.000    671.290    -12.290    610.516    656.835    625.001    610.516    610.516
 24.870    648.580    690.186    -41.606    610.103    674.990    625.343    610.103    610.103
 24.970    721.000    706.297     14.703    609.695    690.296    625.750    609.695    609.695
 25.070    703.000    710.994     -7.994    609.290    694.111    626.230    609.290    609.290
 25.170    722.000    701.139     20.861    608.889    683.289    626.790    608.889    608.889
 25.270    708.000    683.650     24.350    608.491    664.740    627.438    608.491    608.491
 25.370    722.000    666.855     55.145    608.098    646.789    628.187    608.098    608.098
 25.470    644.000    654.576    -10.576    607.708    633.251    629.048    607.708    607.708
 25.570    696.031    647.167     48.864    607.322    624.462    630.036    607.322    607.322
 25.670    680.000    643.469     36.531    606.939    619.247    631.166    606.939    606.939
 25.770    702.000    642.108     59.892    606.561    616.212    632.459    606.561    606.561
 25.870    621.000    642.091    -21.091    606.186    614.340    633.939    606.186    606.186
 25.970    652.000    642.878      9.122    605.814    613.061    635.632    605.814    605.814
 26.070    697.437    644.234     53.203    605.447    612.107    637.573    605.447    605.447
 26.170    681.000    646.080     34.920    605.083    611.357    639.804    605.083    605.083
 26.270    605.000    648.411    -43.411    604.722    610.758    642.374    604.722    604.722
 26.370    680.871    651.238     29.633    604.366    610.265    645.336    604.366    604.366
 26.470    689.982    654.626     35.356    604.013    609.866    648.770    604.013    604.013
 26.570    634.037    658.659    -24.622    603.663    609.550    652.769    603.663    603.663
 26.670    667.000    663.451      3.549    603.317    609.313    657.452    603.317    603.317
 26.770    659.000    669.153    -10.153    602.975    609.154    662.970    602.975    602.975
 26.870    718.677    675.965     42.712    602.636    609.078    669.518    602.636    602.636
 26.970    654.000    684.155    -30.155    602.301    609.093    677.357    602.301    602.301
 27.070    690.000    694.083     -4.083    601.969    609.214    686.831    601.969    601.969
 27.170    701.000    706.242     -5.242    601.641    609.463    698.412    601.641    601.641
 27.270    684.000    721.319    -37.319    601.317    609.871    712.754    601.317    601.317
 27.370    700.446    740.295    -39.849    600.996    610.484    730.794    600.996    600.996
 27.470    705.000    764.631    -59.631    600.678    611.372    753.921    600.678    600.678
 27.570    851.114    796.664     54.450    600.364    612.647    784.361    600.364    600.364
 27.670    837.000    841.179     -4.179    600.053    614.536    826.670    600.053    600.053
 27.770    862.954    911.369    -48.415    599.746    617.667    893.410    599.746    599.746
 27.870   1075.000   1048.086     26.914    599.442    623.971   1023.492    599.442    599.442
 27.970   1326.000   1361.332    -35.332    599.142    638.646   1321.693    599.142    599.142
 28.070   2116.616   2068.907     47.709    598.845    671.976   1995.482    598.845    598.845
 28.170   3324.000   3429.807   -105.807    598.552    736.199   3291.584    598.552    598.552
 28.270   5398.000   5468.801    -70.801    598.261    832.519   5233.616    598.261    598.261
 28.370   7629.848   7609.808     20.041    597.975    933.841   7272.786    597.975    597.975
 28.470   8691.311   8654.813     36.498    597.691    983.855   8267.653    597.691    597.691
 28.570   7941.277   7832.355    108.922    597.411    946.671   7482.622    597.411    597.411
 28.670   6116.000   5947.598    168.402    597.135    861.352   5683.358    597.135    597.135
 28.770   4370.000   4305.724     64.276    596.861    791.218   4111.499    596.861    596.861
 28.870   3569.162   3603.876    -34.714    596.591    770.803   3429.742    596.591    596.591
 28.970   3815.000   3819.615     -4.615    596.324    798.660   3617.261    596.324    596.324
 29.070   4448.000   4450.202     -2.202    596.061    846.314   4199.912    596.061    596.061
 29.170   4652.450   4780.308   -127.858    595.800    870.595   4505.585    595.800    595.800
 29.270   4378.000   4354.884     23.116    595.543    843.530   4107.134    595.543    595.543
 29.370   3492.218   3406.673     85.545    595.290    781.348   3220.929    595.290    595.290
 29.470   2371.000   2420.821    -49.821    595.039    716.452   2299.685    595.039    595.039
 29.570   1674.307   1679.915     -5.608    594.792    667.660   1607.237    594.792    594.792
 29.670   1287.000   1230.041     56.959    594.548    638.076   1186.622    594.548    594.548
 29.770    946.044    993.498    -47.454    594.307    622.585    965.274    594.307    594.307
 29.870    931.000    875.305     55.695    594.069    614.919    854.480    594.069    594.069
 29.970    857.000    812.020     44.980    593.834    610.897    794.970    593.834    593.834
 30.070    789.000    772.834     16.166    593.603    608.497    757.946    593.603    593.603
 30.170    775.000    745.375     29.625    593.374    606.927    731.826    593.374    593.374
 30.270    776.000    724.894     51.106    593.149    605.910    712.134    593.149    593.149
 30.370    705.000    709.378     -4.378    592.927    605.394    696.911    592.927    592.927
 30.470    726.000    698.016     27.984    592.708    605.509    685.212    592.708    592.708
 30.570    742.000    690.962     51.038    592.492    606.676    676.772    592.492    592.492
 30.670    647.554    689.473    -41.919    592.279    609.747    671.994    592.279    592.279
 30.770    717.984    695.744     22.241    592.069    615.962    671.831    592.069    592.069
 30.870    720.389    711.735      8.654    591.863    626.403    677.160    591.863    591.863
 30.970    767.780    736.722     31.057    591.659    640.816    687.513    591.659    591.659
 31.070    730.065    764.147    -34.082    591.458    656.093    699.443    591.458    591.458
 31.170    819.000    780.407     38.593    591.260    665.690    705.901    591.260    591.260
 31.270    779.000    773.197      5.803    591.066    663.680    700.514    591.066    591.066
 31.370    757.000    745.009     11.991    590.874    651.305    684.525    590.874    590.874
 31.470    664.369    709.579    -45.210    590.685    635.264    664.965    590.685    590.685
 31.570    741.000    678.485     62.515    590.499    621.201    647.762    590.499    590.499
 31.670    610.911    656.229    -45.317    590.316    611.322    635.210    590.316    590.316
 31.770    674.000    642.275     31.725    590.136    605.384    627.018    590.136    590.136
 31.870    605.680    634.089    -28.409    589.959    602.172    621.870    589.959    589.959
 31.970    644.000    629.217     14.783    589.784    600.507    618.490    589.784    589.784
 32.070    623.420    626.068     -2.648    589.613    599.627    616.050    589.613    589.613
 32.170    639.000    623.832     15.168    589.444    599.150    614.123    589.444    589.444
 32.270    637.000    622.156     14.844    589.279    598.913    612.519    589.279    589.279
 32.370    667.000    620.894     46.106    589.116    598.856    611.152    589.116    589.116
 32.470    641.000    619.982     21.018    588.956    598.955    609.980    588.956    588.956
 32.570    615.000    619.392     -4.392    588.798    599.208    608.980    588.798    588.798
 32.670    572.583    619.119    -46.536    588.644    599.622    608.138    588.644    588.644
 32.770    614.000    619.178     -5.178    588.492    600.219    607.449    588.492    588.492
 32.870    649.000    619.600     29.400    588.343    601.028    606.913    588.343    588.343
 32.970    616.000    620.443     -4.443    588.197    602.096    606.541    588.197    588.197
 33.070    677.150    621.791     55.360    588.053    603.491    606.351    588.053    588.053
 33.170    598.889    623.776    -24.887    587.913    605.312    606.374    587.913    587.913
 33.270    594.308    626.612    -32.304    587.775    607.717    606.667    587.775    587.775
 33.370    645.000    630.693     14.307    587.639    610.993    607.335    587.639    587.639
 33.470    708.000    636.848     71.152    587.506    615.745    608.605    587.506    587.506
 33.570    683.000    646.920     36.080    587.376    623.305    610.985    587.376    587.376
 33.670    659.000    664.753     -5.753    587.249    636.455    615.537    587.249    587.249
 33.770    721.000    697.244     23.756    587.124    660.183    624.168    587.124    587.124
 33.870    757.736    754.178      3.558    587.002    701.568    639.586    587.002    587.002
 33.970    824.000    844.941    -20.941    586.883    767.397    664.388    586.883    586.883
 34.070    923.000    971.085    -48.085    586.766    858.797    699.004    586.766    586.766
 34.170   1117.027   1115.824      1.203    586.651    963.633    738.785    586.651    586.651
 34.270   1220.000   1235.326    -15.326    586.539   1050.218    771.599    586.539    586.539
 34.370   1282.000   1270.361     11.639    586.430   1075.718    781.045    586.430    586.430
 34.470   1242.000   1197.558     44.442    586.323   1023.226    760.648    586.323    586.323
 34.570   1022.886   1059.976    -37.090    586.219    923.871    722.326    586.219    586.219
 34.670    950.477    917.025     33.452    586.118    820.619    682.529    586.118    586.118
 34.770    793.000    802.372     -9.372    586.018    737.818    650.577    586.018    586.018
 34.870    716.000    724.405     -8.405    585.922    681.535    628.794    585.922    585.922
 34.970    729.000    677.332     51.668    585.827    647.584    615.576    585.827    585.827
 35.070    711.000    650.812     60.188    585.736    628.487    608.060    585.736    585.736
 35.170    673.764    635.875     37.889    585.646    617.758    603.762    585.646    585.646
 35.270    660.000    626.842     33.158    585.559    611.290    601.110    585.559    585.559
 35.370    640.000    620.777     19.223    585.475    606.959    599.291    585.475    585.475
 35.470    637.000    616.334     20.666    585.392    603.793    597.933    585.392    585.392
 35.570    641.455    612.904     28.550    585.313    601.350    596.866    585.313    585.313
 35.670    607.000    610.180     -3.180    585.235    599.407    596.007    585.235    585.235
 35.770    605.000    607.979     -2.979    585.160    597.833    595.305    585.160    585.160
 35.870    638.000    606.182     31.818    585.088    596.540    594.729    585.088    585.088
 35.970    622.130    604.703     17.427    585.017    595.465    594.254    585.017    585.017
 36.070    627.000    603.482     23.518    584.949    594.564    593.867    584.949    584.949
 36.170    600.000    602.474     -2.474    584.883    593.801    593.555    584.883    584.883
 36.270    609.000    601.647      7.353    584.820    593.153    593.313    584.820    584.820
 36.370    620.000    600.978     19.022    584.758    592.600    593.136    584.758    584.758
 36.470    635.000    600.452     34.548    584.699    592.127    593.023    584.699    584.699
 36.570    613.000    600.059     12.941    584.643    591.724    592.977    584.643    584.643
 36.670    635.000    599.795     35.205    584.588    591.383    593.001    584.588    584.588
 36.770    594.000    599.665     -5.665    584.536    591.098    593.103    584.536    584.536
 36.870    620.000    599.676     20.324    584.486    590.866    593.295    584.486    584.486
 36.970    560.969    599.846    -38.877    584.438    590.690    593.594    584.438    584.438
 37.070    638.000    600.208     37.792    584.392    590.574    594.025    584.392    584.392
 37.170    608.000    600.816      7.184    584.348    590.538    594.626    584.348    584.348
 37.270    595.263    601.773     -6.510    584.307    590.622    595.457    584.307    584.307
 37.370    604.000    603.279      0.721    584.267    590.911    596.635    584.267    584.267
 37.470    593.000    605.714    -12.714    584.230    591.544    598.399    584.230    584.230
 37.570    639.000    609.771     29.229    584.195    592.709    601.256    584.195    584.195
 37.670    592.000    616.618    -24.618    584.162    594.589    606.190    584.162    584.162
 37.770    691.000    627.950     63.050    584.131    597.235    614.845    584.131    584.131
 37.870    589.000    645.704    -56.704    584.102    600.405    629.398    584.102    584.102
 37.970    656.000    671.118    -15.118    584.075    603.362    651.828    584.075    584.075
 38.070    689.541    703.318    -13.778    584.050    604.916    682.448    584.050    584.050
 38.170    733.000    738.214     -5.214    584.027    604.305    717.931    584.027    584.027
 38.270    747.000    767.281    -20.281    584.006    602.015    749.268    584.006    584.006
 38.370    733.000    777.812    -44.812    583.987    599.050    762.748    583.987    583.987
 38.470    788.645    762.556     26.089    583.970    596.123    750.407    583.970    583.970
 38.570    712.000    729.253    -17.253    583.955    593.650    719.564    583.955    583.955
 38.670    740.537    691.744     48.793    583.942    591.804    683.889    583.942    583.942
 38.770    646.000    659.312    -13.312    583.931    590.548    652.701    583.931    583.931
 38.870    618.682    635.422    -16.740    583.922    589.742    629.606    583.922    583.922
 38.970    580.000    619.775    -39.775    583.914    589.242    614.450    583.914    583.914
 39.070    561.000    610.335    -49.335    583.909    588.930    605.315    583.909    583.909
 39.170    591.000    604.836    -13.836    583.905    588.732    600.011    583.905    583.905
 39.270    582.000    601.554    -19.554    583.903    588.600    596.858    583.903    583.903
 39.370    634.000    599.445     34.555    583.903    588.511    594.838    583.903    583.903
 39.470    602.591    597.965      4.626    583.905    588.451    593.419    583.905    583.905
 39.570    620.000    596.855     23.145    583.909    588.413    592.350    583.909    583.909
 39.670    628.000    595.988     32.012    583.914    588.394    591.509    583.914    583.914
 39.770    587.929    595.298     -7.370    583.922    588.390    590.830    583.922    583.922
 39.870    542.349    594.741    -52.392    583.931    588.398    590.273    583.931    583.931
 39.970    632.000    594.287     37.713    583.941    588.418    589.811    583.941    583.941
 40.070    590.000    593.923     -3.923    583.954    588.453    589.425    583.954    583.954
 40.170    606.000    593.630     12.370    583.968    588.501    589.098    583.968    583.968
 40.270    625.000    593.397     31.603    583.984    588.560    588.821    583.984    583.984
 40.370    580.000    593.215    -13.215    584.002    588.632    588.584    584.002    584.002
 40.470    589.000    593.077     -4.077    584.021    588.717    588.381    584.021    584.021
 40.570    610.000    592.980     17.020    584.042    588.815    588.207    584.042    584.042
 40.670    657.000    592.920     64.080    584.065    588.928    588.057    584.065    584.065
 40.770    623.000    592.896     30.104    584.089    589.056    587.929    584.089    584.089
 40.870    614.000    592.906     21.094    584.115    589.202    587.819    584.115    584.115
 40.970    575.000    592.950    -17.950    584.142    589.368    587.725    584.142    584.142
 41.070    619.000    593.031     25.969    584.171    589.558    587.645    584.171    584.171
 41.170    544.000    593.150    -49.150    584.202    589.774    587.579    584.202    584.202
 41.270    605.275    593.311     11.965    584.234    590.021    587.525    584.234    584.234
 41.370    561.738    593.519    -31.781    584.268    590.306    587.482    584.268    584.268
 41.470    619.000    593.782     25.218    584.303    590.638    587.449    584.303    584.303
 41.570    547.000    594.111    -47.111    584.340    591.025    587.427    584.340    584.340
 41.670    572.572    594.519    -21.947    584.379    591.484    587.414    584.379    584.379
 41.770    577.383    595.028    -17.644    584.418    592.035    587.412    584.418    584.418
 41.870    570.537    595.670    -25.133    584.460    592.710    587.421    584.460    584.460
 41.970    603.000    596.506      6.494    584.503    593.567    587.444    584.503    584.503
 42.070    631.000    597.649     33.351    584.547    594.716    587.483    584.547    584.547
 42.170    630.541    599.335     31.206    584.592    596.383    587.548    584.592    584.592
 42.270    565.669    602.011    -36.342    584.640    599.000    587.655    584.640    584.640
 42.370    628.000    606.446     21.554    584.688    603.305    587.835    584.688    584.688
 42.470    611.680    613.752     -2.072    584.738    610.370    588.129    584.738    584.738
 42.570    663.000    625.186     37.814    584.789    621.403    588.586    584.789    584.789
 42.670    639.313    641.631     -2.318    584.842    637.254    589.240    584.842    584.842
 42.770    643.000    662.774    -19.774    584.896    657.622    590.079    584.896    584.896
 42.870    708.000    686.116     21.884    584.951    680.103    591.005    584.951    584.951
 42.970    752.189    706.058     46.131    585.008    699.314    591.804    585.008    585.008
 43.070    687.000    714.812    -27.812    585.066    707.761    592.176    585.066    585.066
 43.170    657.000    707.940    -50.940    585.125    701.174    591.948    585.125    585.125
 43.270    648.000    689.133    -41.133    585.186    683.105    591.265    585.186    585.186
 43.370    683.000    666.085     16.915    585.248    660.952    590.420    585.248    585.248
 43.470    662.927    644.717     18.209    585.311    640.414    589.643    585.311    585.311
 43.570    675.930    627.862     48.067    585.375    624.214    589.043    585.375    585.375
 43.670    647.000    616.046     30.954    585.440    612.860    588.640    585.440    585.440
 43.770    660.000    608.488     51.512    585.507    605.601    588.403    585.507    585.507
 43.870    549.661    603.949    -54.288    585.575    601.244    588.286    585.575    585.575
 43.970    606.000    601.287      4.713    585.644    598.692    588.244    585.644    585.644
 44.070    595.000    599.692     -4.692    585.715    597.165    588.245    585.715    585.715
 44.170    584.000    598.682    -14.682    585.786    596.199    588.272    585.786    585.786
 44.270    617.384    598.002     19.381    585.859    595.549    588.314    585.859    585.859
 44.370    637.000    597.526     39.474    585.932    595.093    588.366    585.932    585.932
 44.470    614.163    597.188     16.974    586.007    594.770    588.427    586.007    586.007
 44.570    598.125    596.954      1.171    586.083    594.544    588.495    586.083    586.083
 44.670    565.000    596.801    -31.801    586.160    594.394    588.568    586.160    586.160
 44.770    602.504    596.714      5.790    586.238    594.306    588.647    586.238    586.238
 44.870    576.911    596.681    -19.770    586.317    594.268    588.731    586.317    586.317
 44.970    638.490    596.694     41.797    586.398    594.273    588.819    586.398    586.398
 45.070    645.000    596.747     48.253    586.479    594.314    588.912    586.479    586.479
 45.170    651.000    596.836     54.164    586.561    594.388    589.010    586.561    586.561
 45.270    642.000    596.957     45.043    586.644    594.490    589.112    586.644    586.644
 45.370    590.798    597.108     -6.309    586.729    594.618    589.218    586.729    586.729
 45.470    549.000    597.286    -48.286    586.814    594.771    589.329    586.814    586.814
 45.570    602.321    597.492      4.829    586.900    594.947    589.445    586.900    586.900
 45.670    574.666    597.724    -23.058    586.987    595.145    589.566    586.987    586.987
 45.770    536.000    597.983    -61.983    587.075    595.366    589.691    587.075    587.075
 45.870    557.237    598.269    -41.032    587.164    595.611    589.822    587.164    587.164
 45.970    603.000    598.584      4.416    587.254    595.878    589.959    587.254    587.254
 46.070    614.000    598.928     15.072    587.345    596.170    590.101    587.345    587.345
 46.170    589.000    599.304    -10.304    587.436    596.489    590.251    587.436    587.436
 46.270    649.827    599.715     50.111    587.529    596.837    590.407    587.529    587.529
 46.370    648.055    600.165     47.890    587.622    597.216    590.570    587.622    587.622
 46.470    587.000    600.658    -13.658    587.716    597.631    590.743    587.716    587.716
 46.570    624.000    601.199     22.801    587.812    598.086    590.924    587.812    587.812
 46.670    620.000    601.797     18.203    587.907    598.587    591.116    587.907    587.907
 46.770    572.606    602.461    -29.855    588.004    599.143    591.321    588.004    588.004
 46.870    564.000    603.204    -39.204    588.101    599.765    591.539    588.101    588.101
 46.970    592.000    604.044    -12.044    588.200    600.469    591.773    588.200    588.200
 47.070    594.138    605.011    -10.873    588.298    601.280    592.028    588.298    588.298
 47.170    620.000    606.158     13.842    588.398    602.245    592.309    588.398    588.398
 47.270    625.547    607.583     17.964    588.499    603.449    592.629    588.499    588.499
 47.370    589.000    609.467    -20.467    588.600    605.055    593.008    588.600    588.600
 47.470    582.753    612.126    -29.372    588.702    607.339    593.482    588.702    588.702
 47.570    663.852    616.047     47.805    588.804    610.736    594.107    588.804    588.804
 47.670    589.895    621.879    -31.984    588.907    615.819    594.955    588.907    588.907
 47.770    661.000    630.301     30.699    589.011    623.190    596.104    589.011    589.011
 47.870    643.000    641.763      1.237    589.116    633.247    597.606    589.116    589.116
 47.970    704.335    656.094     48.241    589.221    645.837    599.443    589.221    589.221
 48.070    694.000    672.061     21.939    589.326    659.861    601.482    589.326    589.326
 48.170    656.000    686.959    -30.959    589.433    672.913    603.426    589.433    589.433
 48.270    706.000    696.852      9.148    589.540    681.494    604.841    589.540    589.540
 48.370    692.000    698.471     -6.471    589.647    682.692    605.369    589.647    589.647
 48.470    698.000    691.827      6.173    589.755    676.515    605.018    589.755    589.755
 48.570    639.000    680.237    -41.237    589.864    665.898    604.163    589.864    589.864
 48.670    697.000    667.707     29.293    589.973    654.393    603.257    589.973    589.973
 48.770    647.155    657.029     -9.874    590.083    644.469    602.620    590.083    590.083
 48.870    665.221    649.535     15.686    590.193    637.296    602.416    590.193    590.193
 48.970    627.096    645.507    -18.411    590.304    633.105    602.694    590.304    590.304
 49.070    651.000    644.637      6.363    590.415    631.598    603.444    590.415    590.415
 49.170    622.000    646.427    -24.427    590.527    632.300    604.647    590.527    590.527
 49.270    671.000    650.506     20.494    590.639    634.826    606.312    590.639    590.639
 49.370    629.000    656.871    -27.871    590.751    639.081    608.534    590.751    590.751
 49.470    664.315    666.217     -1.902    590.865    645.485    611.589    590.865    590.865
 49.570    677.000    680.654     -3.654    590.978    655.463    616.159    590.978    590.978
 49.670    703.000    705.175     -2.175    591.092    672.450    623.801    591.092    591.092
 49.770    727.698    750.035    -22.337    591.206    703.534    637.681    591.206    591.206
 49.870    843.000    833.355      9.645    591.321    761.246    663.382    591.321    591.321
 49.970   1002.000    981.609     20.391    591.436    863.919    709.043    591.436    591.436
 50.070   1203.612   1224.293    -20.681    591.551   1032.082    783.630    591.551    591.551
 50.170   1492.000   1581.212    -89.212    591.667   1279.178    893.509    591.667    591.667
 50.270   1955.000   2041.713    -86.713    591.783   1597.961   1035.288    591.783    591.783
 50.370   2480.000   2547.665    -67.665    591.899   1948.245   1191.051    591.899    591.899
 50.470   2935.000   2988.218    -53.218    592.016   2253.345   1326.654    592.016    592.016
 50.570   3171.000   3224.858    -53.858    592.133   2417.433   1399.424    592.133    592.133
 50.670   3178.489   3165.676     12.813    592.250   2376.919   1381.011    592.250    592.250
 50.770   2763.066   2837.111    -74.046    592.368   2150.118   1279.482    592.368    592.368
 50.870   2325.040   2359.980    -34.940    592.485   1820.703   1131.943    592.485    592.485
 50.970   1813.000   1866.981    -53.981    592.603   1480.618    979.150    592.603    592.603
 51.070   1468.136   1449.273     18.863    592.722   1193.081    849.070    592.722    592.722
 51.170   1125.000   1145.177    -20.177    592.840    984.692    753.442    592.840    592.840
 51.270    936.275    951.256    -14.981    592.959    853.036    691.259    592.959    592.959
 51.370    843.000    841.687      1.313    593.078    780.007    654.814    593.078    593.078
 51.470    779.000    785.804     -6.804    593.197    743.866    635.177    593.197    593.197
 51.570    786.000    758.231     27.769    593.316    726.262    625.320    593.316    593.316
 51.670    760.000    742.218     17.782    593.435    714.785    620.898    593.435    593.435
 51.770    673.708    729.429    -55.721    593.555    703.314    619.695    593.555    593.555
 51.870    743.000    717.751     25.249    593.674    690.740    620.703    593.674    593.674
 51.970    700.000    707.828     -7.828    593.794    678.279    623.352    593.794    593.794
 52.070    741.877    700.404     41.473    593.914    667.314    627.006    593.914    593.914
 52.170    748.831    695.324     53.507    594.034    658.649    630.705    594.034    594.034
 52.270    726.566    691.540     35.026    594.154    652.517    633.170    594.154    594.154
 52.370    729.000    687.699     41.301    594.274    648.756    633.208    594.274    594.274
 52.470    697.000    683.100     13.900    594.394    647.021    630.464    594.394    594.394
 52.570    709.000    678.161     30.839    594.514    646.971    625.698    594.514    594.514
 52.670    727.000    673.953     53.047    594.634    648.410    620.172    594.634    594.634
 52.770    665.640    671.601     -5.960    594.755    651.401    614.952    594.755    594.755
 52.870    653.000    672.184    -19.184    594.875    656.386    610.670    594.875    594.875
 52.970    679.000    676.946      2.054    594.995    664.378    607.561    594.995    594.995
 53.070    744.161    687.665     56.496    595.115    677.193    605.585    595.115    595.115
 53.170    697.000    707.000    -10.000    595.235    697.656    604.576    595.235    595.235
 53.270    700.577    738.585    -38.008    595.355    729.577    604.359    595.355    595.355
 53.370    779.000    786.570     -7.570    595.475    777.222    604.817    595.475    595.475
 53.470    884.305    854.407     29.898    595.595    844.124    605.869    595.595    595.595
 53.570    937.674    942.906     -5.232    595.715    931.258    607.353    595.715    595.715
 53.670    975.000   1048.408    -73.408    595.835   1034.874    609.358    595.835    595.835
 53.770   1099.887   1159.803    -59.916    595.955   1144.196    611.552    595.955    595.955
 53.870   1190.000   1257.369    -67.369    596.074   1239.945    613.495    596.074    596.074
 53.970   1224.000   1315.562    -91.562    596.194   1297.115    614.647    596.194    596.194
 54.070   1308.000   1314.828     -6.828    596.313   1296.558    614.600    596.313    596.313
 54.170   1316.521   1255.633     60.887    596.432   1238.730    613.359    596.432    596.432
 54.270   1167.877   1158.054      9.823    596.551   1143.292    611.339    596.551    596.551
 54.370   1006.000   1047.526    -41.526    596.670   1035.156    609.065    596.670    596.670
 54.470    989.489    943.412     46.078    596.789    933.285    606.936    596.789    596.789
 54.570    829.000    856.412    -27.412    596.907    848.161    605.174    596.907    596.907
 54.670    764.000    790.160    -26.160    597.026    783.345    603.852    597.026    597.026
 54.770    695.278    743.532    -48.254    597.144    737.736    602.947    597.144    597.144
 54.870    673.239    712.874    -39.635    597.261    707.759    602.382    597.261    597.261
 54.970    685.000    693.840     -8.840    597.379    689.155    602.067    597.379    597.379
 55.070    647.000    682.580    -35.580    597.496    678.157    601.921    597.496    597.496
 55.170    633.754    676.250    -42.496    597.613    671.979    601.885    597.613    597.613
 55.270    646.716    673.013    -26.297    597.730    668.821    601.922    597.730    597.730
 55.370    616.526    671.813    -55.288    597.846    667.650    602.010    597.846    597.846
 55.470    707.000    672.106     34.894    597.962    667.931    602.137    597.962    597.962
 55.570    662.000    673.653    -11.653    598.078    669.431    602.300    598.078    598.078
 55.670    667.000    676.400     -9.400    598.194    672.095    602.498    598.194    598.194
 55.770    678.000    680.423     -2.423    598.309    675.997    602.734    598.309    598.309
 55.870    672.000    685.947    -13.947    598.424    681.354    603.016    598.424    598.424
 55.970    667.000    693.439    -26.439    598.538    688.619    603.356    598.538    598.538
 56.070    671.000    703.812    -32.812    598.652    698.677    603.783    598.652    598.652
 56.170    772.000    718.817     53.183    598.766    713.230    604.348    598.766    598.766
 56.270    738.000    741.641     -3.641    598.879    735.370    605.142    598.879    598.879
 56.370    761.000    777.665    -16.665    598.992    770.319    606.322    598.992    598.992
 56.470    813.000    835.108    -22.108    599.105    826.060    608.128    599.105    599.105
 56.570    873.000    925.030    -52.030    599.217    913.330    610.879    599.217    599.217
 56.670    980.000   1059.978    -79.978    599.328   1044.311    614.941    599.328    599.328
 56.770   1164.000   1250.755    -86.755    599.440   1229.499    620.626    599.440    599.440
 56.870   1438.000   1501.449    -63.449    599.550   1472.865    628.055    599.550    599.550
 56.970   1794.000   1803.661     -9.661    599.661   1766.258    636.985    599.661    599.661
 57.070   2274.000   2131.233    142.767    599.770   2084.287    646.659    599.770    599.770
 57.170   2386.717   2436.928    -50.211    599.880   2381.086    655.710    599.880    599.880
 57.270   2707.000   2655.570     51.430    599.988   2593.365    662.250    599.988    599.988
 57.370   2633.367   2724.284    -90.917    600.097   2660.053    664.459    600.097    600.097
 57.470   2648.764   2619.772     28.992    600.205   2558.498    661.664    600.205    600.205
 57.570   2460.964   2376.875     84.089    600.312   2322.516    654.878    600.312    600.312
 57.670   2027.806   2062.577    -34.771    600.418   2017.144    646.049    600.418    600.418
 57.770   1772.480   1739.503     32.977    600.525   1703.194    637.003    600.525    600.525
 57.870   1365.493   1450.164    -84.671    600.630   1421.933    628.995    600.630    600.630
 57.970   1156.000   1216.412    -60.412    600.735   1194.541    622.703    600.735    600.735
 58.070   1020.823   1043.644    -22.821    600.839   1026.177    618.373    600.839    600.839
 58.170    881.000    926.454    -45.454    600.943    911.427    616.012    600.943    600.943
 58.270    821.000    854.538    -33.538    601.046    840.001    615.606    601.046    601.046
 58.370    813.000    817.506     -4.506    601.149    801.388    617.276    601.149    601.149
 58.470    853.139    807.699     45.440    601.251    787.611    621.335    601.251    601.251
 58.570    757.487    820.897    -63.409    601.352    794.026    628.208    601.352    601.352
 58.670    863.000    855.412      7.588    601.453    818.642    638.196    601.453    601.453
 58.770    922.181    910.330     11.851    601.553    860.683    651.160    601.553    601.553
 58.870    956.000    983.566    -27.566    601.652    918.941    666.228    601.652    601.652
 58.970   1022.038   1070.221    -48.183    601.751    990.294    681.622    601.751    601.751
 59.070   1109.533   1161.712    -52.179    601.849   1068.752    694.753    601.849    601.849
 59.170   1232.000   1246.922    -14.922    601.946   1145.960    702.862    601.946    601.946
 59.270   1258.000   1316.049    -58.049    602.043   1213.751    704.310    602.043    602.043
 59.370   1353.867   1363.482     -9.615    602.139   1266.126    699.484    602.139    602.139
 59.470   1359.000   1385.993    -26.993    602.234   1298.078    690.157    602.234    602.234
 59.570   1363.000   1381.220    -18.220    602.328   1305.260    678.311    602.328    602.328
 59.670   1316.000   1351.549    -35.549    602.422   1288.334    665.667    602.422    602.422
 59.770   1247.235   1307.748    -60.513    602.515   1256.621    653.665    602.515    602.515
 59.870   1285.000   1265.289     19.711    602.607   1224.580    643.317    602.607    602.607
 59.970   1250.000   1237.747     12.253    602.698   1205.364    635.048    602.698    602.698
 60.070   1272.610   1233.634     38.976    602.789   1207.563    628.782    602.789    602.789
 60.170   1320.000   1256.870     63.130    602.879   1235.443    624.179    602.879    602.879
 60.270   1392.000   1308.081     83.919    602.968   1290.012    620.860    602.968    602.968
 60.370   1347.453   1383.838    -36.385    603.056   1368.151    618.520    603.056    603.056
 60.470   1480.000   1473.984      6.016    603.143   1459.938    616.932    603.143    603.143
 60.570   1544.612   1559.951    -15.339    603.230   1546.981    615.925    603.230    603.230
 60.670   1565.539   1616.711    -51.172    603.315   1604.384    615.374    603.315    603.315
 60.770   1663.141   1620.751     42.390    603.400   1608.723    615.190    603.400    603.400
 60.870   1557.952   1562.765     -4.813    603.484   1550.737    615.316    603.484    603.484
 60.970   1508.000   1453.844     54.156    603.567   1441.543    615.717    603.567    603.567
 61.070   1295.000   1317.441    -22.441    603.649   1304.595    616.386    603.649    603.649
 61.170   1180.000   1177.213      2.787    603.731   1163.519    617.346    603.731    603.731
 61.270   1028.223   1050.779    -22.556    603.811   1035.856    618.679    603.811    603.811
 61.370    964.000    948.615     15.385    603.890    931.907    620.557    603.890    603.890
 61.470    865.000    875.093    -10.093    603.969    855.716    623.311    603.969    603.969
 61.570    832.242    830.522      1.720    604.047    807.029    627.505    604.047    604.047
 61.670    794.180    813.595    -19.416    604.123    783.657    634.020    604.123    604.123
 61.770    814.000    823.512     -9.512    604.199    783.554    644.105    604.199    604.199
 61.870    863.000    861.084      1.916    604.274    805.980    659.305    604.274    604.274
 61.970    876.000    928.509    -52.509    604.348    851.514    681.242    604.348    604.348
 62.070   1042.000   1027.865     14.135    604.421    920.980    711.171    604.421    604.421
 62.170   1124.000   1158.754    -34.754    604.493   1013.684    749.387    604.493    604.493
 62.270   1268.000   1315.737    -47.737    604.564   1125.485    794.597    604.564    604.564
 62.370   1450.438   1486.208    -35.770    604.634   1247.196    843.388    604.634    604.634
 62.470   1626.000   1649.244    -23.244    604.703   1363.705    889.959    604.703    604.703
 62.570   1715.549   1776.675    -61.126    604.771   1454.715    926.446    604.771    604.771
 62.670   1782.000   1839.493    -57.493    604.838   1499.338    944.733    604.838    604.838
 62.770   1771.288   1820.684    -49.396    604.904   1485.312    940.062    604.904    604.904
 62.870   1699.800   1725.444    -25.644    604.969   1416.355    913.900    604.969    604.969
 62.970   1543.000   1577.602    -34.602    605.032   1309.588    872.941    605.032    605.032
 63.070   1463.000   1406.726     56.274    605.095   1186.269    825.488    605.095    605.095
 63.170   1198.781   1237.985    -39.203    605.157   1064.493    778.612    605.157    605.157
 63.270   1062.000   1088.389    -26.389    605.218    956.494    737.095    605.218    605.218
 63.370    876.000    966.731    -90.731    605.277    868.590    703.410    605.277    605.277
 63.470    853.000    875.011    -22.011    605.336    802.216    678.125    605.336    605.336
 63.570    813.000    810.540      2.460    605.393    755.435    660.491    605.393    605.393
 63.670    863.000    768.237     94.763    605.449    724.593    649.085    605.449    605.449
 63.770    793.289    742.646     50.643    605.505    705.763    642.376    605.505    605.505
 63.870    743.000    729.148     13.852    605.559    695.620    639.072    605.559    605.559
 63.970    794.000    724.698     69.302    605.612    691.956    638.336    605.612    605.612
 64.070    693.000    727.982    -34.982    605.664    693.766    639.856    605.664    605.664
 64.170    715.000    739.323    -24.323    605.714    701.137    643.870    605.714    605.714
 64.270    741.000    760.435    -19.435    605.764    715.004    651.155    605.764    605.764
 64.370    765.000    794.061    -29.061    605.812    736.813    663.005    605.812    605.812
 64.470    827.000    843.402    -16.402    605.860    768.075    681.113    605.860    605.860
 64.570    881.000    911.290    -30.290    605.906    809.786    707.313    605.906    605.906
 64.670   1013.000    999.089     13.911    605.951    861.778    743.138    605.951    605.951
 64.770   1091.107   1105.437    -14.331    605.994    922.071    789.209    605.994    605.994
 64.870   1175.000   1225.007    -50.007    606.037    986.302    844.565    606.037    606.037
 64.970   1290.409   1347.616    -57.207    606.078   1047.434    906.064    606.078    606.078
 65.070   1520.015   1458.389     61.626    606.118   1096.314    967.991    606.118    606.118
 65.170   1561.000   1540.076     20.924    606.157   1123.970   1022.068    606.157    606.157
 65.270   1631.000   1577.740     53.260    606.195   1125.278   1058.485    606.195    606.195
 65.370   1500.859   1564.035    -63.176    606.232   1101.306   1068.822    606.232    606.232
 65.470   1435.599   1502.454    -66.855    606.267   1058.371   1050.250    606.267    606.267
 65.570   1487.730   1406.299     81.431    606.301   1005.161   1007.374    606.301    606.301
 65.670   1356.000   1293.127     62.873    606.334    949.918    949.508    606.334    606.334
 65.770   1201.000   1178.655     22.345    606.365    898.639    886.371    606.365    606.365
 65.870   1075.000   1073.687      1.313    606.396    854.484    825.604    606.396    606.396
 65.970    930.000    983.816    -53.816    606.425    818.097    772.159    606.425    606.425
 66.070    912.000    910.524      1.476    606.452    788.519    728.478    606.452    606.452
 66.170    891.557    852.828     38.729    606.479    764.350    694.978    606.479    606.479
 66.270    779.000    808.697    -29.697    606.504    744.546    670.674    606.504    606.504
 66.370    755.000    775.810    -20.810    606.528    728.509    653.843    606.528    606.528
 66.470    706.000    751.875    -45.875    606.551    715.853    642.583    606.551    606.551
 66.570    774.670    734.861     39.809    606.572    706.252    635.187    606.572    606.572
 66.670    703.000    723.158    -20.158    606.592    699.431    630.322    606.592    606.592
 66.770    663.055    715.607    -52.552    606.611    695.172    627.047    606.611    606.611
 66.870    701.000    711.449    -10.449    606.628    693.323    624.754    606.628    606.628
 66.970    731.889    710.256     21.633    606.644    693.820    623.078    606.644    606.644
 67.070    676.000    711.923    -35.923    606.659    696.764    621.817    606.659    606.659
 67.170    715.000    716.740     -1.740    606.672    702.545    620.866    606.672    606.672
 67.270    723.000    725.547     -2.547    606.684    712.044    620.186    606.684    606.684
 67.370    687.879    739.966    -52.087    606.695    726.873    619.786    606.695    606.695
 67.470    760.000    762.662     -2.662    606.704    749.649    619.714    606.704    606.704
 67.570    780.601    797.571    -16.970    606.712    784.215    620.064    606.712    606.712
 67.670    851.000    849.942      1.058    606.719    835.688    620.965    606.719    606.719
 67.770    951.000    926.039     24.961    606.724    910.170    622.582    606.724    606.724
 67.870   1055.003   1032.318     22.685    606.728   1013.949    625.082    606.728    606.728
 67.970   1099.000   1174.037    -75.037    606.730   1152.147    628.605    606.730    606.730
 68.070   1277.140   1353.389    -76.249    606.731   1326.903    633.203    606.731    606.731
 68.170   1534.000   1567.470    -33.470    606.731   1535.403    638.793    606.731    606.731
 68.270   1768.243   1806.426    -38.182    606.729   1768.068    645.098    606.729    606.729
 68.370   2085.922   2052.067     33.854    606.726   2007.219    651.614    606.726    606.726
 68.470   2253.000   2277.406    -24.406    606.722   2226.615    657.593    606.722    606.722
 68.570   2466.000   2448.719     17.281    606.716   2393.463    662.103    606.716    606.716
 68.670   2471.430   2533.167    -61.737    606.708   2475.826    664.237    606.708    606.708
 68.770   2620.000   2511.916    108.084    606.700   2455.381    663.474    606.700    606.700
 68.870   2311.759   2390.032    -78.273    606.689   2337.044    659.950    606.689    606.689
 68.970   2221.000   2193.479     27.521    606.678   2146.058    654.381    606.678    606.678
 69.070   1981.901   1956.576     25.325    606.665   1915.801    647.710    606.665    606.665
 69.170   1725.000   1710.807     14.193    606.650   1676.895    640.805    606.650    606.650
 69.270   1447.232   1479.748    -32.515    606.634   1452.273    634.314    606.634    606.634
 69.370   1276.872   1278.222     -1.350    606.617   1256.359    628.646    606.617    606.617
 69.470   1055.055   1113.190    -58.135    606.598   1095.925    623.991    606.598    606.598
 69.570   1035.000    985.335     49.665    606.578    971.639    620.368    606.578    606.578
 69.670    956.318    891.030     65.288    606.556    879.977    617.677    606.556    606.556
 69.770    788.422    824.347    -35.925    606.533    815.174    615.753    606.533    606.533
 69.870    809.000    778.751     30.249    606.508    770.875    614.416    606.508    606.508
 69.970    714.636    748.263    -33.628    606.482    741.272    613.495    606.482    606.482
 70.070    749.338    728.075     21.263    606.454    721.675    612.869    606.454    606.454
 70.170    669.776    714.648    -44.873    606.425    708.647    612.436    606.425    606.425
 70.270    737.000    705.591     31.409    606.394    699.864    612.128    606.394    606.394
 70.370    751.423    699.394     52.029    606.362    693.855    611.904    606.362    606.362
 70.470    737.000    695.155     41.845    606.328    689.745    611.740    606.328    606.328
 70.570    683.272    692.371     -9.099    606.293    687.043    611.622    606.293    606.293
 70.670    639.878    690.788    -50.909    606.256    685.501    611.542    606.256    606.256
 70.770    667.876    690.316    -22.439    606.218    685.031    611.500    606.218    606.218
 70.870    686.227    691.001     -4.774    606.178    685.677    611.499    606.178    606.178
 70.970    660.484    693.042    -32.558    606.137    687.627    611.546    606.137    606.137
 71.070    699.000    696.841      2.159    606.094    691.272    611.656    606.094    606.094
 71.170    736.000    703.105     32.895    606.050    697.288    611.856    606.050    606.050
 71.270    687.000    712.970    -25.970    606.004    706.772    612.187    606.004    606.004
 71.370    750.158    728.150     22.009    605.957    721.372    612.713    605.957    605.957
 71.470    756.951    751.049      5.902    605.908    743.406    613.522    605.908    605.908
 71.570    778.000    784.800     -6.800    605.858    775.889    614.727    605.858    605.858
 71.670    828.000    833.110     -5.110    605.806    822.394    616.465    605.806    605.806
 71.770    857.000    899.877    -42.877    605.752    886.673    618.878    605.752    605.752
 71.870   1028.000    988.511     39.489    605.697    972.011    622.092    605.697    605.697
 71.970   1091.000   1101.003    -10.003    605.641   1080.327    626.180    605.641    605.641
 72.070   1268.000   1236.881     31.119    605.583   1211.165    631.127    605.583    605.583
 72.170   1441.121   1392.188     48.933    605.523   1360.713    636.790    605.523    605.523
 72.270   1596.736   1558.656     38.080    605.462   1521.005    642.870    605.462    605.462
 72.370   1683.000   1723.160    -40.160    605.399   1679.398    648.893    605.399    605.399
 72.470   1866.000   1867.811     -1.811    605.335   1818.653    654.209    605.335    605.335
 72.570   1934.000   1971.774    -37.774    605.269   1918.698    658.065    605.269    605.269
 72.670   1980.000   2016.347    -36.347    605.201   1961.509    659.781    605.201    605.201
 72.770   1908.000   1992.410    -84.410    605.132   1938.293    659.028    605.132    605.132
 72.870   1902.000   1904.982     -2.982    605.062   1853.876    655.992    605.062    605.062
 72.970   1859.000   1770.540     88.460    604.989   1724.128    651.271    604.989    604.989
 73.070   1598.000   1609.839    -11.839    604.916   1569.047    645.615    604.916    604.916
 73.170   1379.690   1441.923    -62.233    604.840   1406.994    639.708    604.840    604.840
 73.270   1251.000   1281.433    -30.433    604.763   1252.092    634.066    604.763    604.763
 73.370   1117.000   1138.094    -21.094    604.685   1113.732    629.024    604.685    604.685
 73.470   1011.000   1017.110     -6.110    604.605    996.955    624.747    604.605    604.605
 73.570    896.000    919.928    -23.928    604.523    903.170    621.274    604.523    604.523
 73.670    839.000    845.230     -6.230    604.440    831.107    618.558    604.440    604.440
 73.770    796.000    789.993      6.007    604.355    777.834    616.510    604.355    604.355
 73.870    748.000    750.464     -2.464    604.269    739.701    615.027    604.269    604.269
 73.970    768.000    722.908     45.092    604.181    713.073    614.012    604.181    604.181
 74.070    763.000    704.080     58.920    604.091    694.782    613.386    604.091    604.091
 74.170    699.796    691.437      8.359    604.000    682.337    613.098    604.000    604.000
 74.270    672.000    683.149    -11.149    603.907    673.937    613.118    603.907    603.907
 74.370    698.708    677.991     20.717    603.813    668.368    613.437    603.813    603.813
 74.470    665.000    675.190    -10.190    603.717    664.855    614.056    603.717    603.717
 74.570    705.000    674.261     30.739    603.619    662.915    614.973    603.619    603.619
 74.670    626.525    674.867    -48.343    603.520    662.223    616.177    603.520    603.520
 74.770    656.000    676.719    -20.719    603.420    662.523    617.634    603.420    603.420
 74.870    741.000    679.492     61.508    603.317    663.554    619.278    603.317    603.317
 74.970    640.000    682.782    -42.782    603.213    665.014    621.011    603.213    603.213
 75.070    667.810    686.084    -18.274    603.108    666.529    622.697    603.108    603.108
 75.170    727.000    688.803     38.197    603.001    667.672    624.170    603.001    603.001
 75.270    691.000    690.353      0.647    602.892    668.019    625.269    602.892    602.892
 75.370    734.000    690.336     43.664    602.782    667.271    625.890    602.782    602.782
 75.470    676.000    688.729    -12.729    602.670    665.389    626.052    602.670    602.670
 75.570    729.280    685.942     43.339    602.556    662.623    625.914    602.556    602.556
 75.670    691.000    682.706      8.294    602.441    659.431    625.749    602.441    602.441
 75.770    709.000    679.903     29.097    602.324    656.356    625.897    602.324    602.324
 75.870    660.000    678.463    -18.463    602.206    653.942    626.745    602.206    602.206
 75.970    644.181    679.338    -35.157    602.086    652.717    628.717    602.086    602.086
 76.070    689.641    683.507      6.133    601.964    653.190    632.284    601.964    601.964
 76.170    676.000    691.961    -15.961    601.841    655.847    637.947    601.841    601.841
 76.270    680.000    705.646    -25.646    601.716    661.134    646.210    601.716    601.716
 76.370    748.501    725.371     23.130    601.590    669.416    657.515    601.590    601.590
 76.470    719.000    751.646    -32.646    601.462    680.909    672.158    601.462    601.462
 76.570    812.000    784.508     27.492    601.333    695.602    690.183    601.333    601.333
 76.670    827.000    823.321      3.679    601.201    713.173    711.281    601.201    601.201
 76.770    862.000    866.606     -4.606    601.069    732.906    734.686    601.069    601.069
 76.870    954.000    911.904     42.096    600.934    753.635    759.107    600.934    600.934
 76.970    952.000    955.701     -3.701    600.799    773.706    782.686    600.799    600.799
 77.070   1032.000    993.518     38.482    600.661    791.017    803.047    600.661    600.661
 77.170   1045.000   1020.385     24.615    600.522    803.239    817.551    600.522    600.522
 77.270    962.984   1031.999    -69.015    600.381    808.363    823.905    600.381    600.381
 77.370    985.000   1026.222    -41.222    600.239    805.385    820.973    600.239    600.239
 77.470   1019.000   1004.028     14.972    600.095    794.757    809.278    600.095    600.095
 77.570    995.997    969.038     26.958    599.950    778.164    790.750    599.950    599.950
 77.670    980.948    926.082     54.865    599.802    757.861    767.965    599.802    599.802
 77.770    894.000    879.862     14.138    599.654    736.039    743.430    599.654    599.654
 77.870    847.000    834.234     12.766    599.504    714.499    719.203    599.504    599.504
 77.970    796.000    791.994      4.006    599.352    694.545    696.775    599.352    599.352
 78.070    767.411    754.903     12.508    599.198    676.996    677.086    599.198    599.198
 78.170    736.000    723.804     12.196    599.043    662.247    660.586    599.043    599.043
 78.270    702.000    698.790      3.210    598.887    650.340    647.327    598.887    598.887
 78.370    652.000    679.415    -27.415    598.729    641.065    637.070    598.729    598.729
 78.470    624.000    664.902    -40.902    598.569    634.061    629.404    598.569    598.569
 78.570    656.224    654.341      1.883    598.408    628.899    623.844    598.408    598.408
 78.670    660.000    646.831     13.169    598.245    625.161    619.910    598.245    598.245
 78.770    595.000    641.582    -46.582    598.081    622.475    617.184    598.081    598.081
 78.870    664.000    637.954     26.046    597.915    620.541    615.323    597.915    597.915
 78.970    606.000    635.466    -29.466    597.747    619.135    614.074    597.747    597.747
 79.070    635.000    633.779      1.221    597.578    618.096    613.257    597.578    597.578
 79.170    605.000    632.670    -27.670    597.407    617.320    612.754    597.407    597.407
 79.270    684.763    632.003     52.760    597.235    616.741    612.493    597.235    597.235
 79.370    628.000    631.707     -3.707    597.061    616.325    612.440    597.061    597.061
 79.470    644.173    631.759     12.414    596.886    616.057    612.584    596.886    596.886
 79.570    628.000    632.175     -4.175    596.709    615.940    612.941    596.709    596.709
 79.670    652.055    633.012     19.044    596.531    615.988    613.551    596.531    596.531
 79.770    633.000    634.367     -1.367    596.351    616.227    614.487    596.351    596.351
 79.870    608.000    636.399    -28.399    596.170    616.694    615.869    596.170    596.170
 79.970    628.000    639.348    -11.348    595.987    617.442    617.887    595.987    595.987
 80.070    638.000    643.566     -5.566    595.802    618.535    620.825    595.802    595.802
 80.170    663.689    649.557     14.132    595.616    620.062    625.102    595.616    595.616
 80.270    604.778    658.015    -53.237    595.429    622.135    631.297    595.429    595.429
 80.370    646.800    669.860    -23.060    595.240    624.899    640.185    595.240    595.240
 80.470    674.000    686.237    -12.237    595.049    628.537    652.729    595.049    595.049
 80.570    668.021    708.480    -40.459    594.857    633.262    670.049    594.857    594.857
 80.670    745.547    738.013      7.534    594.663    639.315    693.329    594.663    594.663
 80.770    833.658    776.185     57.474    594.468    646.949    723.663    594.468    594.468
 80.870    774.000    824.048    -50.048    594.272    656.412    761.858    594.272    594.272
 80.970    889.552    882.107      7.445    594.074    667.929    808.193    594.074    594.074
 81.070   1036.000    950.032     85.968    593.874    681.659    862.180    593.874    593.874
 81.170   1099.900   1026.382     73.518    593.673    697.640    922.342    593.673    593.673
 81.270   1058.759   1108.376    -49.617    593.471    715.700    986.070    593.471    593.471
 81.370   1316.000   1191.797    124.203    593.267    735.400   1049.587    593.267    593.267
 81.470   1397.000   1271.128    125.872    593.061    756.001   1108.116    593.061    593.061
 81.570   1461.000   1340.084    120.916    592.854    776.509   1156.368    592.854    592.854
 81.670   1471.000   1392.627     78.373    592.646    795.791   1189.436    592.646    592.646
 81.770   1564.000   1424.231    139.769    592.436    812.756   1203.885    592.436    592.436
 81.870   1465.346   1432.726     32.620    592.225    826.475   1198.472    592.225    592.225
 81.970   1466.000   1418.541     47.459    592.012    836.362   1174.210    592.012    592.012
 82.070   1437.541   1384.117     53.424    591.798    842.084   1133.871    591.798    591.798
 82.170   1371.000   1333.433     37.567    591.582    843.588   1081.484    591.582    591.582
 82.270   1272.000   1271.402      0.598    591.365    841.062   1021.777    591.365    591.365
 82.370   1202.000   1203.050     -1.050    591.147    834.783    959.494    591.147    591.147
 82.470   1107.467   1132.815    -25.348    590.927    825.069    898.758    590.927    590.927
 82.570   1089.000   1064.232     24.768    590.705    812.346    842.677    590.705    590.705
 82.670    930.228    999.907    -69.679    590.483    797.250    793.225    590.483    590.483
 82.770   1002.698    941.562     61.136    590.259    780.579    751.323    590.259    590.259
 82.870    901.000    890.051     10.949    590.033    763.126    717.033    590.033    590.033
 82.970    840.696    845.463     -4.767    589.806    745.540    689.798    589.806    589.806
 83.070    759.000    807.354    -48.354    589.578    728.301    668.693    589.578    589.578
 83.170    818.708    775.054     43.654    589.348    711.798    652.658    589.348    589.348
 83.270    764.000    747.918     16.082    589.117    696.413    640.668    589.117    589.117
 83.370    695.000    725.431    -30.431    588.885    682.520    631.834    588.885    588.885
 83.470    654.000    707.217    -53.217    588.651    670.454    625.443    588.651    588.651
 83.570    653.061    692.987    -39.925    588.416    660.468    620.955    588.416    588.416
 83.670    619.000    682.508    -63.508    588.180    652.714    617.985    588.180    588.180
 83.770    627.000    675.565    -48.565    587.942    647.245    616.264    587.942    587.942
 83.870    702.000    671.921     30.079    587.703    644.015    615.601    587.703    587.703
 83.970    618.000    671.278    -53.278    587.463    642.879    615.846    587.463    587.463
 84.070    672.888    673.252     -0.364    587.221    643.595    616.852    587.221    587.221
 84.170    683.941    677.339      6.602    586.978    645.825    618.458    586.978    586.978
 84.270    635.760    682.915    -47.155    586.734    649.140    620.466    586.734    586.734
 84.370    684.139    689.230     -5.091    586.488    653.029    622.639    586.488    586.488
 84.470    707.000    695.432     11.568    586.241    656.915    624.702    586.241    586.241
 84.570    743.382    700.608     42.774    585.993    660.187    626.354    585.993    585.993
 84.670    641.000    703.881    -62.881    585.743    662.261    627.303    585.743    585.743
 84.770    710.958    704.564      6.394    585.493    662.678    627.318    585.493    585.493
 84.870    691.482    702.329    -10.847    585.241    661.217    626.294    585.241    585.241
 84.970    721.988    697.292     24.696    584.987    657.944    624.283    584.987    584.987
 85.070    662.983    689.953    -26.970    584.733    653.171    621.468    584.733    584.733
 85.170    652.000    681.029    -29.029    584.477    647.352    618.113    584.477    584.477
 85.270    634.559    671.288    -36.729    584.220    640.973    614.501    584.220    584.220
 85.370    667.000    661.432      5.568    583.962    634.470    610.895    583.962    583.962
 85.470    629.000    652.051    -23.051    583.703    628.205    607.525    583.703    583.703
 85.570    617.000    643.600    -26.600    583.442    622.445    604.577    583.442    583.442
 85.670    642.000    636.404      5.596    583.181    617.368    602.199    583.181    583.181
 85.770    636.000    630.661      5.339    582.918    613.063    600.500    582.918    582.918
 85.870    636.000    626.467      9.533    582.654    609.550    599.556    582.654    582.654
 85.970    628.051    623.835      4.216    582.388    606.792    599.416    582.388    582.388
 86.070    607.000    622.719    -15.719    582.122    604.723    600.103    582.122    582.122
 86.170    624.428    623.035      1.393    581.854    603.257    601.616    581.854    581.854
 86.270    635.000    624.671     10.329    581.586    602.316    603.922    581.586    581.586
 86.370    588.000    627.496    -39.496    581.316    601.833    606.957    581.316    581.316
 86.470    640.295    631.361      8.934    581.045    601.770    610.611    581.045    581.045
 86.570    639.000    636.097      2.903    580.773    602.115    614.726    580.773    580.773
 86.670    591.359    641.513    -50.153    580.500    602.892    619.087    580.500    580.500
 86.770    644.000    647.394     -3.394    580.226    604.158    623.423    580.226    580.226
 86.870    684.000    653.505     30.495    579.950    606.000    627.413    579.950    579.950
 86.970    713.686    659.600     54.086    579.674    608.528    630.697    579.674    579.674
 87.070    666.000    665.454      0.546    579.396    611.872    632.925    579.396    579.396
 87.170    731.000    670.924     60.076    579.118    616.162    633.820    579.118    579.118
 87.270    683.359    675.995      7.364    578.839    621.518    633.250    578.839    578.839
 87.370    636.160    680.802    -44.642    578.558    628.024    631.264    578.558    578.558
 87.470    697.000    685.581     11.419    578.276    635.705    628.072    578.276    578.276
 87.570    712.000    690.572     21.428    577.994    644.503    623.975    577.994    577.994
 87.670    636.421    695.934    -59.513    577.710    654.251    619.295    577.710    577.710
 87.770    808.000    701.673    106.327    577.426    664.659    614.332    577.426    577.426
 87.870    695.299    707.616    -12.317    577.140    675.300    609.339    577.140    577.140
 87.970    700.783    713.404    -12.621    576.854    685.608    604.524    576.854    576.854
 88.070    728.000    718.506      9.494    576.566    694.897    600.043    576.566    576.566
 88.170    659.000    722.277    -63.277    576.278    702.419    596.000    576.278    576.278
 88.270    674.995    724.082    -49.087    575.989    707.483    592.451    575.989    575.989
 88.370    673.167    723.459    -50.292    575.698    709.618    589.407    575.698    575.698
 88.470    762.886    720.276     42.611    575.407    708.711    586.848    575.407    575.407
 88.570    719.000    714.771      4.229    575.115    705.044    584.729    575.115    575.115
 88.670    765.929    707.483     58.446    574.822    699.209    582.996    574.822    574.822
 88.770    668.194    699.108    -30.915    574.528    691.959    581.593    574.528    574.528
 88.870    635.545    690.378    -54.833    574.234    684.079    580.462    574.234    574.234
 88.970    684.000    681.985      2.015    573.938    676.311    579.557    573.938    573.938
 89.070    730.000    674.541     55.459    573.642    669.306    578.836    573.642    573.642
 89.170    686.000    668.540     17.460    573.345    663.591    578.265    573.345    573.345
 89.270    705.714    664.329     41.385    573.047    659.543    577.817    573.047    573.047
 89.370    640.000    662.090    -22.090    572.748    657.366    577.468    572.748    572.748
 89.470    647.000    661.829    -14.829    572.448    657.084    577.199    572.448    572.448
 89.570    608.495    663.382    -54.887    572.148    658.554    576.992    572.148    572.148
 89.670    678.000    666.430     11.570    571.847    661.473    576.829    571.847    571.847
 89.770    671.000    670.512      0.488    571.545    665.402    576.690    571.545    571.545
 89.870    694.000    675.055     18.945    571.242    669.786    576.554    571.242    571.242
 89.970    717.000    679.403     37.597    570.939    673.993    576.400    570.939    570.939
 90.070    702.000    682.873     19.127    570.635    677.361    576.205    570.635    570.635
 90.170    705.153    684.829     20.324    570.330    679.272    575.949    570.330    570.330
 90.270    689.489    684.795      4.694    570.025    679.268    575.618    570.025    570.025
 90.370    727.000    682.559     44.441    569.719    677.139    575.205    569.719    569.719
 90.470    667.000    678.209    -11.209    569.412    672.972    574.715    569.412    569.412
 90.570    672.000    672.087     -0.087    569.104    667.093    574.161    569.104    569.104
 90.670    622.000    664.678    -42.678    568.796    659.971    573.562    568.796    568.796
 90.770    678.000    656.509     21.491    568.488    652.112    572.937    568.488    568.488
 90.870    645.000    648.071     -3.071    568.179    643.992    572.303    568.179    568.179
 90.970    572.000    639.782    -67.782    567.869    636.015    571.675    567.869    567.869
 91.070    644.915    631.976     12.939    567.558    628.501    571.066    567.558    567.558
 91.170    640.000    624.893     15.107    567.247    621.683    570.484    567.247    567.247
 91.270    689.000    618.687     70.313    566.936    615.709    569.935    566.936    566.936
 91.370    574.000    613.433    -39.433    566.624    610.652    569.421    566.624    566.624
 91.470    565.000    609.140    -44.140    566.311    606.521    568.942    566.311    566.311
 91.570    590.849    605.772    -14.923    565.998    603.281    568.497    565.998    565.998
 91.670    597.359    603.260     -5.900    565.684    600.865    568.085    565.684    565.684
 91.770    622.433    601.524     20.908    565.370    599.196    567.701    565.370    565.370
 91.870    593.000    600.491     -7.491    565.056    598.203    567.344    565.056    565.056
 91.970    658.000    600.101     57.899    564.741    597.829    567.011    564.741    564.741
 92.070    620.000    600.324     19.676    564.426    598.045    566.702    564.426    564.426
 92.170    578.983    601.164    -22.181    564.110    598.852    566.417    564.110    564.110
 92.270    583.453    602.660    -19.207    563.794    600.289    566.158    563.794    563.794
 92.370    628.000    604.888     23.112    563.477    602.429    565.927    563.477    563.477
 92.470    620.000    607.958     12.042    563.160    605.379    565.728    563.160    563.160
 92.570    660.000    612.008     47.992    562.843    609.271    565.566    562.843    562.843
 92.670    561.990    617.197    -55.207    562.525    614.258    565.448    562.525    562.525
 92.770    618.000    623.689     -5.689    562.207    620.499    565.376    562.207    562.207
 92.870    673.831    631.643     42.187    561.889    628.149    565.358    561.889    561.889
 92.970    662.000    641.195     20.805    561.571    637.339    565.395    561.571    561.571
 93.070    699.000    652.440     46.560    561.252    648.165    565.490    561.252    561.252
 93.170    724.569    665.420     59.149    560.933    660.668    565.641    560.933    560.933
 93.270    664.000    680.107    -16.107    560.614    674.822    565.847    560.614    560.614
 93.370    639.000    696.389    -57.389    560.294    690.524    566.101    560.294    560.294
 93.470    656.360    714.067    -57.707    559.975    707.578    566.398    559.975    559.975
 93.570    720.121    732.843    -12.722    559.655    725.694    566.730    559.655    559.655
 93.670    795.000    752.326     42.674    559.335    744.489    567.091    559.335    559.335
 93.770    791.895    772.053     19.842    559.014    763.503    567.479    559.014    559.014
 93.870    763.000    791.544    -28.544    558.694    782.251    567.896    558.694    558.694
 93.970    783.000    810.383    -27.383    558.374    800.302    568.361    558.374    558.374
 94.070    798.775    828.319    -29.544    558.053    817.372    568.904    558.053    558.053
 94.170    814.000    845.372    -31.372    557.733    833.428    569.579    557.733    557.733
 94.270    892.220    861.801     30.420    557.412    848.656    570.458    557.412    557.412
 94.370    943.720    877.982     65.738    557.091    863.353    571.622    557.091    557.091
 94.470    836.916    894.306    -57.390    556.770    877.821    573.157    556.770    556.770
 94.570    913.000    911.038      1.962    556.450    892.252    575.138    556.450    556.450
 94.670    861.042    928.254    -67.211    556.129    906.665    577.621    556.129    556.129
 94.770    909.000    945.854    -36.854    555.808    920.934    580.631    555.808    555.808
 94.870    953.000    963.633    -10.633    555.488    934.868    584.157    555.488    555.488
 94.970    966.000    981.348    -15.348    555.167    948.280    588.141    555.167    555.167
 95.070   1015.000    998.728     16.272    554.846    961.009    592.474    554.846    554.846
 95.170   1029.000   1015.412     13.588    554.526    972.849    596.999    554.526    554.526
 95.270    975.775   1030.836    -55.061    554.206    983.444    601.511    554.206    554.206
 95.370    999.215   1044.159    -44.943    553.886    992.201    605.761    553.886    553.886
 95.470   1070.000   1054.271     15.729    553.566    998.289    609.471    553.566    553.566
 95.570   1130.054   1059.899     70.156    553.246   1000.717    612.359    553.246    553.246
 95.670   1069.013   1059.811      9.202    552.926    998.513    614.164    552.926    552.926
 95.770   1059.000   1053.132      5.868    552.607    990.985    614.703    552.607    552.607
 95.870   1071.000   1039.577     31.423    552.287    977.927    613.898    552.287    552.287
 95.970   1045.000   1019.613     25.387    551.969    959.755    611.798    551.969    551.969
 96.070   1006.000    994.398     11.602    551.650    937.459    608.570    551.650    551.650
 96.170    969.000    965.580      3.420    551.332    912.441    604.459    551.332    551.332
 96.270    914.000    935.049    -21.049    551.014    886.310    599.746    551.014    551.014
 96.370    934.000    904.745     29.255    550.696    860.724    594.713    550.696    550.696
 96.470    982.000    876.527    105.473    550.379    837.284    589.620    550.379    550.379
 96.570    854.000    852.110      1.890    550.062    817.482    584.686    550.062    550.062
 96.670    874.000    833.019     40.981    549.745    802.668    580.090    549.745    549.745
 96.770    830.041    820.575      9.466    549.429    794.035    575.958    549.429    549.429
 96.870    846.000    815.879     30.121    549.113    792.603    572.372    549.113    549.113
 96.970    858.000    819.807     38.193    548.798    799.211    569.368    548.798    548.798
 97.070    831.000    833.004     -2.004    548.483    814.503    566.949    548.483    548.483
 97.170    875.000    855.876     19.124    548.169    838.910    565.089    548.169    548.169
 97.270    940.853    888.568     52.285    547.855    872.622    563.744    547.855    547.855
 97.370    941.000    930.927     10.073    547.542    915.540    562.860    547.542    547.542
 97.470    927.419    982.454    -55.035    547.230    967.225    562.378    547.230    547.230
 97.570   1019.000   1042.419    -23.419    546.917   1027.004    562.241    546.917    546.917
 97.670   1117.000   1109.511      7.489    546.606   1093.630    562.384    546.606    546.606
 97.770   1198.000   1181.988     16.012    546.295   1165.429    562.743    546.295    546.295
 97.870   1307.000   1257.646     49.354    545.985   1240.260    563.252    545.985    545.985
 97.970   1370.033   1333.734     36.299    545.676   1315.447    563.839    545.676    545.676
 98.070   1510.000   1407.017    102.983    545.367   1387.831    564.429    545.367    545.367
 98.170   1432.000   1473.859    -41.859    545.059   1453.856    564.942    545.059    545.059
 98.270   1560.000   1530.432     29.568    544.752   1509.774    565.298    544.752    544.752
 98.370   1624.000   1573.083     50.917    544.445   1552.009    565.420    544.445    544.445
 98.470   1510.401   1598.854    -88.452    544.139   1577.660    565.250    544.139    544.139
 98.570   1617.811   1606.012     11.800    543.835   1585.030    564.752    543.835    543.835
 98.670   1598.000   1594.402      3.598    543.530   1573.966    563.923    543.530    543.530
 98.770   1604.815   1565.459     39.356    543.227   1545.872    562.790    543.227    543.227
 98.870   1548.000   1521.887     26.113    542.925   1503.400    561.405    542.925    542.925
 98.970   1462.000   1467.171     -5.171    542.624   1449.967    559.835    542.624    542.624
 99.070   1413.000   1405.104      7.896    542.323   1389.296    558.150    542.323    542.323
 99.170   1302.000   1339.435    -37.435    542.023   1325.066    556.419    542.023    542.023
 99.270   1328.000   1273.644     54.356    541.725   1260.694    554.705    541.725    541.725
 99.370   1185.809   1210.818    -25.009    541.427   1199.215    553.061    541.427    541.427
 99.470   1136.615   1153.606    -16.991    541.131   1143.233    551.532    541.131    541.131
 99.570   1110.000   1104.209      5.791    540.835   1094.916    550.153    540.835    540.835
 99.670   1051.000   1064.410    -13.410    540.541   1056.020    548.949    540.541    540.541
 99.770    963.791   1035.607    -71.816    540.248   1027.926    547.938    540.248    540.248
 99.870    981.000   1018.847    -37.847    539.955   1011.677    547.128    539.955    539.955
 99.970   1021.000   1014.854      6.146    539.664   1007.994    546.520    539.664    539.664
100.070   1044.000   1024.040     19.960    539.374   1017.294    546.108    539.374    539.374
100.170   1011.000   1046.513    -35.513    539.086   1039.699    545.880    539.086    539.086
100.270   1106.000   1082.085     23.915    538.798   1075.037    545.821    538.798    538.798
100.370   1144.000   1130.266     13.734    538.512   1122.839    545.909    538.512    538.512
100.470   1175.000   1190.261    -15.261    538.227   1182.335    546.122    538.227    538.227
100.570   1278.000   1260.948     17.052    537.943   1252.430    546.430    537.943    537.943
100.670   1346.049   1340.853      5.196    537.661   1331.681    546.804    537.661    537.661
100.770   1429.851   1428.116      1.735    537.380   1418.263    547.210    537.380    537.380
100.870   1520.745   1520.474      0.271    537.100   1509.948    547.613    537.100    537.100
100.970   1651.000   1615.269     35.731    536.822   1604.114    547.976    536.822    536.822
101.070   1635.647   1709.594    -73.947    536.546   1697.889    548.265    536.546    536.546
101.170   1739.554   1800.349    -60.795    536.270   1788.205    548.447    536.270    536.270
101.270   1865.000   1884.573    -19.573    535.996   1872.124    548.498    535.996    535.996
101.370   1866.310   1959.699    -93.389    535.724   1947.092    548.405    535.724    535.724
101.470   2024.000   2023.730      0.270    535.453   2011.109    548.171    535.453    535.453
101.570   2060.461   2075.243    -14.781    535.184   2062.734    547.810    535.184    535.184
101.670   2132.000   2113.221     18.779    534.916   2100.926    547.348    534.916    534.916
101.770   2158.000   2136.842     21.158    534.650   2124.829    546.818    534.650    534.650
101.870   2134.939   2145.352    -10.413    534.386   2133.655    546.253    534.386    534.386
101.970   2103.000   2138.146    -35.146    534.123   2126.766    545.686    534.123    534.123
102.070   2138.587   2115.049     23.539    533.862   2103.958    545.145    533.862    533.862
102.170   2164.544   2076.678     87.866    533.603   2065.825    544.654    533.603    533.603
102.270   2053.000   2024.703     28.297    533.345   2014.018    544.230    533.345    533.345
102.370   1968.000   1961.826      6.174    533.089   1951.229    543.885    533.089    533.089
102.470   1927.121   1891.482     35.639    532.835   1880.890    543.622    532.835    532.835
102.570   1791.000   1817.372    -26.372    532.583   1806.704    543.437    532.583    532.583
102.670   1649.000   1742.995    -93.995    532.333   1732.182    543.321    532.333    532.333
102.770   1709.000   1671.312     37.688    532.084   1660.306    543.255    532.084    532.084
102.870   1602.000   1604.568     -2.568    531.838   1593.339    543.219    531.838    531.838
102.970   1559.000   1544.222     14.778    531.593   1532.767    543.190    531.593    531.593
103.070   1483.706   1490.964     -7.257    531.351   1479.301    543.144    531.351    531.351
103.170   1448.000   1444.756      3.244    531.110   1432.926    543.061    531.110    531.110
103.270   1460.194   1404.913     55.280    530.872   1392.974    542.925    530.872    530.872
103.370   1303.000   1370.197    -67.197    530.635   1358.221    542.718    530.635    530.635
103.470   1375.581   1338.959     36.623    530.401   1327.033    542.429    530.401    530.401
103.570   1262.880   1309.340    -46.460    530.168   1297.564    542.044    530.168    530.168
103.670   1321.000   1279.518     41.482    529.938   1267.999    541.556    529.938    529.938
103.770   1200.000   1247.969    -47.969    529.710   1236.818    540.960    529.710    529.710
103.870   1195.869   1213.681    -17.812    529.485   1203.003    540.260    529.485    529.485
103.970   1201.000   1176.254     24.746    529.261   1166.142    539.469    529.261    529.261
104.070   1086.000   1135.858    -49.858    529.040   1126.389    538.603    529.040    529.040
104.170   1034.000   1093.085    -59.085    528.821   1084.311    537.685    528.821    528.821
104.270   1084.414   1048.778     35.636    528.605   1040.731    536.738    528.605    528.605
104.370   1001.000   1003.882     -2.882    528.390    996.570    535.784    528.390    528.390
104.470   1011.768    959.328     52.440    528.178    952.740    534.841    528.178    528.178
104.570    943.000    915.973     27.027    527.969    910.084    533.927    527.969    527.969
104.670    937.902    874.560     63.342    527.762    869.331    533.054    527.762    527.762
104.770    808.000    835.701    -27.701    527.558    831.083    532.232    527.558    527.558
104.870    754.223    799.861    -45.638    527.356    795.799    531.466    527.356    527.356
104.970    794.000    767.357     26.643    527.156    763.794    530.762    527.156    527.156
105.070    800.928    738.361     62.566    526.959    735.238    530.119    526.959    526.959
105.170    769.000    712.912     56.088    526.765    710.171    529.537    526.765    526.765
105.270    694.872    690.910      3.962    526.574    688.503    529.007    526.574    526.574
105.370    707.000    672.228     34.772    526.385    670.099    528.535    526.385    526.385
105.470    673.000    656.629     16.371    526.198    654.727    528.117    526.198    526.198
105.570    689.000    643.826     45.174    526.015    642.109    527.745    526.015    526.015
105.670    613.294    633.525    -20.231    525.834    631.956    527.413    525.834    525.834
105.770    641.200    625.436     15.765    525.656    623.982    527.117    525.656    525.656
105.870    615.000    619.288     -4.288    525.481    617.922    526.851    525.481    525.481
105.970    611.000    614.844     -3.844    525.309    613.542    526.613    525.309    525.309
106.070    659.000    611.903     47.097    525.140    610.643    526.399    525.140    525.140
106.170    571.658    610.307    -38.649    524.974    609.070    526.207    524.974    524.974
106.270    621.000    609.939     11.061    524.810    608.709    526.035    524.810    524.810
106.370    598.163    610.722    -12.559    524.650    609.484    525.880    524.650    524.650
106.470    651.418    612.611     38.807    524.492    611.349    525.744    524.492    524.492
106.570    608.000    615.587     -7.587    524.338    614.288    525.624    524.338    524.338
106.670    562.000    619.652    -57.652    524.187    618.301    525.522    524.187    524.187
106.770    660.994    624.818     36.176    524.039    623.402    525.436    524.039    524.039
106.870    644.000    631.102     12.898    523.894    629.606    525.368    523.894    523.894
106.970    646.000    638.514      7.486    523.752    636.924    525.317    523.752    523.752
107.070    651.712    647.052      4.661    523.614    645.354    525.282    523.614    523.614
107.170    710.386    656.688     53.698    523.479    654.868    525.265    523.479    523.479
107.270    668.000    667.363      0.637    523.347    665.409    525.264    523.347    523.347
107.370    696.000    678.975     17.025    523.218    676.876    525.276    523.218    523.218
107.470    660.000    691.377    -31.377    523.093    689.124    525.302    523.093    523.093
107.570    638.000    704.368    -66.368    522.971    701.954    525.337    522.971    522.971
107.670    703.000    717.698    -14.698    522.853    715.122    525.378    522.853    522.853
107.770    752.000    731.069     20.931    522.738    728.332    525.421    522.738    522.738
107.870    774.000    744.137     29.863    522.627    741.246    525.462    522.627    522.627
107.970    782.000    756.526     25.474    522.519    753.493    525.494    522.519    522.519
108.070    728.000    767.847    -39.847    522.415    764.691    525.513    522.415    522.415
108.170    755.000    777.725    -22.725    522.314    774.468    525.513    522.314    522.314
108.270    800.000    785.837     14.163    522.217    782.509    525.489    522.217    522.217
108.370    802.000    791.963     10.037    522.124    788.596    525.438    522.124    522.124
108.470    785.000    796.021    -11.021    522.035    792.648    525.357    522.035    522.035
108.570    786.000    798.091    -12.091    521.949    794.745    525.248    521.949    521.949
108.670    783.000    798.412    -15.412    521.867    795.124    525.112    521.867    521.867
108.770    857.046    797.343     59.703    521.789    794.139    524.954    521.789    521.789
108.870    746.321    795.320    -48.999    521.715    792.221    524.780    521.715    521.715
108.970    755.000    792.798    -37.798    521.644    789.819    524.594    521.644    521.644
109.070    837.939    790.205     47.734    521.578    787.354    524.404    521.578    521.578
109.170    757.000    787.907    -30.907    521.516    785.189    524.213    521.516    521.516
109.270    770.000    786.188    -16.188    521.457    783.602    524.028    521.457    521.457
109.370    738.000    785.233    -47.233    521.403    782.773    523.851    521.403    521.403
109.470    746.000    785.122    -39.122    521.353    782.781    523.686    521.353    521.353
109.570    816.287    785.825     30.462    521.307    783.594    523.534    521.307    521.307
109.670    757.000    787.208    -30.208    521.265    785.075    523.397    521.265    521.265
109.770    741.864    789.034    -47.170    521.227    786.990    523.274    521.227    521.227
109.870    740.229    790.977    -50.748    521.194    789.012    523.165    521.194    521.194
109.970    790.000    792.643     -2.643    521.165    790.749    523.069    521.165    521.165
110.070    735.499    793.598    -58.099    521.140    791.769    522.983    521.140    521.140
110.170    741.667    793.415    -51.748    521.120    791.646    522.905    521.120    521.120
110.270    784.000    791.722     -7.722    521.104    790.011    522.833    521.104    521.104
110.370    799.000    788.251     10.749    521.092    786.599    522.765    521.092    521.092
110.470    769.000    782.875    -13.875    521.085    781.285    522.698    521.085    521.085
110.570    785.000    775.615      9.385    521.083    774.098    522.623    521.083    521.083
110.670    712.269    766.669    -54.400    521.085    765.216    522.563    521.085    521.085
110.770    758.000    756.299      1.701    521.091    754.909    522.506    521.091    521.091
110.870    762.000    744.842     17.158    521.103    743.515    522.453    521.103    521.103
110.970    674.199    732.658    -58.459    521.119    731.395    522.405    521.119    521.119
111.070    736.000    720.104     15.896    521.139    718.902    522.363    521.139    521.139
111.170    702.000    707.510     -5.510    521.165    706.366    522.328    521.165    521.165
111.270    708.000    695.169     12.831    521.195    694.081    522.300    521.195    521.195
111.370    695.609    683.334     12.274    521.230    682.299    522.281    521.230    521.230
111.470    658.000    672.211    -14.211    521.270    671.222    522.272    521.270    521.270
111.570    703.000    661.956     41.044    521.315    661.010    522.272    521.315    521.315
111.670    702.325    652.704     49.620    521.365    651.794    522.283    521.365    521.365
111.770    672.000    644.522     27.478    521.420    643.643    522.305    521.420    521.420
111.870    608.054    637.445    -29.391    521.480    636.591    522.338    521.480    521.480
111.970    644.000    631.473     12.527    521.545    630.639    522.381    521.545    521.545
112.070    599.585    626.577    -26.993    521.615    625.758    522.434    521.615    521.615
112.170    590.274    622.706    -32.432    521.690    621.896    522.498    521.690    521.690
112.270    650.830    619.789     31.041    521.771    618.985    522.572    521.771    521.771
112.370    643.936    617.745     26.191    521.857    616.942    522.655    521.857    521.857
112.470    614.000    616.486     -2.486    521.948    615.682    522.746    521.948    521.948
112.570    637.000    615.923     21.077    522.044    615.114    522.846    522.044    522.044
112.670    580.483    615.969    -35.487    522.146    615.154    522.953    522.146    522.146
112.770    598.000    616.543    -18.543    522.253    615.719    523.067    522.253    522.253
112.870    635.102    617.571     17.531    522.366    616.738    523.188    522.366    522.366
112.970    624.000    618.992      5.008    522.484    618.150    523.316    522.484    522.484
113.070    571.000    620.755    -49.755    522.608    619.903    523.449    522.608    522.608
113.170    658.133    622.823     35.310    522.738    621.961    523.587    522.738    522.738
113.270    669.018    625.174     43.844    522.873    624.302    523.732    522.873    522.873
113.370    669.318    627.800     41.518    523.013    626.918    523.882    523.013    523.013
113.470    600.000    630.713    -30.713    523.160    629.820    524.039    523.160    523.160
113.570    671.994    633.936     38.058    523.312    633.032    524.202    523.312    523.312
113.670    619.000    637.512    -18.512    523.470    636.594    524.373    523.470    523.470
113.770    661.524    641.500     20.024    523.634    640.567    524.552    523.634    523.634
113.870    623.000    645.984    -22.984    523.804    645.032    524.741    523.804    523.804
113.970    694.726    651.072     43.654    523.980    650.096    524.940    523.980    523.980
114.070    604.000    656.904    -52.904    524.161    655.898    525.150    524.161    524.161
114.170    718.487    663.660     54.828    524.349    662.616    525.374    524.349    524.349
114.270    657.367    671.570    -14.203    524.543    670.480    525.612    524.543    524.543
114.370    715.394    680.926     34.468    524.743    679.779    525.867    524.743    524.743
114.470    706.000    692.094     13.906    524.949    690.879    526.140    524.949    524.949
114.570    686.000    705.534    -19.534    525.162    704.234    526.433    525.162    525.162
114.670    707.030    721.812    -14.782    525.381    720.409    526.749    525.381    525.381
114.770    715.000    741.619    -26.619    525.606    740.094    527.091    525.606    525.606
114.870    751.236    765.793    -14.557    525.837    764.122    527.461    525.837    525.837
114.970    773.240    795.330    -22.090    526.075    793.488    527.861    526.075    526.075
115.070    842.000    831.403     10.597    526.319    829.359    528.295    526.319    526.319
115.170    909.000    875.367     33.633    526.570    873.090    528.766    526.570    526.570
115.270    889.000    928.767    -39.767    526.827    926.220    529.277    526.827    526.827
115.370   1014.037    993.328     20.709    527.091    990.471    529.831    527.091    527.091
115.470    980.000   1070.939    -90.939    527.361   1067.731    530.430    527.361    527.361
115.570   1129.098   1163.624    -34.526    527.639   1160.020    531.077    527.639    527.639
115.670   1352.615   1273.495     79.120    527.922   1269.446    531.774    527.922    527.922
115.770   1333.000   1402.687    -69.687    528.213   1398.145    532.523    528.213    528.213
115.870   1581.000   1553.285     27.715    528.511   1548.200    533.325    528.511    528.511
115.970   1713.000   1727.223    -14.223    528.815   1721.544    534.180    528.815    528.815
116.070   1984.000   1926.175     57.825    529.126   1919.853    535.087    529.126    529.126
116.170   2090.914   2151.437    -60.523    529.445   2144.425    536.045    529.445    529.445
116.270   2417.000   2403.797     13.203    529.770   2396.052    537.051    529.770    529.770
116.370   2657.516   2683.410    -25.895    530.102   2674.895    538.099    530.102    530.102
116.470   3087.000   2989.678     97.322    530.442   2980.362    539.185    530.442    530.442
116.570   3380.000   3321.139     58.861    530.789   3311.000    540.301    530.789    530.789
116.670   3606.000   3675.386    -69.386    531.143   3664.412    541.438    531.143    531.143
116.770   3998.000   4049.002    -51.002    531.504   4037.193    542.587    531.504    531.504
116.870   4301.000   4437.529   -136.529    531.872   4424.896    543.739    531.872    531.872
116.970   4575.000   4835.444   -260.444    532.248   4822.010    544.883    532.248    532.248
117.070   5079.000   5236.323   -157.323    532.631   5222.121    546.010    532.631    532.631
117.170   5563.328   5632.758    -69.430    533.022   5617.832    547.113    533.022    533.022
117.270   5864.000   6016.514   -152.514    533.420   6000.920    548.181    533.420    533.420
117.370   6522.267   6378.735    143.532    533.826   6362.538    549.205    533.826    533.826
117.470   6728.000   6710.164     17.836    534.239   6693.440    550.177    534.239    534.239
117.570   6967.000   7001.475    -34.475    534.660   6984.308    551.088    534.660    534.660
117.670   7320.000   7243.709     76.291    535.089   7226.195    551.927    535.089    535.089
117.770   7439.786   7428.832     10.954    535.525   7411.072    552.688    535.525    535.525
117.870   7604.000   7550.342     53.658    535.970   7532.443    553.362    535.970    535.970
117.970   7751.314   7603.867    147.447    536.422   7585.939    553.944    536.422    536.422
118.070   7698.000   7587.613    110.387    536.882   7569.763    554.431    536.882    536.882
118.170   7524.000   7502.552     21.448    537.350   7484.884    554.824    537.350    537.350
118.270   7226.236   7352.315   -126.079    537.826   7334.924    555.126    537.826    537.826
118.370   7099.000   7142.797    -43.797    538.310   7125.771    555.341    538.310    538.310
118.470   6829.000   6881.593    -52.593    538.802   6865.008    555.478    538.802    538.802
118.570   6415.000   6577.372   -162.372    539.303   6561.297    555.543    539.303    539.303
118.670   6067.000   6239.307   -172.307    539.812   6223.798    555.547    539.812    539.812
118.770   5822.000   5876.596    -54.596    540.328   5861.702    555.497    540.328    540.328
118.870   5389.000   5498.102   -109.102    540.854   5483.862    555.403    540.854    540.854
118.970   5180.415   5112.091     68.324    541.387   5098.534    555.275    541.387    541.387
119.070   4762.000   4726.046     35.954    541.929   4713.193    555.124    541.929    541.929
119.170   4428.000   4346.542     81.458    542.480   4334.403    554.960    542.480    542.480
119.270   4022.393   3979.163     43.229    543.039   3967.741    554.794    543.039    543.039
119.370   3700.433   3628.466     71.967    543.607   3617.752    554.636    543.607    543.607
119.470   3345.000   3297.976     47.024    544.183   3287.955    554.497    544.183    544.183
119.570   3085.000   2990.222     94.778    544.768   2980.870    554.387    544.768    544.768
119.670   2761.000   2706.808     54.192    545.362   2698.095    554.312    545.362    545.362
119.770   2371.542   2448.506    -76.964    545.965   2440.395    554.282    545.965    545.965
119.870   2252.000   2215.365     36.635    546.576   2207.815    554.301    546.576    546.576
119.970   2058.000   2006.839     51.161    547.196   1999.805    554.376    547.196    547.196
120.070   1856.275   1821.904     34.371    547.826   1815.337    554.511    547.826    547.826
120.170   1606.000   1659.177    -53.177    548.464   1653.025    554.709    548.464    548.464
120.270   1570.000   1517.025     52.975    549.112   1511.234    554.972    549.112    549.112
120.370   1437.000   1393.657     43.343    549.768   1388.173    555.302    549.768    549.768
120.470   1315.250   1287.215     28.034    550.434   1281.981    555.701    550.434    550.434
120.570   1167.843   1195.840    -27.997    551.109   1190.797    556.171    551.109    551.109
120.670   1052.853   1117.730    -64.877    551.793   1112.821    556.711    551.793    551.793
120.770   1087.000   1051.190     35.810    552.487   1046.355    557.322    552.487    552.487
120.870   1017.624    994.655     22.969    553.190    989.834    558.004    553.190    553.190
120.970    990.000    946.717     43.283    553.903    941.850    558.759    553.903    553.903
121.070    844.446    906.127    -61.681    554.625    901.151    559.587    554.625    554.625
121.170    887.000    871.797     15.203    555.356    866.650    560.489    555.356    555.356
121.270    872.000    842.794     29.206    556.098    837.411    561.465    556.098    556.098
121.370    832.317    818.325     13.992    556.849    812.641    562.517    556.849    556.849
121.470    818.000    797.726     20.274    557.609    791.674    563.647    557.609    557.609
121.570    800.769    780.444     20.326    558.380    773.956    564.855    558.380    558.380
121.670    792.000    766.022     25.978    559.160    759.026    566.145    559.160    559.160
121.770    764.333    754.083     10.251    559.951    746.507    567.517    559.951    559.951
121.870    741.442    744.317     -2.876    560.751    736.088    568.973    560.751    560.751
121.970    687.000    736.470    -49.470    561.561    727.510    570.515    561.561    561.561
122.070    731.000    730.328      0.672    562.382    720.562    572.145    562.382    562.382
122.170    687.000    725.716    -38.716    563.212    715.064    573.862    563.212    563.212
122.270    770.217    722.481     47.736    564.053    710.866    575.668    564.053    564.053
122.370    667.000    720.495    -53.495    564.904    707.838    577.562    564.904    564.904
122.470    705.391    719.642    -14.251    565.766    705.865    579.545    565.766    565.766
122.570    775.448    719.818     55.630    566.638    704.845    581.614    566.638    566.638
122.670    724.000    720.925      3.075    567.520    704.683    583.768    567.520    567.520
122.770    717.288    722.870     -5.582    568.413    705.288    586.001    568.413    568.413
122.870    665.000    725.559    -60.559    569.316    706.575    588.309    569.316    569.316
122.970    727.000    728.897     -1.897    570.230    708.456    590.683    570.230    570.230
123.070    777.130    732.788     44.342    571.154    710.844    593.113    571.154    571.154
123.170    725.000    737.129    -12.129    572.090    713.650    595.585    572.090    572.090
123.270    742.000    741.812      0.188    573.036    716.783    598.083    573.036    573.036
123.370    798.324    746.722     51.602    573.993    720.147    600.590    573.993    573.993
123.470    703.216    751.739    -48.523    574.961    723.642    603.082    574.961    574.961
123.570    777.964    756.736     21.228    575.940    727.168    605.536    575.940    575.940
123.670    777.000    761.582     15.418    576.930    730.617    607.925    576.930    576.930
123.770    760.910    766.141     -5.231    577.931    733.882    610.223    577.931    577.931
123.870    794.093    770.276     23.817    578.943    736.857    612.399    578.943    578.943
123.970    776.513    773.856      2.657    579.967    739.438    614.425    579.967    579.967
124.070    741.000    776.754    -35.754    581.001    741.525    616.273    581.001    581.001
124.170    753.590    778.860    -25.270    582.048    743.033    617.920    582.048    582.048
124.270    802.000    780.081     21.919    583.105    743.890    619.344    583.105    583.105
124.370    823.000    780.354     42.646    584.174    744.046    620.532    584.174    584.174
124.470    764.842    779.641    -14.799    585.255    743.470    621.477    585.255    585.255
124.570    830.000    777.910     52.090    586.347    742.131    622.180    586.347    586.347
124.670    830.000    775.257     54.743    587.451    740.112    622.650    587.451    587.451
124.770    794.000    771.725     22.275    588.566    737.442    622.904    588.566    588.566
124.870    810.000    767.392     42.608    589.693    734.178    622.962    589.693    589.693
124.970    835.000    762.360     72.640    590.833    730.396    622.851    590.833    590.833
