neutron_powder_diffraction_0057
R_wp: 4.031
Temperature (K): 681.992
Counts: 83877.00
Wavelength (Ã…): 2.52098
COMMENTS
Test file for demonstrating the .xyy file format in Reel1.0
END OF HEADER
   tth       Y_obs     Y_calc      Y_res    Background    Phase_1_Nuc    Phase_1_Mag    Phase_2_Nuc    Phase_2_Mag
  9.970    684.000    655.686     28.314    654.414    655.368    654.731    654.414    654.414
 10.070    623.008    655.335    -32.327    653.983    655.014    654.303    653.983    653.983
 10.170    621.044    654.993    -33.949    653.550    654.668    653.874    653.550    653.550
 10.270    614.926    654.661    -39.735    653.115    654.333    653.443    653.115    653.115
 10.370    640.000    654.344    -14.344    652.679    654.012    653.010    652.679    652.679
 10.470    683.226    654.044     29.182    652.241    653.708    652.575    652.241    652.241
 10.570    687.000    653.765     33.235    651.801    653.425    652.139    651.801    651.801
 10.670    646.000    653.513     -7.513    651.359    653.170    651.701    651.359    651.359
 10.770    716.000    653.296     62.704    650.916    652.949    651.262    650.916    650.916
 10.870    693.304    653.123     40.181    650.471    652.772    650.821    650.471    650.471
 10.970    627.000    653.009    -26.009    650.024    652.654    650.378    650.024    650.024
 11.070    676.000    652.972     23.028    649.576    652.612    649.934    649.576    649.576
 11.170    653.000    653.039     -0.039    649.127    652.675    649.488    649.127    649.127
 11.270    678.000    653.251     24.749    648.675    652.883    649.041    648.675    648.675
 11.370    689.000    653.677     35.323    648.223    653.303    648.593    648.223    648.223
 11.470    694.000    654.438     39.562    647.769    654.060    648.144    647.769    647.769
 11.570    724.000    655.829     68.171    647.313    655.446    647.692    647.313    647.313
 11.670    695.000    658.554     36.446    646.857    658.164    647.240    646.857    646.857
 11.770    741.000    664.113     76.887    646.399    663.716    646.787    646.399    646.399
 11.870    702.332    675.013     27.319    645.939    674.605    646.332    645.939    645.939
 11.970    752.000    694.015     57.985    645.478    693.591    645.876    645.478    645.478
 12.070    794.000    721.743     72.257    645.017    721.299    645.418    645.017    645.017
 12.170    814.000    752.777     61.223    644.553    752.310    644.960    644.553    644.553
 12.270    748.000    772.766    -24.766    644.089    772.283    644.501    644.089    644.089
 12.370    768.000    767.740      0.260    643.624    767.255    644.040    643.624    643.624
 12.470    737.000    741.537     -4.537    643.157    741.061    643.579    643.157    643.157
 12.570    719.000    709.803      9.197    642.689    709.339    643.117    642.689    642.689
 12.670    624.000    683.865    -59.865    642.221    683.410    642.653    642.221    642.221
 12.770    642.000    666.797    -24.797    641.751    666.345    642.189    641.751    641.751
 12.870    679.000    656.975     22.025    641.280    656.523    641.724    641.280    641.280
 12.970    681.323    651.592     29.732    640.809    651.137    641.258    640.809    640.809
 13.070    644.469    648.467     -3.998    640.336    648.009    640.791    640.336    640.336
 13.170    619.000    646.400    -27.400    639.863    645.936    640.323    639.863    639.863
 13.270    603.513    644.848    -41.335    639.388    644.379    639.855    639.388    639.388
 13.370    624.000    643.587    -19.587    638.913    643.112    639.385    638.913    638.913
 13.470    616.000    642.513    -26.513    638.437    642.033    638.916    638.437    638.437
 13.570    640.000    641.570     -1.570    637.960    641.084    638.445    637.960    637.960
 13.670    600.807    640.729    -39.922    637.483    640.236    637.974    637.483    637.483
 13.770    656.104    639.976     16.128    637.004    639.477    637.503    637.004    637.004
 13.870    637.943    639.257     -1.315    636.525    638.752    637.030    636.525    636.525
 13.970    596.000    638.579    -42.579    636.046    638.066    636.558    636.046    636.046
 14.070    628.000    637.935     -9.935    635.566    637.415    636.084    635.566    635.566
 14.170    607.000    637.316    -30.316    635.085    636.790    635.610    635.085    635.085
 14.270    610.597    636.718    -26.120    634.603    636.184    635.136    634.603    634.603
 14.370    594.000    636.137    -42.137    634.121    635.596    634.661    634.121    634.121
 14.470    642.000    635.570      6.430    633.639    635.022    634.186    633.639    633.639
 14.570    681.734    635.015     46.718    633.155    634.459    633.711    633.155    633.155
 14.670    606.000    634.470    -28.470    632.672    633.906    633.235    632.672    632.672
 14.770    595.000    633.934    -38.934    632.188    633.362    632.759    632.188    632.188
 14.870    614.000    633.404    -19.404    631.703    632.824    632.283    631.703    631.703
 14.970    631.048    632.880     -1.832    631.219    632.292    631.807    631.219    631.219
 15.070    603.000    632.362    -29.362    630.733    631.765    631.330    630.733    630.733
 15.170    677.000    631.848     45.152    630.248    631.242    630.853    630.248    630.248
 15.270    626.000    631.338     -5.338    629.762    630.723    630.377    629.762    629.762
 15.370    672.000    630.831     41.169    629.276    630.207    629.900    629.276    629.276
 15.470    651.000    630.328     20.672    628.789    629.695    629.423    628.789    628.789
 15.570    673.202    629.830     43.372    628.303    629.187    628.945    628.303    628.303
 15.670    619.215    629.334    -10.119    627.816    628.681    628.468    627.816    627.816
 15.770    645.123    628.838     16.285    627.329    628.176    627.991    627.329    627.329
 15.870    632.261    628.345      3.916    626.842    627.672    627.514    626.842    626.842
 15.970    571.000    627.855    -56.855    626.354    627.171    627.038    626.354    626.354
 16.070    646.592    627.369     19.223    625.867    626.675    626.561    625.867    625.867
 16.170    588.000    626.881    -38.881    625.379    626.176    626.084    625.379    625.379
 16.270    587.000    626.394    -39.394    624.892    625.677    625.608    624.892    624.892
 16.370    637.000    625.908     11.092    624.404    625.180    625.132    624.404    624.404
 16.470    618.000    625.424     -7.424    623.916    624.683    624.657    623.916    623.916
 16.570    576.000    624.941    -48.941    623.429    624.188    624.181    623.429    623.429
 16.670    612.000    624.464    -12.464    622.941    623.699    623.706    622.941    622.941
 16.770    583.000    624.033    -41.033    622.453    623.255    623.231    622.453    622.453
 16.870    614.736    623.582     -8.846    621.966    622.791    622.757    621.966    621.966
 16.970    605.000    623.106    -18.106    621.478    622.302    622.283    621.478    621.478
 17.070    565.000    622.630    -57.630    620.991    621.811    621.809    620.991    620.991
 17.170    632.721    622.155     10.566    620.504    621.322    621.336    620.504    620.504
 17.270    595.204    621.689    -26.485    620.017    620.842    620.864    620.017    620.017
 17.370    584.000    621.237    -37.237    619.530    620.375    620.392    619.530    619.530
 17.470    627.000    620.768      6.232    619.043    619.891    619.921    619.043    619.043
 17.570    585.691    620.309    -34.617    618.557    619.416    619.450    618.557    618.557
 17.670    591.000    619.842    -28.842    618.071    618.932    618.980    618.071    618.071
 17.770    606.000    619.373    -13.373    617.585    618.448    618.511    617.585    617.585
 17.870    581.000    618.913    -37.913    617.099    617.969    618.043    617.099    617.099
 17.970    600.000    618.511    -18.511    616.614    617.540    617.585    616.614    616.614
 18.070    558.000    618.055    -60.055    616.129    617.064    617.120    616.129    616.129
 18.170    661.000    617.592     43.408    615.645    616.583    616.654    615.645    615.645
 18.270    573.000    617.131    -44.131    615.161    616.103    616.189    615.161    615.161
 18.370    592.298    616.671    -24.373    614.677    615.623    615.725    614.677    614.677
 18.470    609.000    616.213     -7.213    614.194    615.145    615.262    614.194    614.194
 18.570    575.000    615.757    -40.757    613.711    614.668    614.800    613.711    613.711
 18.670    657.997    615.313     42.684    613.228    614.202    614.339    613.228    613.228
 18.770    613.000    614.860     -1.860    612.747    613.727    613.880    612.747    612.747
 18.870    650.242    614.408     35.834    612.265    613.252    613.421    612.265    612.265
 18.970    661.515    613.958     47.557    611.784    612.778    612.964    611.784    611.784
 19.070    649.462    613.510     35.952    611.304    612.307    612.508    611.304    611.304
 19.170    646.872    613.064     33.807    610.824    611.836    612.053    610.824    610.824
 19.270    583.000    612.619    -29.619    610.345    611.365    611.600    610.345    610.345
 19.370    570.821    612.176    -41.355    609.867    610.895    611.148    609.867    609.867
 19.470    628.000    611.736     16.264    609.389    610.427    610.697    609.389    609.389
 19.570    599.000    611.311    -12.311    608.911    609.972    610.250    608.911    608.911
 19.670    578.415    610.895    -32.480    608.435    609.526    609.804    608.435    608.435
 19.770    570.000    610.494    -40.494    607.959    609.090    609.363    607.959    607.959
 19.870    629.581    610.098     19.483    607.484    608.661    608.920    607.484    607.484
 19.970    641.000    609.676     31.324    607.009    608.207    608.478    607.009    607.009
 20.070    556.000    609.253    -53.253    606.535    607.750    608.038    606.535    606.535
 20.170    612.924    608.871      4.053    606.062    607.332    607.600    606.062    606.062
 20.270    614.000    608.476      5.524    605.590    606.902    607.165    605.590    605.590
 20.370    628.000    608.082     19.918    605.119    606.470    606.731    605.119    605.119
 20.470    608.000    607.678      0.322    604.648    606.027    606.299    604.648    604.648
 20.570    574.000    607.271    -33.271    604.178    605.579    605.869    604.178    604.178
 20.670    564.000    606.904    -42.904    603.709    605.170    605.443    603.709    603.709
 20.770    644.200    606.503     37.697    603.241    604.726    605.018    603.241    603.241
 20.870    583.000    606.100    -23.100    602.774    604.278    604.596    602.774    602.774
 20.970    642.165    605.703     36.462    602.307    603.834    604.176    602.307    602.307
 21.070    563.000    605.313    -42.313    601.842    603.395    603.760    601.842    601.842
 21.170    564.000    604.929    -40.929    601.377    602.959    603.348    601.377    601.377
 21.270    578.000    604.545    -26.545    600.914    602.522    602.937    600.914    600.914
 21.370    584.000    604.172    -20.172    600.451    602.093    602.530    600.451    600.451
 21.470    619.000    603.803     15.197    599.990    601.665    602.127    599.990    599.990
 21.570    590.411    603.432    -13.021    599.529    601.235    601.726    599.529    599.529
 21.670    572.043    603.066    -31.023    599.069    600.807    601.329    599.069    599.069
 21.770    584.670    602.706    -18.037    598.611    600.382    600.935    598.611    598.611
 21.870    605.000    602.353      2.647    598.153    599.961    600.545    598.153    598.153
 21.970    628.169    602.008     26.161    597.697    599.545    600.159    597.697    597.697
 22.070    609.000    601.669      7.331    597.241    599.132    599.778    597.241    597.241
 22.170    552.832    601.337    -48.505    596.787    598.723    599.401    596.787    596.787
 22.270    572.000    601.014    -29.014    596.334    598.319    599.029    596.334    596.334
 22.370    648.900    600.702     48.198    595.881    597.922    598.661    595.881    595.881
 22.470    551.390    600.399    -49.010    595.430    597.530    598.300    595.430    595.430
 22.570    590.513    600.107     -9.594    594.980    597.145    597.943    594.980    594.980
 22.670    603.000    599.828      3.172    594.532    596.767    597.593    594.532    594.532
 22.770    597.000    599.562     -2.562    594.084    596.398    597.249    594.084    594.084
 22.870    586.000    599.312    -13.312    593.638    596.039    596.911    593.638    593.638
 22.970    579.000    599.079    -20.079    593.193    595.692    596.580    593.193    593.193
 23.070    632.000    598.867     33.133    592.749    595.359    596.258    592.749    592.749
 23.170    577.146    598.679    -21.532    592.306    595.043    595.943    592.306    592.306
 23.270    638.000    598.517     39.483    591.865    594.747    595.636    591.865    591.865
 23.370    604.000    598.388      5.612    591.424    594.475    595.338    591.424    591.424
 23.470    584.000    598.298    -14.298    590.985    594.234    595.050    590.985    590.985
 23.570    582.957    598.255    -15.298    590.548    594.032    594.772    590.548    590.548
 23.670    622.177    598.270     23.906    590.111    593.878    594.505    590.111    590.111
 23.770    598.000    598.362     -0.362    589.676    593.790    594.250    589.676    589.676
 23.870    607.000    598.551      8.449    589.243    593.788    594.007    589.243    589.243
 23.970    579.930    598.871    -18.940    588.810    593.904    593.779    588.810    588.810
 24.070    639.243    599.381     39.862    588.379    594.198    593.565    588.379    588.379
 24.170    576.000    600.206    -24.206    587.949    594.791    593.368    587.949    587.949
 24.270    582.000    601.633    -19.633    587.521    595.971    593.188    587.521    587.521
 24.370    641.805    604.307     37.498    587.094    598.381    593.027    587.094    587.094
 24.470    644.225    609.448     34.778    586.669    603.239    592.887    586.669    586.669
 24.570    635.790    618.776     17.015    586.244    612.267    592.770    586.244    586.244
 24.670    674.000    633.691     40.309    585.822    626.862    592.678    585.822    585.822
 24.770    618.005    653.518    -35.512    585.400    646.346    592.614    585.400    585.400
 24.870    685.000    673.095     11.905    584.981    665.552    592.580    584.981    584.981
 24.970    708.000    682.019     25.981    584.562    674.065    592.580    584.562    584.562
 25.070    704.964    673.455     31.509    584.145    665.039    592.617    584.145    584.145
 25.170    686.030    654.140     31.891    583.730    645.216    592.696    583.730    583.730
 25.270    645.000    634.497     10.503    583.316    625.019    592.822    583.316    583.316
 25.370    701.000    619.759     81.241    582.903    609.679    593.000    582.903    582.903
 25.470    651.000    610.656     40.344    582.492    599.919    593.240    582.492    582.492
 25.570    602.000    605.814     -3.814    582.083    594.357    593.545    582.083    582.083
 25.670    582.000    603.512    -21.512    581.675    591.265    593.926    581.675    581.675
 25.770    651.000    602.545     48.455    581.268    589.422    594.394    581.268    581.268
 25.870    648.000    602.280     45.720    580.864    588.183    594.962    580.864    580.864
 25.970    608.000    602.445      5.555    580.460    587.260    595.646    580.460    580.460
 26.070    639.000    602.939     36.061    580.058    586.534    596.464    580.058    580.058
 26.170    675.000    603.728     71.272    579.658    585.947    597.440    579.658    579.658
 26.270    635.000    604.811     30.189    579.260    585.470    598.601    579.260    579.260
 26.370    625.000    606.208     18.792    578.863    585.088    599.982    578.863    578.863
 26.470    605.091    607.952     -2.862    578.467    584.790    601.629    578.467    578.467
 26.570    632.000    610.090     21.910    578.074    584.573    603.590    578.074    578.074
 26.670    595.000    612.695    -17.695    577.681    584.438    605.937    577.681    577.681
 26.770    569.479    615.864    -46.384    577.291    584.391    608.762    577.291    577.291
 26.870    660.000    619.725     40.275    576.902    584.444    612.181    576.902    576.902
 26.970    628.000    624.454      3.546    576.515    584.615    616.351    576.515    576.515
 27.070    662.000    630.289     31.711    576.129    584.929    621.486    576.129    576.129
 27.170    636.826    637.560     -0.734    575.745    585.422    627.879    575.745    575.745
 27.270    700.000    646.738     53.262    575.363    586.147    635.948    575.363    575.363
 27.370    709.326    658.516     50.810    574.983    587.184    646.308    574.983    574.983
 27.470    621.954    674.016    -52.063    574.604    588.660    659.951    574.604    574.604
 27.570    663.512    695.446    -31.934    574.227    590.826    678.835    574.227    574.227
 27.670    725.840    728.357     -2.517    573.851    594.309    707.882    573.851    573.851
 27.770    841.000    787.950     53.050    573.477    600.822    760.577    573.477    573.477
 27.870    859.269    911.111    -51.841    573.105    614.515    869.645    573.105    573.105
 27.970   1106.000   1166.287    -60.287    572.735    643.090   1095.821    572.735    572.735
 28.070   1651.950   1635.286     16.664    572.367    695.752   1511.699    572.367    572.367
 28.170   2381.902   2340.786     41.116    572.000    775.083   2137.393    572.000    572.000
 28.270   3084.451   3136.644    -52.194    571.635    864.741   2843.162    571.635    571.635
 28.370   3751.225   3659.046     92.179    571.271    924.032   3305.965    571.271    571.271
 28.470   3660.000   3577.418     82.582    570.910    916.218   3231.957    570.910    570.910
 28.570   3030.000   3007.747     22.253    570.550    855.138   2723.148    570.550    570.550
 28.670   2317.961   2372.436    -54.476    570.192    789.539   2153.126    570.192    570.192
 28.770   1945.173   1994.979    -49.805    569.836    757.075   1807.760    569.836    569.836
 28.870   1912.000   1954.512    -42.512    569.482    766.695   1757.288    569.482    569.482
 28.970   2106.000   2128.237    -22.237    569.129    801.632   1895.723    569.129    569.129
 29.070   2175.248   2273.086    -97.838    568.778    827.720   2014.177    568.778    568.778
 29.170   2231.163   2181.130     50.032    568.429    815.224   1934.436    568.429    568.429
 29.270   1823.626   1859.662    -36.036    568.082    766.439   1661.437    568.082    568.082
 29.370   1503.642   1468.748     34.894    567.737    706.563   1330.039    567.737    567.737
 29.470   1148.000   1140.641      7.359    567.393    656.208   1051.908    567.393    567.393
 29.570    927.000    919.642      7.358    567.051    622.298    864.444    567.051    567.051
 29.670    790.000    791.511     -1.511    566.711    602.676    755.572    566.711    566.711
 29.770    697.671    722.924    -25.253    566.373    592.221    697.090    566.373    566.373
 29.870    656.246    685.681    -29.436    566.037    586.599    665.126    566.037    566.037
 29.970    750.000    663.322     86.678    565.703    583.290    645.738    565.703    565.703
 30.070    613.354    648.213    -34.859    565.370    581.138    632.446    565.370    565.370
 30.170    683.000    637.214     45.786    565.040    579.696    622.558    565.040    565.040
 30.270    588.169    629.052    -40.883    564.711    578.834    614.928    564.711    564.711
 30.370    682.000    623.285     58.715    564.384    578.630    609.036    564.384    564.384
 30.470    659.000    620.094     38.906    564.059    579.431    604.717    564.059    564.059
 30.570    658.000    620.362     37.638    563.736    581.966    602.123    563.736    563.736
 30.670    687.000    625.622     61.378    563.415    587.342    601.679    563.415    563.415
 30.770    651.000    637.400     13.600    563.096    596.632    603.839    563.096    563.096
 30.870    644.000    655.712    -11.712    562.778    609.909    608.544    562.778    562.778
 30.970    698.000    676.898     21.102    562.463    624.848    614.463    562.463    562.463
 31.070    697.492    692.198      5.294    562.149    635.807    618.484    562.149    562.149
 31.170    733.805    691.743     42.062    561.837    636.415    617.113    561.837    561.837
 31.270    729.463    674.346     55.117    561.527    625.923    609.908    561.527    561.527
 31.370    690.000    649.080     40.920    561.219    610.235    600.036    561.219    561.219
 31.470    695.000    625.427     69.573    560.913    595.513    590.809    560.913    560.913
 31.570    619.000    607.735     11.265    560.609    584.591    583.742    560.609    560.609
 31.670    589.665    596.278     -6.613    560.307    577.657    578.921    560.307    560.307
 31.770    639.000    589.466     49.534    560.007    573.691    575.777    560.007    560.007
 31.870    622.612    585.468     37.144    559.709    571.513    573.660    559.709    559.709
 31.970    647.000    582.977     64.023    559.412    570.284    572.103    559.412    559.412
 32.070    572.000    581.279     -9.279    559.118    569.545    570.849    559.118    559.118
 32.170    596.000    580.043     15.957    558.825    569.092    569.775    558.825    558.825
 32.270    595.000    579.133     15.867    558.535    568.840    568.826    558.535    558.535
 32.370    562.356    578.488    -16.132    558.246    568.758    567.974    558.246    558.246
 32.470    582.692    578.086      4.607    557.959    568.839    567.204    557.959    557.959
 32.570    601.000    577.921     23.079    557.675    569.088    566.506    557.675    557.675
 32.670    655.000    578.004     76.996    557.392    569.522    565.872    557.392    557.392
 32.770    602.196    578.363     23.834    557.111    570.171    565.301    557.111    557.111
 32.870    567.000    579.039    -12.039    556.832    571.079    564.790    556.832    556.832
 32.970    648.000    580.102     67.898    556.555    572.312    564.343    556.555    556.555
 33.070    600.000    581.652     18.348    556.280    573.965    563.965    556.280    556.280
 33.170    618.000    583.853     34.147    556.007    576.188    563.669    556.007    556.007
 33.270    573.000    586.996    -13.996    555.736    579.250    563.479    555.736    555.736
 33.370    549.323    591.682    -42.359    555.467    583.697    563.447    555.467    555.467
 33.470    561.633    599.224    -37.591    555.200    590.726    563.692    555.200    555.200
 33.570    628.965    612.369     16.596    554.935    602.836    564.459    554.935    554.935
 33.670    590.306    636.112    -45.806    554.672    624.568    566.201    554.672    554.672
 33.770    672.000    677.712     -5.712    554.410    662.526    569.574    554.410    554.410
 33.870    699.240    744.528    -45.288    554.151    723.402    575.245    554.151    554.151
 33.970    871.000    838.783     32.217    553.894    809.220    583.413    553.894    553.894
 34.070    956.000    949.816      6.184    553.638    910.291    593.113    553.638    553.638
 34.170   1006.832   1046.332    -39.500    553.385    998.162    601.509    553.385    553.385
 34.270   1058.000   1081.356    -23.356    553.134   1030.114    604.344    553.134    553.134
 34.370   1034.000   1031.485      2.515    552.884    984.857    599.496    552.884    552.884
 34.470    919.000    927.600     -8.600    552.637    890.468    589.762    552.637    552.637
 34.570    855.141    816.718     38.423    552.391    789.705    579.403    552.391    552.391
 34.670    772.654    726.269     46.385    552.148    707.514    570.902    552.148    552.148
 34.770    640.000    663.759    -23.759    551.906    650.723    564.942    551.906    551.906
 34.870    627.000    625.384      1.616    551.667    615.874    561.176    551.667    551.667
 34.970    623.000    603.417     19.583    551.429    595.940    558.905    551.429    551.429
 35.070    640.119    590.885     49.234    551.193    584.582    557.496    551.193    551.193
 35.170    612.000    583.241     28.759    550.960    577.662    556.537    550.960    550.960
 35.270    595.000    578.078     16.922    550.728    572.994    555.811    550.728    550.728
 35.370    559.102    574.270    -15.168    550.498    569.552    555.216    550.498    550.498
 35.470    562.026    571.303     -9.277    550.271    566.868    554.705    550.271    550.271
 35.570    604.082    568.916     35.166    550.045    564.705    554.254    550.045    550.045
 35.670    548.448    566.957    -18.509    549.821    562.927    553.851    549.821    549.821
 35.770    513.000    565.327    -52.327    549.599    561.439    553.487    549.599    549.599
 35.870    581.000    563.954     17.046    549.379    560.178    553.155    549.379    549.379
 35.970    529.000    562.787    -33.787    549.161    559.095    552.853    549.161    549.161
 36.070    578.000    561.789     16.211    548.945    558.157    552.577    548.945    548.945
 36.170    545.000    560.931    -15.931    548.731    557.336    552.326    548.731    548.731
 36.270    567.000    560.195      6.805    548.519    556.613    552.101    548.519    548.519
 36.370    555.353    559.565     -4.211    548.309    555.972    551.902    548.309    548.309
 36.470    531.328    559.031    -27.704    548.101    555.402    551.730    548.101    548.101
 36.570    552.000    558.590     -6.590    547.895    554.896    551.589    547.895    547.895
 36.670    550.000    558.238     -8.238    547.691    554.446    551.483    547.691    547.691
 36.770    538.000    557.980    -19.980    547.489    554.050    551.418    547.489    547.489
 36.870    537.000    557.824    -20.824    547.288    553.710    551.403    547.288    547.288
 36.970    513.840    557.791    -43.951    547.090    553.431    551.450    547.090    547.090
 37.070    598.553    557.918     40.635    546.894    553.234    551.577    546.894    546.894
 37.170    590.208    558.282     31.927    546.699    553.166    551.815    546.699    546.699
 37.270    581.000    559.033     21.967    546.507    553.320    552.220    546.507    546.507
 37.370    523.000    560.448    -37.448    546.316    553.856    552.908    546.316    546.316
 37.470    557.000    562.977     -5.977    546.128    554.982    554.123    546.128    546.128
 37.570    534.000    567.276    -33.276    545.941    556.885    556.332    545.941    545.941
 37.670    551.000    574.131    -23.131    545.756    559.583    560.304    545.756    545.756
 37.770    553.906    584.202    -30.296    545.574    562.733    567.043    545.574    545.574
 37.870    599.838    597.500      2.339    545.393    565.458    577.435    545.393    545.393
 37.970    569.367    612.883    -43.516    545.214    566.527    591.570    545.214    545.214
 38.070    614.000    628.111    -14.111    545.037    565.321    607.828    545.037    545.037
 38.170    618.000    639.604    -21.604    544.862    562.526    621.943    544.862    544.862
 38.270    679.434    642.091     37.344    544.688    559.228    627.557    544.688    544.688
 38.370    675.223    632.796     42.427    544.517    556.131    621.189    544.517    544.517
 38.470    589.000    615.737    -26.737    544.348    553.599    606.492    544.348    544.348
 38.570    588.000    597.387     -9.387    544.180    551.739    589.833    544.180    544.180
 38.670    563.088    581.839    -18.750    544.015    550.461    575.395    544.015    544.015
 38.770    604.738    570.475     34.262    543.851    549.603    564.726    543.851    543.851
 38.870    552.000    563.015    -11.015    543.690    549.015    557.691    543.690    543.690
 38.970    557.000    558.449     -1.449    543.530    548.591    553.389    543.530    543.530
 39.070    537.000    555.710    -18.710    543.372    548.264    550.819    543.372    543.372
 39.170    585.963    553.999     31.964    543.216    547.995    549.220    543.216    543.216
 39.270    554.000    552.836      1.164    543.062    547.764    548.134    543.062    543.062
 39.370    522.000    551.973    -29.973    542.909    547.559    547.323    542.909    542.909
 39.470    547.597    551.290     -3.692    542.759    547.375    546.674    542.759    542.759
 39.570    546.060    550.728     -4.669    542.610    547.207    546.132    542.610    542.610
 39.670    514.315    550.257    -35.941    542.464    547.055    545.666    542.464    542.464
 39.770    613.000    549.854     63.146    542.319    546.916    545.258    542.319    542.319
 39.870    506.894    549.508    -42.614    542.176    546.790    544.895    542.176    542.176
 39.970    545.000    549.209     -4.209    542.035    546.675    544.569    542.035    542.035
 40.070    512.000    548.948    -36.948    541.896    546.573    544.272    541.896    541.896
 40.170    522.000    548.722    -26.722    541.758    546.482    543.999    541.758    541.758
 40.270    567.770    548.525     19.244    541.623    546.403    543.746    541.623    541.623
 40.370    524.000    548.357    -24.357    541.489    546.337    543.510    541.489    541.489
 40.470    592.356    548.215     44.141    541.357    546.284    543.288    541.357    541.357
 40.570    573.000    548.098     24.902    541.227    546.246    543.080    541.227    541.227
 40.670    495.000    548.007    -53.007    541.099    546.224    542.882    541.099    541.099
 40.770    589.954    547.941     42.012    540.973    546.220    542.694    540.973    540.973
 40.870    540.752    547.903     -7.151    540.848    546.236    542.516    540.848    540.848
 40.970    537.384    547.894    -10.510    540.726    546.275    542.345    540.726    540.726
 41.070    525.944    547.918    -21.974    540.605    546.342    542.182    540.605    540.605
 41.170    565.000    547.980     17.020    540.486    546.440    542.026    540.486    540.486
 41.270    512.088    548.084    -35.996    540.368    546.576    541.877    540.368    540.368
 41.370    521.215    548.240    -27.026    540.253    546.760    541.734    540.253    540.253
 41.470    549.000    548.459      0.541    540.139    547.000    541.599    540.139    540.139
 41.570    590.691    548.755     41.936    540.027    547.314    541.470    540.027    540.027
 41.670    541.000    549.152     -8.152    539.917    547.722    541.348    539.917    539.917
 41.770    522.933    549.686    -26.753    539.808    548.260    541.235    539.808    539.808
 41.870    544.613    550.423     -5.810    539.702    548.994    541.133    539.702    539.702
 41.970    479.000    551.495    -72.495    539.597    550.050    541.045    539.597    539.597
 42.070    573.000    553.165     19.835    539.494    551.681    540.981    539.494    539.494
 42.170    510.072    555.917    -45.845    539.392    554.359    540.956    539.392    539.392
 42.270    599.157    560.550     38.606    539.292    558.852    540.997    539.292    539.292
 42.370    557.395    568.153    -10.758    539.195    566.216    541.141    539.195    539.195
 42.470    622.834    579.858     42.976    539.098    577.545    541.426    539.098    539.098
 42.570    571.779    596.288    -24.509    539.004    593.441    541.873    539.004    539.004
 42.670    607.000    616.744     -9.744    538.911    613.230    542.458    538.911    538.911
 42.770    593.000    638.274    -45.274    538.820    634.056    543.082    538.820    538.820
 42.870    588.000    655.093    -67.093    538.731    650.329    543.550    538.731    538.731
 42.970    620.000    660.258    -40.258    538.643    655.333    543.628    538.643    538.643
 43.070    615.000    651.014    -36.014    538.557    646.404    543.224    538.557    538.557
 43.170    639.000    631.877      7.123    538.473    627.909    542.490    538.473    538.473
 43.270    582.000    610.024    -28.024    538.390    606.784    541.667    538.390    538.390
 43.370    560.000    590.471    -30.471    538.309    587.883    540.924    538.309    538.309
 43.470    581.000    575.386      5.614    538.230    573.301    540.333    538.230    538.230
 43.570    530.000    564.960    -34.960    538.153    563.222    539.901    538.153    538.153
 43.670    570.000    558.329     11.671    538.077    556.814    539.600    538.077    538.077
 43.770    569.879    554.321     15.557    538.002    552.941    539.389    538.002    538.002
 43.870    569.000    551.915     17.085    537.930    550.615    539.234    537.930    537.930
 43.970    515.000    550.411    -35.411    537.859    549.161    539.111    537.859    537.859
 44.070    548.000    549.402     -1.402    537.789    548.186    539.008    537.789    537.789
 44.170    577.000    548.677     28.323    537.721    547.484    538.916    537.721    537.721
 44.270    544.000    548.130     -4.130    537.655    546.954    538.833    537.655    537.655
 44.370    572.000    547.708     24.292    537.591    546.544    538.756    537.591    537.591
 44.470    587.901    547.380     40.521    537.528    546.224    538.685    537.528    537.528
 44.570    501.000    547.126    -46.126    537.466    545.975    538.619    537.466    537.466
 44.670    523.208    546.932    -23.724    537.407    545.783    538.556    537.407    537.407
 44.770    583.573    546.789     36.784    537.348    545.640    538.498    537.348    537.348
 44.870    558.000    546.690     11.310    537.292    545.538    538.444    537.292    537.292
 44.970    533.000    546.628    -13.628    537.237    545.471    538.394    537.237    537.237
 45.070    527.991    546.599    -18.608    537.183    545.436    538.347    537.183    537.183
 45.170    535.000    546.602    -11.602    537.131    545.430    538.304    537.131    537.131
 45.270    565.000    546.633     18.367    537.081    545.450    538.264    537.081    537.081
 45.370    552.000    546.691      5.309    537.032    545.495    538.227    537.032    537.032
 45.470    570.000    546.776     23.224    536.984    545.565    538.195    536.984    536.984
 45.570    565.000    546.886     18.114    536.939    545.659    538.166    536.939    536.939
 45.670    591.000    547.023     43.977    536.894    545.776    538.141    536.894    536.894
 45.770    608.000    547.187     60.813    536.851    545.918    538.119    536.851    536.851
 45.870    512.000    547.379    -35.379    536.810    546.086    538.102    536.810    536.810
 45.970    501.006    547.600    -46.594    536.770    546.281    538.089    536.770    536.770
 46.070    584.139    547.854     36.285    536.732    546.504    538.081    536.732    536.732
 46.170    568.000    548.143     19.857    536.695    546.759    538.077    536.695    536.695
 46.270    570.737    548.470     22.268    536.659    547.049    538.079    536.659    536.659
 46.370    584.252    548.840     35.412    536.625    547.378    538.087    536.625    536.625
 46.470    566.000    549.260     16.740    536.593    547.752    538.100    536.593    536.593
 46.570    516.000    549.737    -33.737    536.562    548.176    538.121    536.562    536.562
 46.670    593.824    550.280     43.544    536.532    548.661    538.149    536.532    536.532
 46.770    532.083    550.903    -18.820    536.504    549.218    538.187    536.504    536.504
 46.870    560.000    551.627      8.373    536.477    549.867    538.235    536.477    536.477
 46.970    532.000    552.484    -20.484    536.451    550.636    538.297    536.451    536.451
 47.070    553.000    553.535     -0.535    536.427    551.583    538.376    536.427    536.427
 47.170    572.000    554.893     17.107    536.404    552.811    538.483    536.404    536.404
 47.270    550.000    556.767     -6.767    536.383    554.514    538.632    536.383    536.383
 47.370    577.000    559.506     17.494    536.363    557.013    538.849    536.363    536.363
 47.470    577.033    563.626     13.407    536.345    560.788    539.174    536.345    536.345
 47.570    614.000    569.766     44.234    536.327    566.425    539.655    536.327    536.327
 47.670    539.000    578.516    -39.516    536.311    574.474    540.334    536.311    536.311
 47.770    554.375    590.127    -35.752    536.297    585.165    541.232    536.297    536.297
 47.870    600.338    604.127     -3.790    536.284    598.060    542.315    536.284    536.284
 47.970    633.996    618.902     15.094    536.272    611.663    543.465    536.272    536.272
 48.070    613.676    631.389    -17.712    536.261    623.141    544.456    536.261    536.261
 48.170    604.300    637.717    -33.417    536.252    628.909    545.004    536.252    536.252
 48.270    652.000    635.734     16.266    536.244    626.974    544.953    536.244    536.244
 48.370    629.000    627.068      1.932    536.237    618.838    544.424    536.237    536.237
 48.470    590.000    615.529    -25.529    536.231    608.025    543.702    536.231    536.231
 48.570    623.000    604.461     18.539    536.227    597.625    543.039    536.227    536.227
 48.670    550.490    595.814    -45.324    536.224    589.438    542.582    536.224    536.224
 48.770    561.525    590.340    -28.815    536.223    584.155    542.395    536.223    536.223
 48.870    636.542    588.013     48.529    536.222    581.742    542.483    536.222    536.222
 48.970    581.742    588.425     -6.683    536.223    581.814    542.827    536.223    536.223
 49.070    571.254    591.132    -19.879    536.225    583.943    543.409    536.225    536.225
 49.170    582.000    595.888    -13.888    536.228    587.877    544.233    536.228    536.228
 49.270    536.000    602.838    -66.838    536.232    593.712    545.354    536.232    536.232
 49.370    577.000    612.831    -35.831    536.238    602.144    546.918    536.238    536.238
 49.470    581.483    628.090    -46.608    536.245    615.047    549.280    536.245    536.245
 49.570    680.985    653.544     27.442    536.253    636.581    553.203    536.253    536.253
 49.670    687.503    698.770    -11.267    536.262    674.843    560.169    536.262    536.262
 49.770    776.000    779.764     -3.764    536.272    743.355    572.645    536.272    536.272
 49.870    952.404    918.422     33.982    536.283    860.635    594.009    536.283    536.283
 49.970   1124.000   1137.029    -13.029    536.296   1045.529    627.701    536.296    536.296
 50.070   1306.000   1446.513   -140.513    536.309   1307.282    675.405    536.309    536.309
 50.170   1870.331   1831.153     39.178    536.324   1632.613    734.697    536.324    536.324
 50.270   2205.147   2235.637    -30.490    536.340   1974.759    797.041    536.340    536.340
 50.370   2500.114   2561.850    -61.736    536.357   2250.768    847.294    536.357    536.357
 50.470   2669.000   2694.309    -25.309    536.375   2362.996    867.628    536.375    536.375
 50.570   2557.237   2574.994    -17.757    536.394   2262.377    849.061    536.394    536.394
 50.670   2172.922   2258.212    -85.291    536.414   1994.838    799.925    536.414    536.414
 50.770   1865.000   1858.885      6.115    536.435   1657.602    737.892    536.435    536.435
 50.870   1533.383   1477.022     56.361    536.458   1335.319    678.330    536.458    536.458
 50.970   1197.274   1170.296     26.979    536.481   1076.827    630.091    536.481    536.481
 51.070    913.000    956.119    -43.119    536.505    896.874    595.857    536.505    536.505
 51.170    821.000    824.080     -3.080    536.530    786.586    574.103    536.530    536.530
 51.270    745.000    751.040     -6.040    536.557    726.198    561.456    536.557    536.557
 51.370    682.000    713.005    -31.005    536.584    695.076    554.558    536.584    536.584
 51.470    720.000    691.373     28.627    536.612    677.065    550.959    536.612    536.612
 51.570    708.000    675.049     32.951    536.642    662.508    549.216    536.642    536.642
 51.670    693.000    659.841     33.159    536.672    647.938    548.602    536.672    536.672
 51.770    634.000    645.561    -11.561    536.703    633.564    548.722    536.703    536.703
 51.870    613.000    633.299    -20.299    536.735    620.608    549.442    536.735    536.735
 51.970    648.371    623.711     24.661    536.768    609.989    550.500    536.768    536.768
 52.070    577.105    616.742    -39.637    536.802    602.074    551.476    536.802    536.802
 52.170    657.000    611.821     45.179    536.837    596.766    551.896    536.837    536.837
 52.270    645.000    608.256     36.744    536.873    593.710    551.421    536.873    536.873
 52.370    616.303    605.673     10.630    536.910    592.506    550.078    536.910    536.910
 52.470    642.438    604.141     38.297    536.947    592.866    548.224    536.947    536.947
 52.570    613.000    604.025      8.975    536.986    594.730    546.282    536.986    536.986
 52.670    614.000    605.901      8.099    537.025    598.361    544.566    537.025    537.025
 52.770    653.000    610.678     42.322    537.065    604.503    543.241    537.065    537.065
 52.870    568.964    619.841    -50.876    537.106    614.590    542.357    537.106    537.106
 52.970    621.039    635.732    -14.693    537.148    630.976    541.903    537.148    537.148
 53.070    709.324    661.686     47.638    537.191    657.025    541.849    537.191    537.191
 53.170    695.000    701.761     -6.761    537.235    696.812    542.179    537.235    537.235
 53.270    710.321    759.844    -49.524    537.279    754.224    542.893    537.279    537.279
 53.370    814.217    838.067    -23.850    537.324    831.401    543.982    537.324    537.324
 53.470    948.000    934.758     13.242    537.370    926.722    545.399    537.370    537.370
 53.570   1084.000   1042.252     41.748    537.416   1032.655    547.009    537.416    537.416
 53.670   1187.000   1144.955     42.045    537.464   1133.861    548.560    537.464    537.464
 53.770   1179.162   1219.565    -40.403    537.512   1207.405    549.684    537.512    537.512
 53.870   1263.000   1242.449     20.551    537.561   1230.027    550.006    537.561    537.561
 53.970   1123.000   1204.914    -81.914    537.610   1193.167    549.387    537.610    537.610
 54.070   1089.346   1120.831    -31.485    537.661   1110.478    548.045    537.661    537.661
 54.170    975.000   1015.346    -40.346    537.712   1006.713    546.373    537.712    537.712
 54.270    873.313    910.233    -36.919    537.763    903.308    544.713    537.763    537.763
 54.370    762.000    818.825    -56.825    537.816    813.387    543.272    537.816    537.816
 54.470    757.949    746.911     11.038    537.869    742.652    542.141    537.869    537.869
 54.570    692.000    694.872     -2.872    537.923    691.478    541.326    537.923    537.923
 54.670    626.511    659.849    -33.337    537.977    657.051    540.781    537.977    537.977
 54.770    668.024    637.691     30.333    538.032    635.291    540.436    538.032    538.032
 54.870    650.000    624.345     25.655    538.088    622.236    540.199    538.088    538.088
 54.970    634.000    616.710     17.290    538.144    614.789    540.066    538.144    538.144
 55.070    617.000    612.661      4.339    538.201    610.854    540.010    538.201    538.201
 55.170    601.000    610.903     -9.903    538.258    609.171    539.990    538.258    538.258
 55.270    632.049    610.748     21.300    538.316    609.071    539.994    538.316    538.316
 55.370    609.000    611.878     -2.878    538.375    610.238    540.015    538.375    538.375
 55.470    642.172    614.186     27.986    538.434    612.570    540.050    538.434    538.434
 55.570    625.000    617.701      7.299    538.494    616.097    540.098    538.494    538.494
 55.670    635.000    622.579     12.421    538.554    620.976    540.158    538.554    538.554
 55.770    654.000    629.156     24.844    538.615    627.540    540.231    538.615    538.615
 55.870    626.000    638.084    -12.084    538.677    636.441    540.318    538.677    538.677
 55.970    649.000    650.622     -1.622    538.738    648.933    540.426    538.738    538.738
 56.070    659.780    669.107     -9.327    538.801    667.343    540.561    538.801    538.801
 56.170    684.000    697.619    -13.619    538.864    695.735    540.741    538.864    538.864
 56.270    718.000    742.687    -24.687    538.927    740.612    540.990    538.927    538.927
 56.370    758.162    813.641    -55.479    538.991    811.267    541.345    538.991    538.991
 56.470    902.000    921.987    -19.987    539.055    919.161    541.851    539.055    539.055
 56.570   1013.000   1079.201    -66.201    539.120   1075.726    542.552    539.120    539.120
 56.670   1338.863   1292.726     46.136    539.185   1288.378    543.477    539.185    539.185
 56.770   1528.993   1560.713    -31.720    539.251   1555.279    544.621    539.251    539.251
 56.870   1804.738   1866.535    -61.797    539.317   1859.871    545.920    539.317    539.317
 56.970   2173.000   2174.127     -1.127    539.383   2166.234    547.236    539.383    539.383
 57.070   2373.211   2426.907    -53.696    539.450   2418.009    548.351    539.450    539.450
 57.170   2599.000   2559.543     39.457    539.517   2550.111    549.015    539.517    539.517
 57.270   2584.073   2530.084     53.989    539.584   2520.735    549.068    539.584    539.584
 57.370   2434.000   2349.363     84.637    539.652   2340.642    548.555    539.652    539.652
 57.470   2152.632   2072.205     80.427    539.721   2064.430    547.693    539.721    539.721
 57.570   1701.000   1762.862    -61.862    539.789   1756.097    546.739    539.789    539.789
 57.670   1404.489   1470.770    -66.281    539.858   1464.885    545.902    539.858    539.858
 57.770   1248.616   1224.761     23.855    539.927   1219.490    545.322    539.927    539.927
 57.870   1009.694   1035.897    -26.203    539.997   1030.878    545.105    539.997    539.997
 57.970    829.000    902.656    -73.656    540.067    897.423    545.360    540.067    540.067
 58.070    773.114    816.629    -43.515    540.137    810.549    546.254    540.137    540.137
 58.170    765.000    767.586     -2.586    540.207    759.756    548.056    540.207    540.207
 58.270    793.279    746.920     46.359    540.278    736.054    551.148    540.278    540.278
 58.370    701.000    749.101    -48.101    540.349    733.475    555.966    540.349    540.349
 58.470    828.008    771.433     56.574    540.420    748.970    562.863    540.420    540.420
 58.570    775.000    812.738    -37.738    540.491    781.309    571.889    540.491    540.491
 58.670    879.000    871.625      7.375    540.563    829.580    582.567    540.563    540.563
 58.770    891.000    944.806    -53.806    540.634    891.669    593.725    540.634    540.634
 58.870   1039.000   1025.859     13.141    540.706    963.046    603.473    540.706    540.706
 58.970   1068.000   1105.354    -37.354    540.779   1036.551    609.541    540.779    540.779
 59.070   1210.000   1173.494     36.506    540.851   1104.130    610.188    540.851    540.851
 59.170   1200.451   1223.733    -23.283    540.923   1159.380    605.267    540.923    540.923
 59.270   1311.000   1253.091     57.909    540.996   1197.761    596.332    540.996    540.996
 59.370   1271.524   1259.729     11.795    541.069   1215.179    585.640    541.069    541.069
 59.470   1215.202   1243.809    -28.607    541.142   1209.826    575.154    541.142    541.142
 59.570   1239.000   1211.450     27.550    541.215   1186.542    566.149    541.215    541.215
 59.670   1168.658   1174.763     -6.105    541.288   1156.867    559.193    541.288    541.288
 59.770   1151.000   1146.729      4.271    541.361   1133.779    554.292    541.361    541.361
 59.870   1144.000   1136.841      7.159    541.434   1127.117    551.102    541.434    541.434
 59.970   1173.000   1150.584     22.416    541.508   1142.840    549.152    541.508    541.508
 60.070   1131.000   1190.651    -59.651    541.581   1184.074    548.011    541.581    541.581
 60.170   1337.000   1256.529     80.471    541.655   1250.623    547.366    541.655    541.655
 60.270   1316.839   1341.779    -24.941    541.728   1336.255    547.015    541.728    541.728
 60.370   1484.000   1431.544     52.456    541.802   1426.240    546.837    541.802    541.802
 60.470   1631.000   1502.820    128.180    541.875   1497.666    546.751    541.875    541.875
 60.570   1631.000   1530.111    100.889    541.949   1525.097    546.702    541.949    541.949
 60.670   1557.615   1497.563     60.053    542.023   1492.708    546.657    542.023    542.023
 60.770   1457.048   1408.930     48.118    542.096   1404.243    546.614    542.096    542.096
 60.870   1396.000   1284.162    111.838    542.170   1279.618    546.593    542.170    542.170
 60.970   1086.565   1147.401    -60.836    542.243   1142.941    546.622    542.243    542.243
 61.070   1079.228   1018.271     60.957    542.317   1013.799    546.736    542.317    542.317
 61.170    959.589    909.256     50.333    542.390    904.638    546.974    542.390    542.390
 61.270    871.000    826.262     44.738    542.463    821.308    547.392    542.463    542.463
 61.370    798.284    770.387     27.898    542.537    764.818    548.081    542.537    542.537
 61.470    731.000    740.171     -9.171    542.610    733.570    549.183    542.610    542.610
 61.570    737.894    733.751      4.143    542.683    725.489    550.908    542.683    542.683
 61.670    786.000    750.304     35.696    542.756    739.478    553.532    542.756    542.756
 61.770    759.901    790.415    -30.514    542.829    775.810    557.366    542.829    542.829
 61.870    816.232    855.317    -39.085    542.902    835.439    562.688    542.902    542.902
 61.970    943.000    945.264     -2.264    542.974    918.483    569.636    542.974    542.974
 62.070   1096.000   1057.522     38.478    543.047   1022.335    578.086    543.047    543.047
 62.170   1145.000   1184.463    -39.463    543.119   1139.879    587.529    543.119    543.119
 62.270   1377.122   1312.192     64.930    543.191   1258.201    596.992    543.191    543.191
 62.370   1468.899   1420.458     48.441    543.263   1358.493    605.036    543.263    543.263
 62.470   1504.847   1485.948     18.899    543.334   1419.111    609.997    543.334    543.334
 62.570   1470.000   1491.047    -21.047    543.406   1423.692    610.618    543.406    543.406
 62.670   1394.000   1433.861    -39.861    543.477   1370.466    606.768    543.477    543.477
 62.770   1259.000   1329.525    -70.525    543.548   1273.470    599.534    543.548    543.548
 62.870   1086.000   1201.105   -115.105    543.619   1154.109    590.573    543.619    543.619
 62.970   1009.000   1069.765    -60.765    543.690   1032.026    581.406    543.690    543.690
 63.070    980.850    950.415     30.435    543.760    921.060    573.103    543.760    543.760
 63.170    788.000    851.310    -63.310    543.830    828.871    566.262    543.830    543.830
 63.270    725.000    775.116    -50.116    543.900    757.933    561.078    543.900    543.900
 63.370    741.000    720.497     20.503    543.969    707.001    557.460    543.969    543.969
 63.470    705.000    683.881     21.119    544.038    672.754    555.158    544.038    544.038
 63.570    615.000    661.053    -46.053    544.107    651.270    553.881    544.107    544.107
 63.670    680.000    648.287     31.713    544.176    639.074    553.377    544.176    544.176
 63.770    618.000    642.968    -24.968    544.244    633.708    553.490    544.244    544.244
 63.870    660.000    643.784     16.216    544.312    633.895    554.183    544.312    544.312
 63.970    646.000    650.665     -4.665    544.379    639.469    555.554    544.379    544.379
 64.070    653.000    664.581    -11.581    544.446    651.153    557.846    544.446    544.446
 64.170    687.000    687.288     -0.288    544.513    670.305    561.457    544.513    544.513
 64.270    758.480    720.788     37.692    544.580    698.412    566.905    544.580    544.580
 64.370    772.000    766.798      5.202    544.646    736.609    574.767    544.646    544.646
 64.470    858.656    825.980     32.676    544.711    785.045    585.559    544.711    544.711
 64.570    968.000    897.111     70.889    544.776    842.234    599.547    544.776    544.776
 64.670   1102.000    976.271    125.729    544.841    904.447    616.538    544.841    544.841
 64.770   1160.000   1056.223    103.777    544.905    965.307    635.680    544.905    544.905
 64.870   1147.000   1126.553     20.447    544.969   1016.063    655.311    544.969    544.969
 64.970   1229.000   1175.595     53.405    545.033   1047.556    672.927    545.033    545.033
 65.070   1243.000   1194.341     48.659    545.096   1053.872    685.433    545.096    545.096
 65.170   1268.000   1179.978     88.022    545.158   1035.042    689.985    545.158    545.158
 65.270   1113.645   1136.705    -23.060    545.220    996.489    685.354    545.220    545.220
 65.370   1101.000   1073.912     27.088    545.281    946.411    672.730    545.281    545.281
 65.470   1057.000   1002.655     54.345    545.342    892.981    654.990    545.342    545.342
 65.570    886.000    932.252    -46.252    545.403    842.365    635.284    545.403    545.403
 65.670    843.000    868.635    -25.635    545.463    797.975    616.131    545.463    545.463
 65.770    797.000    814.389    -17.389    545.522    760.752    599.178    545.522    545.522
 65.870    819.145    769.742     49.403    545.581    730.092    585.254    545.581    545.581
 65.970    740.000    733.797      6.203    545.639    704.927    574.532    545.639    545.639
 66.070    752.042    705.407     46.635    545.697    684.395    566.729    545.697    545.697
 66.170    629.000    683.464    -54.464    545.754    667.922    561.313    545.754    545.754
 66.270    631.374    666.928    -35.555    545.811    655.063    557.688    545.811    545.811
 66.370    621.818    654.869    -33.051    545.867    645.432    555.312    545.867    545.867
 66.470    640.000    646.531     -6.531    545.922    638.701    553.756    545.922    545.922
 66.570    640.000    641.346     -1.346    545.977    634.606    552.720    545.977    545.977
 66.670    610.000    638.923    -28.923    546.031    632.949    552.005    546.031    546.031
 66.770    620.877    639.036    -18.159    546.085    633.626    551.494    546.085    546.085
 66.870    671.645    641.671     29.974    546.138    636.688    551.120    546.138    546.138
 66.970    602.088    647.127    -45.039    546.190    642.469    550.847    546.190    546.190
 67.070    632.000    656.189    -24.189    546.241    651.767    550.663    546.241    546.241
 67.170    672.000    670.354      1.646    546.292    666.078    550.567    546.292    546.292
 67.270    703.000    692.105     10.895    546.342    687.871    550.575    546.342    546.342
 67.370    720.385    725.142     -4.756    546.392    720.816    550.714    546.392    546.392
 67.470    755.643    774.468    -18.825    546.441    769.879    551.023    546.441    546.441
 67.570    845.000    846.151     -1.151    546.489    841.074    551.555    546.489    546.489
 67.670    928.043    946.587    -18.544    546.536    940.745    552.365    546.536    546.536
 67.770   1088.000   1081.188      6.812    546.583   1074.258    553.497    546.583    546.583
 67.870   1274.000   1252.584     21.416    546.629   1244.223    554.975    546.629    546.629
 67.970   1448.006   1458.591    -10.585    546.674   1448.481    556.777    546.674    546.674
 68.070   1685.601   1690.302     -4.702    546.718   1678.209    558.820    546.718    546.718
 68.170   1868.000   1930.562    -62.562    546.762   1916.409    560.949    546.762    546.762
 68.270   2188.000   2153.247     34.753    546.805   2137.198    562.927    546.805    546.805
 68.370   2344.000   2324.991     19.009    546.847   2307.510    564.452    546.847    546.847
 68.470   2374.545   2412.518    -37.973    546.888   2394.363    565.222    546.888    546.888
 68.570   2336.000   2395.949    -59.949    546.929   2378.050    565.058    546.929    546.929
 68.670   2245.000   2279.384    -34.384    546.969   2262.621    563.995    546.969    546.969
 68.770   2020.000   2088.414    -68.414    547.008   2073.430    562.265    547.008    547.008
 68.870   1853.000   1857.375     -4.375    547.046   1844.506    560.176    547.046    547.046
 68.970   1560.000   1617.717    -57.717    547.083   1607.020    558.013    547.083    547.083
 69.070   1314.000   1392.777    -78.777    547.119   1384.109    555.985    547.119    547.119
 69.170   1258.328   1197.041     61.287    547.155   1190.131    554.224    547.155    547.155
 69.270   1089.005   1037.158     51.847    547.190   1031.683    552.788    547.190    547.190
 69.370    859.855    913.615    -53.760    547.223    909.248    551.682    547.223    547.223
 69.470    814.000    822.714     -8.714    547.256    819.163    550.873    547.256    547.256
 69.570    792.000    758.566     33.434    547.288    755.593    550.307    547.288    547.288
 69.670    789.000    714.753     74.247    547.320    712.178    549.926    547.320    547.320
 69.770    707.000    685.459     21.541    547.350    683.152    549.678    547.350    547.350
 69.870    737.000    666.020     70.980    547.379    663.893    549.520    547.379    547.379
 69.970    638.000    653.042    -15.042    547.408    651.038    549.422    547.408    547.408
 70.070    655.549    644.243     11.306    547.435    642.325    549.360    547.435    547.435
 70.170    608.000    638.194    -30.194    547.462    636.333    549.327    547.462    547.462
 70.270    675.167    634.042     41.125    547.487    632.218    549.314    547.487    547.487
 70.370    677.203    631.312     45.891    547.512    629.511    549.314    547.512    547.512
 70.470    620.974    629.763     -8.790    547.536    627.971    549.328    547.536    547.536
 70.570    632.868    629.312      3.556    547.558    627.516    549.353    547.558    547.558
 70.670    618.000    630.003    -12.003    547.580    628.188    549.392    547.580    547.580
 70.770    609.586    632.025    -22.439    547.601    630.175    549.447    547.601    547.601
 70.870    640.000    635.767      4.233    547.621    633.859    549.523    547.621    547.621
 70.970    596.541    641.913    -45.371    547.640    639.915    549.628    547.640    547.640
 71.070    688.000    651.569     36.431    547.657    649.435    549.779    547.657    547.657
 71.170    627.000    666.409    -39.409    547.674    664.070    549.995    547.674    547.674
 71.270    678.800    688.794     -9.994    547.690    686.151    550.307    547.690    547.690
 71.370    684.533    721.797    -37.264    547.705    718.710    550.756    547.705    547.705
 71.470    772.954    769.065      3.888    547.718    765.346    551.387    547.718    547.718
 71.570    788.294    834.420    -46.127    547.731    829.831    552.251    547.731    547.731
 71.670    928.161    921.179      6.982    547.743    915.439    553.389    547.743    547.743
 71.770   1039.214   1031.223      7.990    547.753   1024.028    554.827    547.753    547.753
 71.870   1154.000   1163.953     -9.953    547.763   1155.006    556.557    547.763    547.763
 71.970   1319.786   1315.274      4.512    547.771   1304.332    558.528    547.771    547.771
 72.070   1449.000   1476.768    -27.768    547.778   1463.698    560.633    547.778    547.778
 72.170   1558.585   1635.131    -76.546    547.785   1619.975    562.703    547.785    547.785
 72.270   1711.000   1772.262    -61.262    547.790   1755.295    564.507    547.790    547.790
 72.370   1811.972   1867.249    -55.277    547.794   1849.019    565.780    547.794    547.794
 72.470   1976.080   1901.926     74.154    547.797   1883.213    566.290    547.797    547.797
 72.570   1859.000   1868.736     -9.736    547.798   1850.411    565.941    547.798    547.798
 72.670   1760.000   1774.817    -14.817    547.799   1757.652    564.824    547.799    547.799
 72.770   1695.000   1638.106     56.894    547.799   1622.639    563.168    547.799    547.799
 72.870   1448.000   1479.501    -31.501    547.797   1465.997    561.238    547.797    547.797
 72.970   1283.471   1317.208    -33.737    547.794   1305.704    559.261    547.794    547.794
 73.070   1173.000   1164.660      8.340    547.790   1155.028    557.405    547.790    547.790
 73.170   1044.586   1030.394     14.192    547.785   1022.403    555.769    547.785    547.785
 73.270    904.558    918.599    -14.041    547.779    911.975    554.402    547.779    547.779
 73.370    867.000    829.960     37.040    547.772    824.423    553.310    547.772    547.772
 73.470    772.000    762.665      9.335    547.763    757.957    552.474    547.763    547.763
 73.570    754.000    713.462     40.538    547.754    709.354    551.863    547.754    547.754
 73.670    719.000    678.578     40.422    547.743    674.878    551.443    547.743    547.743
 73.770    681.000    654.410     26.590    547.730    650.956    551.185    547.730    547.730
 73.870    644.148    637.921      6.226    547.717    634.571    551.067    547.717    547.717
 73.970    587.118    626.791    -39.672    547.703    623.415    551.079    547.703    547.703
 74.070    624.000    619.383      4.617    547.687    615.854    551.217    547.687    547.687
 74.170    635.000    614.623     20.377    547.670    610.811    551.486    547.670    547.670
 74.270    684.000    611.835     72.165    547.652    607.604    551.890    547.652    547.652
 74.370    573.252    610.594    -37.342    547.632    605.806    552.430    547.632    547.632
 74.470    636.730    610.597     26.133    547.612    605.124    553.099    547.612    547.612
 74.570    626.000    611.580     14.420    547.590    605.314    553.876    547.590    547.590
 74.670    620.000    613.251      6.749    547.567    606.121    554.722    547.567    547.567
 74.770    670.000    615.252     54.748    547.542    607.246    555.579    547.542    547.542
 74.870    630.000    617.149     12.851    547.516    608.331    556.370    547.516    547.516
 74.970    593.350    618.458    -25.108    547.489    608.981    557.005    547.489    547.489
 75.070    726.000    618.741    107.259    547.461    608.839    557.405    547.461    547.461
 75.170    638.121    617.764     20.357    547.432    607.710    557.528    547.432    547.432
 75.270    580.626    615.610    -34.984    547.401    605.651    557.399    547.401    547.401
 75.370    698.000    612.667     85.333    547.369    602.965    557.107    547.369    547.369
 75.470    625.174    609.506     15.668    547.336    600.092    556.779    547.336    547.336
 75.570    646.000    606.757     39.243    547.301    597.522    556.559    547.301    547.301
 75.670    646.000    605.052     40.948    547.265    595.737    556.597    547.265    547.265
 75.770    621.000    605.016     15.984    547.228    595.207    557.047    547.228    547.228
 75.870    609.000    607.269      1.731    547.189    596.391    558.070    547.189    547.189
 75.970    655.000    612.415     42.585    547.149    599.731    559.828    547.149    547.149
 76.070    626.000    621.007      4.993    547.108    605.629    562.475    547.108    547.108
 76.170    662.000    633.482     28.518    547.066    614.395    566.132    547.066    547.066
 76.270    665.000    650.061     14.939    547.022    626.185    570.869    547.022    547.022
 76.370    734.000    670.639     63.361    546.976    640.915    576.663    546.976    546.976
 76.470    690.000    694.670     -4.670    546.930    658.180    583.372    546.930    546.930
 76.570    736.000    721.062     14.938    546.882    677.183    590.705    546.882    546.882
 76.670    760.000    748.104     11.896    546.833    696.674    598.198    546.833    546.833
 76.770    807.000    773.437     33.563    546.782    714.937    605.212    546.782    546.782
 76.870    755.000    794.167    -39.167    546.730    729.865    610.959    546.730    546.730
 76.970    865.000    807.285     57.715    546.677    739.269    614.621    546.677    546.677
 77.070    807.090    810.486     -3.396    546.622    741.470    615.569    546.622    546.622
 77.170    792.000    803.095    -11.095    546.566    735.980    613.619    546.566    546.566
 77.270    797.000    786.372     10.628    546.509    723.710    609.117    546.509    546.509
 77.370    784.000    762.947     21.053    546.450    706.572    602.780    546.450    546.450
 77.470    758.266    735.853     22.413    546.390    686.769    595.437    546.390    546.390
 77.570    659.924    707.809    -47.885    546.328    666.277    587.831    546.328    546.328
 77.670    628.787    680.916    -52.129    546.265    646.622    580.536    546.265    546.265
 77.770    675.000    656.610     18.390    546.201    628.849    573.945    546.201    546.201
 77.870    614.000    635.714    -21.714    546.135    613.555    568.282    546.135    546.135
 77.970    585.000    618.531    -33.531    546.068    600.958    563.632    546.068    546.068
 78.070    580.000    604.954    -24.954    546.000    590.982    559.964    546.000    546.000
 78.170    610.000    594.607     15.393    545.930    583.352    557.178    545.930    545.930
 78.270    565.000    586.963    -21.963    545.858    577.686    555.131    545.858    545.858
 78.370    551.000    581.462    -30.462    545.786    573.575    553.668    545.786    545.786
 78.470    603.297    577.579     25.718    545.711    570.637    552.650    545.711    545.711
 78.570    575.146    574.874      0.272    545.636    568.552    551.955    545.636    545.636
 78.670    525.000    573.003    -48.003    545.559    567.069    551.491    545.559    545.559
 78.770    601.887    571.718     30.169    545.480    566.006    551.190    545.480    545.480
 78.870    558.000    570.850    -12.850    545.401    565.240    551.008    545.401    545.401
 78.970    557.000    570.291    -13.291    545.319    564.692    550.917    545.319    545.319
 79.070    512.000    569.983    -57.983    545.237    564.318    550.900    545.237    545.237
 79.170    519.000    569.898    -50.898    545.152    564.096    550.953    545.152    545.152
 79.270    538.756    570.035    -31.279    545.067    564.022    551.078    545.067    545.067
 79.370    565.000    570.413     -5.413    544.980    564.106    551.284    544.980    544.980
 79.470    607.000    571.069     35.931    544.891    564.367    551.591    544.891    544.891
 79.570    552.194    572.063    -19.869    544.802    564.832    552.030    544.802    544.802
 79.670    552.000    573.479    -21.479    544.710    565.537    552.649    544.710    544.710
 79.770    514.000    575.440    -61.440    544.617    566.529    553.525    544.617    544.617
 79.870    606.857    578.118     28.739    544.523    567.867    554.769    544.523    544.523
 79.970    570.859    581.751    -10.892    544.428    569.625    556.547    544.428    544.428
 80.070    583.000    586.662     -3.662    544.330    571.902    559.083    544.330    544.330
 80.170    572.528    593.274    -20.747    544.232    574.824    562.674    544.232    544.232
 80.270    623.307    602.110     21.197    544.132    578.546    567.685    544.132    544.132
 80.370    659.206    613.774     45.432    544.030    583.257    574.535    544.030    544.030
 80.470    599.540    628.912    -29.372    543.927    589.170    583.655    543.927    543.927
 80.570    603.000    648.148    -45.148    543.823    596.520    595.434    543.823    543.823
 80.670    662.000    671.995     -9.995    543.717    605.552    610.141    543.717    543.717
 80.770    674.000    700.741    -26.741    543.610    616.497    627.834    543.610    543.610
 80.870    724.000    734.304    -10.304    543.501    629.521    648.265    543.501    543.501
 80.970    825.426    772.072     53.354    543.391    644.643    670.803    543.391    543.391
 81.070    782.030    812.772    -30.742    543.279    661.664    694.373    543.279    543.279
 81.170    870.000    854.406     15.594    543.166    680.107    717.456    543.166    543.166
 81.270    931.000    894.332     36.668    543.052    699.209    738.174    543.052    543.052
 81.370    924.000    929.557     -5.557    542.935    717.980    754.522    542.935    542.935
 81.470    906.326    957.263    -50.937    542.818    735.346    764.754    542.818    542.818
 81.570    973.341    975.383     -2.042    542.699    750.313    767.800    542.699    542.699
 81.670   1003.000    982.922     20.078    542.579    762.085    763.457    542.579    542.579
 81.770    968.000    979.944    -11.944    542.457    770.117    752.335    542.457    542.457
 81.870    960.000    967.419     -7.419    542.333    774.146    735.666    542.333    542.333
 81.970    901.086    947.019    -45.933    542.208    774.186    715.108    542.208    542.208
 82.070    898.000    920.773    -22.773    542.082    770.430    692.498    542.082    542.082
 82.170    928.000    890.695     37.305    541.954    763.150    669.574    541.954    541.954
 82.270    866.000    858.569      7.431    541.825    752.715    647.755    541.825    541.825
 82.370    865.000    825.940     39.060    541.694    739.679    628.030    541.694    541.694
 82.470    781.000    794.122    -13.122    541.562    724.796    610.961    541.562    541.562
 82.570    757.658    764.116     -6.458    541.429    708.883    596.731    541.429    541.429
 82.670    768.000    736.519     31.481    541.294    692.643    585.234    541.294    541.294
 82.770    713.398    711.545      1.853    541.157    676.585    576.175    541.157    541.157
 82.870    665.923    689.171    -23.248    541.019    661.077    569.166    541.019    541.019
 82.970    659.000    669.308    -10.308    540.880    646.432    563.801    540.880    540.880
 83.070    669.000    651.870     17.130    540.739    632.936    559.712    540.739    540.739
 83.170    649.136    636.990     12.146    540.596    621.000    556.618    540.596    540.596
 83.270    586.000    624.652    -38.652    540.453    610.847    554.283    540.453    540.453
 83.370    614.160    614.860     -0.700    540.307    602.648    552.537    540.307    540.307
 83.470    614.000    607.581      6.419    540.161    596.488    551.263    540.161    540.161
 83.570    563.000    602.731    -39.731    540.013    592.366    550.379    540.013    540.013
 83.670    583.000    600.164    -17.164    539.863    590.193    549.828    539.863    539.863
 83.770    625.000    599.660     25.340    539.712    589.799    549.560    539.712    539.712
 83.870    582.318    600.918    -18.601    539.559    590.929    549.528    539.559    539.559
 83.970    605.000    603.550      1.450    539.406    593.249    549.679    539.406    539.406
 84.070    557.000    607.079    -50.079    539.250    596.347    549.948    539.250    539.250
 84.170    578.029    610.953    -32.924    539.093    599.743    550.264    539.093    539.093
 84.270    575.000    614.557    -39.557    538.935    602.907    550.543    538.935    538.935
 84.370    621.000    617.265      3.735    538.776    605.295    550.700    538.776    538.776
 84.470    606.330    618.522    -12.192    538.614    606.429    550.661    538.614    538.614
 84.570    656.515    617.962     38.553    538.452    605.993    550.375    538.452    538.452
 84.670    593.000    615.507    -22.507    538.288    603.918    549.834    538.288    538.288
 84.770    590.000    611.374    -21.374    538.123    600.387    549.071    538.123    538.123
 84.870    638.000    605.986     32.014    537.956    595.759    548.148    537.956    537.956
 84.970    606.000    599.848      6.152    537.788    590.464    547.142    537.788    537.788
 85.070    549.000    593.449    -44.449    537.618    584.914    546.128    537.618    537.618
 85.170    566.530    587.212    -20.681    537.447    579.461    545.176    537.447    537.447
 85.270    575.000    581.464     -6.464    537.275    574.372    544.348    537.275    537.275
 85.370    548.000    576.441    -28.441    537.101    569.831    543.696    537.101    537.101
 85.470    558.040    572.294    -14.254    536.926    565.942    543.265    536.926    536.926
 85.570    577.217    569.098      8.119    536.749    562.742    543.094    536.749    536.749
 85.670    569.000    566.869      2.131    536.571    560.214    543.216    536.571    536.571
 85.770    603.000    565.584     37.416    536.392    558.310    543.656    536.392    536.392
 85.870    572.839    565.191      7.648    536.211    556.960    544.432    536.211    536.211
 85.970    549.000    565.628    -16.628    536.029    556.096    545.550    536.029    536.029
 86.070    605.178    566.829     38.349    535.845    555.662    547.000    535.845    535.845
 86.170    531.195    568.725    -37.530    535.661    555.624    548.748    535.661    535.661
 86.270    529.923    571.252    -41.330    535.474    555.976    550.735    535.474    535.474
 86.370    595.000    574.347     20.653    535.287    556.742    552.873    535.287    535.287
 86.470    570.000    577.945     -7.945    535.098    557.980    555.041    535.098    535.098
 86.570    562.000    581.981    -19.981    534.907    559.780    557.084    534.907    534.907
 86.670    602.000    586.391     15.609    534.716    562.252    558.826    534.716    534.716
 86.770    608.000    591.118     16.882    534.523    565.527    560.080    534.523    534.523
 86.870    590.000    596.133     -6.133    534.329    569.738    560.685    534.329    534.329
 86.970    572.000    601.458    -29.458    534.133    575.004    560.542    534.133    534.133
 87.070    575.025    607.175    -32.150    533.936    581.410    559.648    533.936    533.936
 87.170    618.000    613.399      4.601    533.738    588.985    558.092    533.738    533.738
 87.270    623.000    620.228      2.772    533.538    597.671    556.026    533.538    533.538
 87.370    587.000    627.675    -40.675    533.337    607.307    553.624    533.337    533.337
 87.470    671.086    635.622     35.464    533.135    617.609    551.056    533.135    533.135
 87.570    663.998    643.791     20.207    532.932    628.155    548.467    532.932    532.932
 87.670    640.000    651.739    -11.739    532.727    638.385    545.970    532.727    532.727
 87.770    696.000    658.866     37.134    532.521    647.616    543.652    532.521    532.521
 87.870    640.661    664.477    -23.817    532.313    655.099    541.568    532.313    532.313
 87.970    701.000    667.897     33.103    532.105    660.132    539.745    532.105    532.105
 88.070    647.000    668.637    -21.637    531.895    662.222    538.188    531.895    531.895
 88.170    637.805    666.550    -28.745    531.684    661.236    536.883    531.684    531.684
 88.270    619.550    661.881    -42.331    531.471    657.441    535.806    531.471    531.471
 88.370    659.271    655.186      4.085    531.258    651.424    534.926    531.258    531.258
 88.470    631.000    647.190    -16.190    531.043    643.940    534.213    531.043    531.043
 88.570    670.000    638.654     31.346    530.827    635.777    533.638    530.827    530.827
 88.670    651.000    630.293     20.707    530.610    627.675    533.175    530.610    530.610
 88.770    585.307    622.734    -37.427    530.391    620.281    532.805    530.391    530.391
 88.870    639.000    616.479     22.521    530.171    614.113    532.510    530.171    530.171
 88.970    648.569    611.885     36.685    529.950    609.541    532.278    529.950    529.950
 89.070    601.000    609.151     -8.151    529.728    606.775    532.100    529.728    529.728
 89.170    593.000    608.310    -15.310    529.505    605.855    531.964    529.505    529.505
 89.270    610.000    609.233      0.767    529.281    606.664    531.864    529.281    529.281
 89.370    623.000    611.648     11.352    529.055    608.938    531.787    529.055    529.055
 89.470    615.000    615.151     -0.151    528.828    612.286    531.723    528.828    528.828
 89.570    575.557    619.230    -43.673    528.600    616.210    531.658    528.600    528.600
 89.670    637.000    623.291     13.709    528.371    620.128    531.578    528.371    528.371
 89.770    609.000    626.697    -17.697    528.141    623.423    531.465    528.141    528.141
 89.870    595.000    628.842    -33.842    527.910    625.502    531.305    527.910    527.910
 89.970    604.000    629.251    -25.251    527.677    625.901    531.086    527.677    527.677
 90.070    646.064    627.681     18.383    527.444    624.383    530.801    527.444    527.444
 90.170    580.000    624.169    -44.169    527.209    620.982    530.455    527.209    527.209
 90.270    582.417    619.002    -36.585    526.973    615.977    530.056    526.973    526.973
 90.370    619.000    612.618      6.382    526.736    609.790    529.618    526.736    526.736
 90.470    589.410    605.500    -16.089    526.499    602.890    529.157    526.499    526.499
 90.570    606.000    598.104      7.896    526.260    595.720    528.686    526.260    526.260
 90.670    585.473    590.819     -5.346    526.020    588.658    528.218    526.020    526.020
 90.770    561.000    583.954    -22.954    525.779    582.002    527.761    525.779    525.779
 90.870    609.000    577.730     31.270    525.537    575.968    527.323    525.537    525.537
 90.970    562.000    572.289    -10.289    525.293    570.695    526.908    525.293    525.293
 91.070    554.000    567.700    -13.700    525.049    566.247    526.518    525.049    525.049
 91.170    558.000    563.971     -5.971    524.804    562.635    526.152    524.804    524.804
 91.270    537.000    561.068    -24.068    524.558    559.823    525.811    524.558    524.558
 91.370    525.000    558.928    -33.928    524.311    557.752    525.492    524.311    524.311
 91.470    530.000    557.478    -27.478    524.063    556.351    525.193    524.063    524.063
 91.570    520.746    556.649    -35.904    523.814    555.553    524.912    523.814    523.814
 91.670    516.742    556.389    -39.647    523.564    555.306    524.647    523.564    523.564
 91.770    563.000    556.669      6.331    523.313    555.583    524.396    523.313    523.313
 91.870    513.000    557.493    -44.493    523.062    556.389    524.161    523.062    523.062
 91.970    544.000    558.898    -14.898    522.809    557.759    523.942    522.809    522.809
 92.070    565.210    560.957      4.253    522.555    559.765    523.741    522.555    522.555
 92.170    596.000    563.776     32.224    522.301    562.508    523.560    522.301    522.301
 92.270    529.606    567.486    -37.879    522.046    566.117    523.402    522.046    522.046
 92.370    537.000    572.240    -35.240    521.789    570.743    523.271    521.789    521.789
 92.470    577.000    578.201     -1.201    521.532    576.543    523.172    521.532    521.532
 92.570    563.000    585.526    -22.526    521.275    583.672    523.105    521.275    521.275
 92.670    622.000    594.353     27.647    521.016    592.266    523.075    521.016    521.016
 92.770    592.000    604.784    -12.784    520.756    602.427    523.080    520.756    520.756
 92.870    580.197    616.868    -36.671    520.496    614.204    523.120    520.496    520.496
 92.970    600.000    630.584    -30.584    520.235    627.581    523.191    520.235    520.235
 93.070    659.790    645.830     13.960    519.973    642.463    523.287    519.973    519.973
 93.170    624.641    662.412    -37.771    519.710    658.661    523.401    519.710    519.710
 93.270    708.000    680.032     27.968    519.447    675.890    523.522    519.447    519.447
 93.370    627.000    698.294    -71.294    519.183    693.764    523.640    519.183    519.183
 93.470    671.691    716.721    -45.030    518.918    711.816    523.744    518.918    518.918
 93.570    688.864    734.808    -45.944    518.653    729.550    523.827    518.653    518.653
 93.670    798.000    752.114     45.886    518.386    746.527    523.887    518.386    518.386
 93.770    748.000    768.366    -20.366    518.119    762.463    523.933    518.119    518.119
 93.870    768.000    783.535    -15.535    517.852    777.311    523.986    517.852    517.852
 93.970    816.000    797.824     18.176    517.584    791.240    524.079    517.584    517.584
 94.070    764.000    811.575    -47.575    517.315    804.549    524.252    517.315    517.315
 94.170    782.000    825.188    -43.188    517.045    817.595    524.551    517.045    517.045
 94.270    854.000    838.908     15.092    516.775    830.581    525.016    516.775    516.775
 94.370    853.000    852.853      0.147    516.504    843.592    525.681    516.504    516.504
 94.470    904.150    867.027     37.123    516.233    856.612    526.565    516.233    516.233
 94.570    882.894    881.379      1.515    515.961    869.586    527.672    515.961    515.961
 94.670    890.000    895.845     -5.845    515.689    882.469    528.985    515.689    515.689
 94.770    949.000    910.320     38.680    515.416    895.193    530.465    515.416    515.416
 94.870    926.000    924.566      1.434    515.143    907.582    532.052    515.143    515.143
 94.970    927.000    938.105    -11.105    514.869    919.241    533.661    514.869    514.869
 95.070    978.000    950.148     27.852    514.594    929.485    535.190    514.594    514.594
 95.170    932.000    959.616    -27.616    514.319    937.351    536.523    514.319    514.319
 95.270    973.000    965.239      7.761    514.044    941.692    537.536    514.044    514.044
 95.370    991.000    965.775     25.225    513.768    941.379    538.118    513.768    513.768
 95.470    971.000    960.302     10.698    513.492    935.571    538.185    513.492    513.492
 95.570    951.429    948.498      2.931    513.216    923.982    537.703    513.216    513.216
 95.670    961.000    930.786     30.214    512.939    907.012    536.693    512.939    512.939
 95.770    898.000    908.274    -10.274    512.661    885.696    535.228    512.661    512.661
 95.870    865.000    882.540    -17.540    512.383    861.507    533.412    512.383    512.383
 95.970    932.000    855.382     76.618    512.105    836.121    531.366    512.105    512.105
 96.070    805.419    828.623    -23.204    511.827    811.242    529.209    511.827    511.827
 96.170    817.000    803.996     13.004    511.548    788.498    527.049    511.548    511.548
 96.270    761.494    783.088    -21.595    511.270    769.383    524.975    511.270    511.270
 96.370    759.000    767.316     -8.316    510.990    755.242    523.062    510.990    510.990
 96.470    799.000    757.906     41.094    510.711    747.249    521.361    510.711    510.711
 96.570    751.000    755.895     -4.895    510.431    746.407    519.906    510.431    510.431
 96.670    774.000    762.115     11.885    510.151    753.532    518.713    510.151    510.151
 96.770    818.000    777.198     40.802    509.871    769.253    517.785    509.871    509.871
 96.870    766.042    801.553    -35.511    509.591    793.988    517.115    509.591    509.591
 96.970    796.000    835.331    -39.331    509.311    827.904    516.685    509.311    509.311
 97.070    931.000    878.401     52.599    509.030    870.892    516.475    509.030    509.030
 97.170    959.000    930.298     28.702    508.749    922.513    516.459    508.749    508.749
 97.270   1033.918    990.170     43.747    508.469    981.942    516.610    508.469    508.469
 97.370   1118.000   1056.724     61.276    508.188   1047.919    516.895    508.188    508.188
 97.470   1187.728   1128.178     59.549    507.907   1118.698    517.280    507.907    507.907
 97.570   1205.000   1202.227      2.773    507.626   1192.014    517.725    507.626    507.626
 97.670   1254.000   1275.995    -21.995    507.345   1265.037    518.186    507.345    507.345
 97.770   1307.000   1346.215    -39.215    507.064   1334.550    518.612    507.064    507.064
 97.870   1359.000   1409.162    -50.162    506.783   1396.880    518.951    506.783    506.783
 97.970   1468.000   1460.949      7.051    506.502   1448.196    519.150    506.502    506.502
 98.070   1553.000   1498.008     54.992    506.221   1484.977    519.161    506.221    506.221
 98.170   1549.000   1517.647     31.353    505.941   1504.566    518.947    505.941    505.941
 98.270   1530.000   1518.586     11.414    505.660   1505.697    518.494    505.660    505.660
 98.370   1491.339   1501.221     -9.882    505.379   1488.759    517.807    505.379    505.379
 98.470   1500.000   1467.497     32.503    505.099   1455.665    516.916    505.099    505.099
 98.570   1402.000   1420.480    -18.480    504.819   1409.440    515.862    504.819    504.819
 98.670   1422.000   1363.825     58.175    504.539   1353.687    514.694    504.539    504.539
 98.770   1290.529   1301.311    -10.781    504.259   1292.138    513.459    504.259    504.259
 98.870   1264.000   1236.564     27.436    503.979   1228.376    512.201    503.979    503.979
 98.970   1148.000   1172.882    -24.882    503.700   1165.661    510.958    503.700    503.700
 99.070   1171.203   1113.146     58.057    503.421   1106.842    509.760    503.421    503.421
 99.170   1067.000   1059.796      7.204    503.142   1054.339    508.632    503.142    503.142
 99.270    981.000   1014.846    -33.846    502.864   1010.149    507.590    502.864    502.864
 99.370    971.000    979.913     -8.913    502.585    975.877    506.643    502.585    502.585
 99.470    941.000    956.247    -15.247    502.308    952.773    505.796    502.308    502.308
 99.570    960.000    944.764     15.236    502.030    941.754    505.047    502.030    502.030
 99.670    906.583    946.068    -39.485    501.753    943.426    504.393    501.753    501.753
 99.770    942.000    960.460    -18.460    501.477    958.101    503.827    501.477    501.477
 99.870    993.000    987.952      5.048    501.201    985.801    503.337    501.201    501.201
 99.970   1079.459   1028.269     51.190    500.925   1026.258    502.916    500.925    500.925
100.070   1120.000   1080.834     39.166    500.650   1078.909    502.551    500.650    500.650
100.170   1234.000   1144.751     89.249    500.375   1142.866    502.234    500.375    500.375
100.270   1264.000   1218.767     45.233    500.101   1216.890    501.953    500.101    500.101
100.370   1313.000   1301.241     11.759    499.828   1299.346    501.701    499.828    499.828
100.470   1382.000   1390.101     -8.101    499.555   1388.173    501.468    499.555    499.555
100.570   1575.000   1482.830     92.170    499.283   1480.860    501.246    499.283    499.283
100.670   1589.000   1576.498     12.502    499.011   1574.486    501.030    499.011    499.011
100.770   1607.447   1667.888    -60.442    498.740   1665.839    500.813    498.740    498.740
100.870   1765.000   1753.722     11.278    498.470   1751.644    500.590    498.470    498.470
100.970   1798.866   1830.971    -32.105    498.201   1828.877    500.358    498.201    498.201
101.070   1881.000   1897.156    -16.156    497.932   1895.056    500.117    497.932    497.932
101.170   2015.580   1950.482     65.098    497.664   1948.386    499.868    497.664    497.664
101.270   1953.648   1989.780    -36.132    497.397   1987.692    499.614    497.397    497.397
101.370   2027.085   2014.287     12.798    497.130   2012.207    499.360    497.130    497.130
101.470   2071.000   2023.441     47.559    496.865   2021.362    499.110    496.865    496.865
101.570   1968.720   2016.906    -48.186    496.600   2014.817    498.870    496.600    496.600
101.670   1989.000   1994.683     -5.683    496.337   1992.568    498.643    496.337    496.337
101.770   1944.000   1957.447    -13.447    496.074   1955.287    498.431    496.074    496.074
101.870   1905.000   1906.820     -1.820    495.812   1904.595    498.238    495.812    495.812
101.970   1813.000   1845.402    -32.402    495.551   1843.092    498.061    495.551    495.551
102.070   1802.000   1776.517     25.483    495.291   1774.102    497.901    495.291    495.291
102.170   1759.496   1703.781     55.715    495.033   1701.248    497.752    495.033    495.033
102.270   1574.948   1630.657    -55.708    494.775   1627.996    497.612    494.775    494.775
102.370   1461.000   1560.108    -99.108    494.518   1557.318    497.473    494.518    494.518
102.470   1516.889   1494.414     22.475    494.263   1491.499    497.329    494.263    494.263
102.570   1441.518   1435.095      6.423    494.008   1432.068    497.174    494.008    494.008
102.670   1324.080   1382.919    -58.839    493.755   1379.798    497.002    493.755    493.755
102.770   1283.970   1337.947    -53.977    493.503   1334.755    496.810    493.503    493.503
102.870   1270.000   1299.599    -29.599    493.252   1296.363    496.594    493.252    493.252
102.970   1186.000   1266.741    -80.741    493.003   1263.489    496.352    493.003    493.003
103.070   1190.000   1237.809    -47.809    492.755   1234.571    496.084    492.755    492.755
103.170   1155.000   1210.986    -55.986    492.508   1207.793    495.788    492.508    492.508
103.270   1166.000   1184.429    -18.429    492.262   1181.313    495.464    492.262    492.262
103.370   1186.696   1156.532     30.164    492.018   1153.524    495.111    492.018    492.018
103.470   1147.371   1126.156     21.216    491.775   1123.282    494.733    491.775    491.775
103.570   1090.000   1092.754     -2.754    491.534   1090.040    494.331    491.534    491.534
103.670   1036.000   1056.367    -20.367    491.294   1053.831    493.912    491.294    491.294
103.770    954.268   1017.495    -63.226    491.056   1015.150    493.481    491.056    491.056
103.870   1003.784    976.919     26.865    490.819    974.771    493.045    490.819    490.819
103.970    929.602    935.546     -5.944    490.584    933.594    492.609    490.584    490.584
104.070    843.087    894.293    -51.205    490.350    892.533    492.180    490.350    490.350
104.170    895.000    853.996     41.004    490.118    852.419    491.760    490.118    490.118
104.270    763.798    815.391    -51.594    489.888    813.985    491.353    489.888    489.888
104.370    828.000    779.084     48.916    489.659    777.834    490.961    489.659    489.659
104.470    782.000    745.538     36.462    489.432    744.430    490.587    489.432    489.432
104.570    672.972    715.077    -42.105    489.207    714.094    490.231    489.207    489.207
104.670    693.000    687.879      5.121    488.983    687.006    489.892    488.983    488.983
104.770    682.857    663.995     18.862    488.762    663.215    489.572    488.762    488.762
104.870    689.000    643.361     45.639    488.542    642.661    489.268    488.542    488.542
104.970    588.228    625.823    -37.595    488.324    625.188    488.980    488.324    488.324
105.070    626.000    611.159     14.841    488.108    610.577    488.707    488.108    488.108
105.170    643.739    599.105     44.634    487.894    598.565    488.447    487.894    487.894
105.270    622.000    589.381     32.619    487.681    588.873    488.199    487.681    487.681
105.370    614.609    581.705     32.903    487.471    581.221    487.963    487.471    487.471
105.470    536.484    575.805    -39.321    487.263    575.337    487.736    487.263    487.263
105.570    574.428    571.455      2.972    487.057    570.996    487.518    487.057    487.057
105.670    601.000    568.483     32.517    486.853    568.026    487.311    486.853    486.853
105.770    637.000    566.719     70.281    486.651    566.256    487.112    486.651    486.651
105.870    578.853    566.047     12.807    486.452    565.572    486.922    486.452    486.452
105.970    604.000    566.390     37.610    486.254    565.896    486.741    486.254    486.254
106.070    599.430    567.706     31.724    486.059    567.187    486.570    486.059    486.059
106.170    579.000    569.980      9.020    485.866    569.427    486.408    485.866    485.866
106.270    531.540    573.219    -41.679    485.676    572.624    486.257    485.676    485.676
106.370    530.016    577.443    -47.426    485.487    576.798    486.116    485.487    485.487
106.470    533.238    582.679    -49.441    485.301    581.974    485.987    485.301    485.301
106.570    562.872    588.953    -26.081    485.118    588.179    485.870    485.118    485.118
106.670    606.000    596.278      9.722    484.937    595.425    485.765    484.937    484.937
106.770    594.000    604.647    -10.647    484.758    603.705    485.672    484.758    484.758
106.870    641.000    614.022     26.978    484.582    612.981    485.591    484.582    484.582
106.970    652.000    624.324     27.676    484.409    623.177    485.520    484.409    484.409
107.070    686.998    635.432     51.566    484.238    634.172    485.458    484.238    484.238
107.170    617.000    647.175    -30.175    484.070    645.798    485.404    484.070    484.070
107.270    652.000    659.332     -7.332    483.904    657.836    485.355    483.904    483.904
107.370    691.807    671.634     20.173    483.741    670.020    485.307    483.741    483.741
107.470    720.000    683.767     36.233    483.581    682.039    485.258    483.581    483.581
107.570    689.000    695.380     -6.380    483.424    693.548    485.204    483.424    483.424
107.670    723.000    706.103     16.897    483.269    704.180    485.139    483.269    483.269
107.770    669.000    715.570    -46.570    483.118    713.574    485.061    483.118    483.118
107.870    683.000    723.461    -40.461    482.969    721.414    484.965    482.969    482.969
107.970    732.000    729.542      2.458    482.823    727.468    484.848    482.823    482.823
108.070    748.721    733.712     15.009    482.680    731.637    484.709    482.680    482.680
108.170    685.195    736.024    -50.828    482.540    733.973    484.548    482.540    482.540
108.270    687.000    736.683    -49.683    482.403    734.682    484.366    482.403    482.403
108.370    734.492    736.020     -1.528    482.270    734.088    484.166    482.270    482.270
108.470    718.645    734.434    -15.789    482.139    732.590    483.953    482.139    482.139
108.570    700.000    732.348    -32.348    482.011    730.604    483.729    482.011    482.011
108.670    775.449    730.154     45.295    481.887    728.519    483.501    481.887    481.887
108.770    710.000    728.188    -18.188    481.766    726.666    483.270    481.766    481.766
108.870    712.000    726.700    -14.700    481.648    725.293    483.042    481.648    481.648
108.970    715.000    725.851    -10.851    481.534    724.555    482.819    481.534    481.534
109.070    707.000    725.698    -18.698    481.423    724.510    482.604    481.423    481.423
109.170    721.000    726.200     -5.200    481.315    725.114    482.399    481.315    481.315
109.270    751.000    727.216     23.784    481.211    726.223    482.204    481.211    481.211
109.370    682.000    728.513    -46.513    481.110    727.606    482.020    481.110    481.110
109.470    744.461    729.780     14.680    481.013    728.951    481.849    481.013    481.013
109.570    730.000    730.654     -0.654    480.919    729.894    481.689    480.919    480.919
109.670    720.000    730.747    -10.747    480.829    730.048    481.540    480.829    480.829
109.770    708.000    729.695    -21.695    480.743    729.051    481.402    480.743    480.743
109.870    726.000    727.206     -1.206    480.660    726.610    481.273    480.660    480.660
109.970    697.577    723.097    -25.520    480.581    722.544    481.153    480.581    480.581
110.070    726.881    717.322      9.559    480.506    716.806    481.041    480.506    480.506
110.170    674.000    709.968    -35.968    480.434    709.486    480.937    480.434    480.434
110.270    749.515    701.235     48.280    480.367    700.783    480.839    480.367    480.367
110.370    703.342    691.397     11.946    480.303    690.973    480.748    480.303    480.303
110.470    667.000    680.767    -13.767    480.243    680.367    480.663    480.243    480.243
110.570    650.000    669.666    -19.666    480.187    669.288    480.584    480.187    480.187
110.670    677.630    658.392     19.238    480.136    658.038    480.507    480.136    480.136
110.770    645.000    647.238     -2.238    480.088    646.902    480.440    480.088    480.088
110.870    640.000    636.443      3.557    480.045    636.123    480.379    480.045    480.045
110.970    619.000    626.211     -7.211    480.005    625.904    480.325    480.005    480.005
111.070    613.000    616.706     -3.706    479.970    616.411    480.276    479.970    479.970
111.170    605.000    608.054     -3.054    479.939    607.769    480.233    479.939    479.939
111.270    580.459    600.339    -19.880    479.913    600.063    480.196    479.913    479.913
111.370    603.000    593.604      9.396    479.890    593.334    480.165    479.890    479.890
111.470    608.000    587.883     20.117    479.872    587.619    480.139    479.872    479.872
111.570    601.000    583.157     17.843    479.859    582.897    480.120    479.859    479.859
111.670    581.873    579.387      2.486    479.850    579.130    480.106    479.850    479.850
111.770    595.000    576.519     18.481    479.846    576.264    480.099    479.846    479.846
111.870    607.205    574.486     32.720    479.846    574.231    480.096    479.846    479.846
111.970    611.000    573.210     37.790    479.850    572.956    480.100    479.850    479.850
112.070    602.000    572.614     29.386    479.860    572.358    480.109    479.860    479.860
112.170    538.683    572.617    -33.934    479.874    572.360    480.123    479.874    479.874
112.270    531.000    573.144    -42.144    479.893    572.885    480.142    479.893    479.893
112.370    560.000    574.125    -14.125    479.916    573.864    480.167    479.916    479.916
112.470    583.000    575.499      7.501    479.945    575.236    480.197    479.945    479.945
112.570    601.000    577.213     23.787    479.978    576.948    480.232    479.978    479.978
112.670    554.000    579.227    -25.227    480.017    578.960    480.272    480.017    480.017
112.770    559.000    581.517    -22.517    480.060    581.247    480.317    480.060    480.060
112.870    548.725    584.066    -35.341    480.108    583.793    480.368    480.108    480.108
112.970    586.000    586.875     -0.875    480.162    586.600    480.424    480.162    480.162
113.070    588.000    589.959     -1.959    480.220    589.681    480.485    480.220    480.220
113.170    588.000    593.345     -5.345    480.284    593.064    480.552    480.284    480.284
113.270    612.000    597.079     14.921    480.353    596.794    480.625    480.353    480.353
113.370    572.000    601.221    -29.221    480.427    600.931    480.703    480.427    480.427
113.470    585.000    605.852    -20.852    480.507    605.554    480.789    480.507    480.507
113.570    640.185    611.074     29.112    480.592    610.769    480.881    480.592    480.592
113.670    627.000    617.022      9.978    480.683    616.707    480.980    480.683    480.683
113.770    612.283    623.867    -11.584    480.778    623.540    481.087    480.778    480.778
113.870    637.000    631.830      5.170    480.880    631.487    481.202    480.880    480.880
113.970    650.000    641.187      8.813    480.987    640.826    481.326    480.987    480.987
114.070    643.000    652.292     -9.292    481.100    651.908    481.459    481.100    481.100
114.170    681.000    665.586     15.414    481.218    665.174    481.601    481.218    481.218
114.270    647.000    681.616    -34.616    481.342    681.171    481.753    481.342    481.342
114.370    678.000    701.055    -23.055    481.472    700.570    481.916    481.472    481.472
114.470    666.000    724.720    -58.720    481.608    724.189    482.091    481.608    481.608
114.570    712.000    753.589    -41.589    481.749    753.005    482.277    481.749    481.749
114.670    799.501    788.818     10.684    481.897    788.171    482.475    481.897    481.897
114.770    869.312    831.747     37.565    482.051    831.028    482.687    482.051    482.051
114.870    852.000    883.909    -31.909    482.210    883.109    482.911    482.210    482.210
114.970    970.000    947.021     22.979    482.376    946.130    483.148    482.376    482.376
115.070   1017.000   1022.971     -5.971    482.548   1021.978    483.399    482.548    482.548
115.170   1083.938   1113.781    -29.843    482.726   1112.675    483.663    482.726    482.726
115.270   1197.000   1221.565    -24.565    482.910   1220.335    483.940    482.910    482.910
115.370   1332.000   1348.460    -16.460    483.101   1347.097    484.230    483.101    483.101
115.470   1523.000   1496.551     26.449    483.298   1495.044    484.532    483.298    483.298
115.570   1675.181   1667.762      7.419    483.501   1666.103    484.845    483.501    483.501
115.670   1952.839   1863.749     89.090    483.711   1861.931    485.169    483.711    483.711
115.770   2177.752   2085.774     91.978    483.928   2083.790    485.502    483.928    483.928
115.870   2447.000   2334.570    112.430    484.151   2332.418    485.844    484.151    484.151
115.970   2625.331   2610.212     15.118    484.381   2607.891    486.192    484.381    484.381
116.070   2977.000   2911.997     65.003    484.617   2909.508    486.546    484.617    484.617
116.170   3177.000   3238.327    -61.327    484.860   3235.676    486.903    484.860    484.860
116.270   3670.000   3586.628     83.372    485.110   3583.822    487.263    485.110    485.110
116.370   3967.000   3953.286     13.714    485.367   3950.337    487.625    485.367    485.367
116.470   4317.000   4333.619    -16.619    485.631   4330.540    487.988    485.631    485.631
116.570   4809.000   4721.876     87.124    485.901   4718.682    488.351    485.901    485.901
116.670   5245.253   5111.274    133.979    486.179   5107.981    488.716    486.179    486.179
116.770   5469.030   5494.071    -25.041    486.464   5490.697    489.083    486.464    486.464
116.870   5873.000   5861.662     11.338    486.756   5858.225    489.452    486.756    486.756
116.970   6122.070   6204.881    -82.811    487.055   6201.400    489.826    487.055    487.055
117.070   6588.000   6514.150     73.850    487.362   6510.643    490.205    487.362    487.362
117.170   6820.000   6779.894     40.106    487.675   6776.377    490.590    487.675    487.675
117.270   6863.863   6993.122   -129.259    487.997   6989.612    490.981    487.997    487.997
117.370   7063.004   7146.066    -83.062    488.325   7142.576    491.378    488.325    488.325
117.470   7357.930   7232.865    125.065    488.661   7229.408    491.781    488.661    488.661
117.570   7159.000   7250.184    -91.184    489.005   7246.767    492.188    489.005    489.005
117.670   7160.000   7197.588    -37.588    489.356   7194.215    492.598    489.356    489.356
117.770   7041.000   7077.590    -36.590    489.715   7074.264    493.010    489.715    489.715
117.870   6919.757   6895.356     24.401    490.082   6892.077    493.422    490.082    490.082
117.970   6760.131   6658.137    101.993    490.456   6654.905    493.832    490.456    490.456
118.070   6535.359   6374.583    160.776    490.839   6371.397    494.237    490.839    490.839
118.170   5892.000   6054.064   -162.064    491.229   6050.925    494.635    491.229    491.229
118.270   5518.000   5706.100   -188.100    491.627   5703.012    495.025    491.627    491.627
118.370   5180.000   5339.923   -159.923    492.033   5336.890    495.404    492.033    492.033
118.470   4864.000   4964.168   -100.168    492.448   4961.198    495.772    492.448    492.448
118.570   4670.000   4586.665     83.335    492.870   4583.765    496.129    492.870    492.870
118.670   4240.911   4214.302     26.609    493.301   4211.479    496.477    493.301    493.301
118.770   3907.000   3852.941     54.059    493.740   3850.204    496.817    493.740    493.740
118.870   3549.000   3507.384     41.616    494.187   3504.739    497.152    494.187    494.187
118.970   3272.541   3181.369     91.171    494.643   3178.822    497.485    494.643    494.643
119.070   2885.000   2877.609      7.391    495.107   2875.163    497.818    495.107    495.107
119.170   2501.000   2597.857    -96.857    495.580   2595.515    498.157    495.580    495.580
119.270   2315.810   2343.007    -27.197    496.061   2340.770    498.502    496.061    496.061
119.370   2149.000   2113.202     35.798    496.551   2111.067    498.859    496.551    496.551
119.470   1997.000   1907.955     89.045    497.050   1905.919    499.229    497.050    497.050
119.570   1785.301   1726.279     59.022    497.557   1724.338    499.614    497.557    497.557
119.670   1602.000   1566.800     35.200    498.074   1564.946    500.018    498.074    498.074
119.770   1423.000   1427.873     -4.873    498.599   1426.098    500.442    498.599    498.599
119.870   1373.000   1307.683     65.317    499.133   1305.978    500.888    499.133    499.133
119.970   1168.000   1204.337    -36.337    499.676   1202.689    501.358    499.676    499.676
120.070   1103.124   1115.937    -12.812    500.229   1114.335    501.852    500.229    500.229
120.170   1065.566   1040.646     24.920    500.790   1039.077    502.371    500.790    500.790
120.270    980.000    976.735      3.265    501.361    975.183    502.916    501.361    501.361
120.370    898.336    922.613    -24.276    501.941    921.064    503.487    501.941    501.941
120.470    866.000    876.850    -10.850    502.530    875.289    504.086    502.530    502.530
120.570    843.000    838.185      4.815    503.129    836.595    504.711    503.129    503.129
120.670    840.000    805.521     34.479    503.737    803.886    505.364    503.737    503.737
120.770    771.193    777.923     -6.730    504.355    776.226    506.044    504.355    504.355
120.870    773.000    754.601     18.399    504.983    752.824    506.751    504.983    504.983
120.970    688.000    734.895    -46.895    505.620    733.021    507.486    505.620    505.620
121.070    717.000    718.262     -1.262    506.267    716.273    508.250    506.267    506.267
121.170    661.000    704.254    -43.254    506.924    702.131    509.042    506.924    506.924
121.270    727.093    692.508     34.585    507.591    690.232    509.863    507.591    507.591
121.370    709.301    682.726     26.575    508.267    680.279    510.713    508.267    508.267
121.470    634.000    674.668    -40.668    508.954    672.029    511.593    508.954    508.954
121.570    678.000    668.136      9.864    509.651    665.285    512.503    509.651    509.651
121.670    633.552    662.970    -29.418    510.358    659.885    513.445    510.358    510.358
121.770    607.000    659.034    -52.034    511.075    655.694    514.420    511.075    511.075
121.870    706.427    656.216     50.211    511.803    652.597    515.427    511.803    511.803
121.970    654.000    654.416     -0.416    512.541    650.494    516.468    512.541    512.541
122.070    617.000    653.547    -36.547    513.289    649.300    517.545    513.289    513.289
122.170    692.983    653.530     39.453    514.048    648.931    518.657    514.048    514.048
122.270    634.982    654.289    -19.307    514.817    649.314    519.804    514.817    514.817
122.370    623.281    655.749    -32.468    515.598    650.373    520.988    515.598    515.598
122.470    649.000    657.836     -8.836    516.388    652.035    522.206    516.388    516.388
122.570    672.000    660.473     11.527    517.190    654.224    523.457    517.190    517.190
122.670    629.000    663.577    -34.577    518.003    656.861    524.738    518.003    518.003
122.770    718.378    667.064     51.314    518.826    659.865    526.047    518.826    518.826
122.870    678.000    670.841      7.159    519.661    663.148    527.379    519.661    519.661
122.970    652.707    674.811    -22.104    520.506    666.617    528.728    520.506    520.506
123.070    731.024    678.871     52.152    521.363    670.176    530.089    521.363    521.363
123.170    664.000    682.912    -18.912    522.231    673.722    531.453    522.231    522.231
123.270    697.000    686.819     10.181    523.111    677.151    532.814    523.111    523.111
123.370    670.000    690.477    -20.477    524.001    680.354    534.162    524.001    524.001
123.470    659.000    693.772    -34.772    524.903    683.227    535.489    524.903    524.903
123.570    719.680    696.594     23.086    525.817    685.668    536.785    525.817    525.817
123.670    725.000    698.842     26.158    526.742    687.586    538.043    526.742    526.742
123.770    651.399    700.432    -49.033    527.679    688.903    539.254    527.679    527.679
123.870    711.000    701.301      9.699    528.628    689.564    540.413    528.628    528.628
123.970    707.000    701.410      5.590    529.589    689.532    541.515    529.589    529.589
124.070    734.027    700.746     33.281    530.561    688.799    542.558    530.561    530.561
124.170    723.155    699.321     23.833    531.546    687.378    543.539    531.546    531.546
124.270    736.000    697.168     38.832    532.542    685.299    544.461    532.542    532.542
124.370    685.000    694.305     -9.305    533.551    682.580    545.325    533.551    533.551
124.470    696.599    690.876      5.723    534.572    679.360    546.135    534.572    534.572
124.570    736.000    686.923     49.077    535.605    675.678    546.896    535.605    535.605
124.670    726.178    682.523     43.655    536.650    671.606    547.613    536.650    536.650
124.770    693.000    677.760     15.240    537.708    667.220    548.290    537.708    537.708
124.870    718.000    672.717     45.283    538.778    662.600    548.936    538.778    538.778
124.970    700.000    667.477     32.523    539.861    657.821    549.557    539.861    539.861
