neutron_powder_diffraction_0033
R_wp: 3.768
Temperature (K): 558.451
Counts: 83609.00
Wavelength (Ã…): 2.52098
COMMENTS
Test file for demonstrating the .xyy file format in Reel1.0
END OF HEADER
   tth       Y_obs     Y_calc      Y_res    Background    Phase_1_Nuc    Phase_1_Mag    Phase_2_Nuc    Phase_2_Mag
  9.970    711.000    703.560      7.440    702.019    703.019    702.560    702.019    702.019
 10.070    700.000    702.664     -2.664    701.037    702.117    701.583    701.037    701.037
 10.170    667.855    701.783    -33.928    700.059    701.231    700.611    700.059    700.059
 10.270    783.000    700.921     82.079    699.085    700.362    699.643    699.085    699.085
 10.370    720.000    700.078     19.922    698.116    699.513    698.680    698.116    698.116
 10.470    711.000    699.260     11.740    697.151    698.689    697.722    697.151    697.151
 10.570    680.000    698.470    -18.470    696.191    697.892    696.767    696.191    696.191
 10.670    733.000    697.713     35.287    695.235    697.130    695.818    695.235    695.235
 10.770    688.000    696.999     -8.999    694.283    696.408    694.872    694.283    694.283
 10.870    708.228    696.335     11.893    693.336    695.738    693.931    693.336    693.336
 10.970    697.000    695.737      1.263    692.393    695.133    692.995    692.393    692.393
 11.070    697.000    695.222      1.778    691.454    694.611    692.063    691.454    691.454
 11.170    721.018    694.818     26.201    690.520    694.200    691.136    690.520    690.520
 11.270    668.856    694.564    -25.708    689.590    693.938    690.213    689.590    689.590
 11.370    724.000    694.523     29.477    688.665    693.890    689.295    688.665    688.665
 11.470    705.440    694.816     10.624    687.743    694.175    688.381    687.743    687.743
 11.570    746.000    695.706     50.294    686.826    695.057    687.471    686.826    686.826
 11.670    793.000    697.797     95.203    685.914    697.138    686.566    685.914    685.914
 11.770    752.000    702.337     49.663    685.006    701.668    685.666    685.006    685.006
 11.870    801.000    711.414     89.586    684.102    710.731    684.770    684.102    684.102
 11.970    713.523    727.461    -13.937    683.202    726.760    683.878    683.202    683.202
 12.070    733.796    751.533    -17.737    682.307    750.811    682.991    682.307    682.307
 12.170    818.000    780.173     37.827    681.416    779.425    682.108    681.416    681.416
 12.270    810.000    802.430      7.570    680.530    801.661    681.230    680.530    680.530
 12.370    836.000    804.347     31.653    679.647    803.568    680.356    679.647    679.647
 12.470    810.000    783.690     26.310    678.770    782.914    679.487    678.770    678.770
 12.570    778.000    753.311     24.689    677.896    752.543    678.622    677.896    677.896
 12.670    711.000    725.925    -14.925    677.026    725.163    677.762    677.026    677.026
 12.770    671.000    706.449    -35.449    676.161    705.688    676.906    676.161    676.161
 12.870    724.624    694.473     30.150    675.301    693.710    676.054    675.301    675.301
 12.970    667.202    687.471    -20.270    674.444    686.701    675.207    674.444    674.444
 13.070    635.000    683.274    -48.274    673.592    682.496    674.365    673.592    673.592
 13.170    642.452    680.466    -38.014    672.744    679.679    673.526    672.744    672.744
 13.270    685.000    678.338      6.662    671.900    677.543    672.693    671.900    671.900
 13.370    634.000    676.581    -42.581    671.061    675.775    671.864    671.061    671.061
 13.470    628.000    675.054    -47.054    670.226    674.239    671.039    670.226    670.226
 13.570    630.000    673.688    -43.688    669.395    672.862    670.218    669.395    669.395
 13.670    694.000    672.439     21.561    668.568    671.603    669.403    668.568    668.568
 13.770    650.000    671.279    -21.279    667.745    670.431    668.591    667.745    667.745
 13.870    663.000    670.186     -7.186    666.927    669.328    667.784    666.927    666.927
 13.970    691.543    669.151     22.392    666.113    668.281    666.982    666.113    666.113
 14.070    645.000    668.182    -23.182    665.303    667.300    666.184    665.303    665.303
 14.170    704.205    667.225     36.979    664.498    666.332    665.391    664.498    664.498
 14.270    716.706    666.295     50.411    663.697    665.389    664.602    663.697    663.697
 14.370    694.000    665.390     28.610    662.899    664.471    663.817    662.899    662.899
 14.470    708.870    664.505     44.364    662.106    663.574    663.037    662.106    662.106
 14.570    627.063    663.639    -36.576    661.318    662.695    662.261    661.318    661.318
 14.670    613.715    662.789    -49.074    660.533    661.832    661.490    660.533    660.533
 14.770    660.000    661.953     -1.953    659.753    660.983    660.723    659.753    659.753
 14.870    615.000    661.130    -46.130    658.977    660.146    659.961    658.977    658.977
 14.970    701.663    660.318     41.344    658.205    659.320    659.203    658.205    658.205
 15.070    673.332    659.517     13.814    657.437    658.505    658.449    657.437    657.437
 15.170    626.716    658.726    -32.010    656.673    657.698    657.700    656.673    656.673
 15.270    632.000    657.944    -25.944    655.914    656.901    656.956    655.914    655.914
 15.370    625.891    657.170    -31.279    655.158    656.112    656.216    655.158    655.158
 15.470    668.000    656.405     11.595    654.407    655.331    655.481    654.407    654.407
 15.570    665.862    655.646     10.215    653.660    654.556    654.750    653.660    653.660
 15.670    642.000    654.896    -12.896    652.917    653.789    654.023    652.917    652.917
 15.770    661.021    654.152      6.870    652.178    653.028    653.301    652.178    652.178
 15.870    697.000    653.414     43.586    651.443    652.274    652.584    651.443    651.443
 15.970    669.000    652.684     16.316    650.713    651.526    651.871    650.713    650.713
 16.070    669.000    651.964     17.036    649.986    650.787    651.163    649.986    649.986
 16.170    660.000    651.254      8.746    649.264    650.059    650.459    649.264    649.264
 16.270    634.000    650.543    -16.543    648.546    649.328    649.760    648.546    648.546
 16.370    616.774    649.836    -33.062    647.831    648.602    649.065    647.831    647.831
 16.470    637.000    649.136    -12.136    647.121    647.882    648.375    647.121    647.121
 16.570    641.000    648.441     -7.441    646.415    647.166    647.689    646.415    646.415
 16.670    611.204    647.751    -36.548    645.713    646.456    647.008    645.713    645.713
 16.770    641.000    647.068     -6.068    645.015    645.751    646.332    645.015    645.015
 16.870    617.350    646.389    -29.040    644.321    645.050    645.660    644.321    644.321
 16.970    628.000    645.716    -17.716    643.631    644.355    644.993    643.631    643.631
 17.070    603.000    645.049    -42.049    642.946    643.664    644.330    642.946    642.946
 17.170    666.000    644.387     21.613    642.264    642.979    643.672    642.264    642.264
 17.270    643.000    643.731     -0.731    641.586    642.298    643.019    641.586    641.586
 17.370    622.000    643.079    -21.079    640.912    641.621    642.370    640.912    640.912
 17.470    677.858    642.434     35.424    640.243    640.951    641.726    640.243    640.243
 17.570    646.000    641.810      4.190    639.577    640.300    641.087    639.577    639.577
 17.670    647.000    641.193      5.807    638.915    639.655    640.453    638.915    638.915
 17.770    604.021    640.608    -36.587    638.257    639.041    639.824    638.257    638.257
 17.870    625.000    640.017    -15.017    637.604    638.422    639.199    637.604    637.604
 17.970    658.890    639.406     19.484    636.954    637.781    638.579    636.954    636.954
 18.070    618.381    638.801    -20.420    636.308    637.146    637.963    636.308    636.308
 18.170    618.028    638.193    -20.165    635.666    636.507    637.353    635.666    635.666
 18.270    574.000    637.590    -63.590    635.028    635.871    636.747    635.028    635.028
 18.370    646.000    636.991      9.009    634.394    635.240    636.146    634.394    634.394
 18.470    662.929    636.398     26.531    633.764    634.613    635.550    633.764    633.764
 18.570    642.000    635.810      6.190    633.138    633.990    634.958    633.138    633.138
 18.670    655.000    635.228     19.772    632.516    633.372    634.372    632.516    632.516
 18.770    622.000    634.651    -12.651    631.898    632.758    633.791    631.898    631.898
 18.870    601.892    634.080    -32.187    631.284    632.149    633.214    631.284    631.284
 18.970    599.915    633.514    -33.598    630.673    631.543    632.643    630.673    630.673
 19.070    665.558    632.953     32.605    630.067    630.943    632.077    630.067    630.067
 19.170    612.000    632.398    -20.398    629.464    630.346    631.516    629.464    629.464
 19.270    591.330    631.850    -40.520    628.865    629.755    630.961    628.865    628.865
 19.370    642.870    631.316     11.554    628.270    629.175    630.411    628.270    628.270
 19.470    670.000    630.794     39.206    627.679    628.605    629.869    627.679    627.679
 19.570    615.269    630.326    -15.057    627.092    628.072    629.346    627.092    627.092
 19.670    607.132    629.807    -22.675    626.509    627.502    628.813    626.509    626.509
 19.770    586.000    629.288    -43.288    625.929    626.932    628.285    625.929    625.929
 19.870    590.612    628.775    -38.163    625.353    626.367    627.761    625.353    625.353
 19.970    647.000    628.268     18.732    624.782    625.805    627.244    624.782    624.782
 20.070    609.000    627.767    -18.767    624.214    625.249    626.732    624.214    624.214
 20.170    669.385    627.274     42.111    623.649    624.697    626.226    623.649    623.649
 20.270    574.000    626.790    -52.790    623.089    624.153    625.726    623.089    623.089
 20.370    582.000    626.311    -44.311    622.532    623.611    625.231    622.532    622.532
 20.470    672.972    625.852     47.121    621.979    623.087    624.743    621.979    621.979
 20.570    610.967    625.407    -14.440    621.430    622.573    624.265    621.430    621.430
 20.670    641.000    624.986     16.014    620.885    622.068    623.802    620.885    620.885
 20.770    598.000    624.542    -26.542    620.343    621.547    623.338    620.343    620.343
 20.870    582.000    624.102    -42.102    619.805    621.031    622.875    619.805    619.805
 20.970    656.977    623.714     33.264    619.271    620.564    622.420    619.271    619.271
 21.070    600.000    623.351    -23.351    618.741    620.120    621.972    618.741    618.741
 21.170    641.437    622.936     18.501    618.214    619.621    621.529    618.214    618.214
 21.270    645.710    622.526     23.184    617.691    619.123    621.094    617.691    617.691
 21.370    578.000    622.145    -44.145    617.172    618.651    620.667    617.172    617.172
 21.470    669.807    621.776     48.031    616.656    618.186    620.247    616.656    616.656
 21.570    583.440    621.396    -37.957    616.144    617.707    619.834    616.144    616.144
 21.670    598.000    621.027    -23.027    615.636    617.235    619.429    615.636    615.636
 21.770    610.000    620.676    -10.676    615.132    616.773    619.035    615.132    615.132
 21.870    644.000    620.331     23.669    614.631    616.312    618.649    614.631    614.631
 21.970    596.986    619.992    -23.006    614.133    615.855    618.270    614.133    614.133
 22.070    661.519    619.663     41.856    613.640    615.404    617.899    613.640    613.640
 22.170    631.499    619.345     12.153    613.150    614.958    617.537    613.150    613.150
 22.270    636.000    619.040     16.960    612.664    614.519    617.185    612.664    612.664
 22.370    604.000    618.750    -14.750    612.181    614.087    616.843    612.181    612.181
 22.470    623.000    618.474      4.526    611.702    613.664    616.512    611.702    611.702
 22.570    566.000    618.215    -52.215    611.226    613.251    616.191    611.226    611.226
 22.670    610.000    617.976     -7.976    610.754    612.849    615.881    610.754    610.754
 22.770    615.000    617.758     -2.758    610.286    612.459    615.584    610.286    610.286
 22.870    567.000    617.562    -50.562    609.821    612.083    615.301    609.821    609.821
 22.970    593.740    617.386    -23.646    609.360    611.717    615.028    609.360    609.360
 23.070    619.000    617.235      1.765    608.902    611.368    614.770    608.902    608.902
 23.170    616.000    617.116     -1.116    608.448    611.038    614.526    608.448    608.448
 23.270    604.000    617.028    -13.028    607.997    610.729    614.297    607.997    607.997
 23.370    567.000    616.979    -49.979    607.550    610.446    614.084    607.550    607.550
 23.470    640.000    616.974     23.026    607.107    610.194    613.888    607.107    607.107
 23.570    629.000    617.023     11.977    606.666    609.981    613.710    606.666    606.666
 23.670    577.000    617.137    -40.137    606.230    609.817    613.551    606.230    606.230
 23.770    617.798    617.331      0.467    605.797    609.715    613.413    605.797    605.797
 23.870    629.000    617.626     11.374    605.367    609.696    613.298    605.367    605.367
 23.970    609.000    618.053     -9.053    604.941    609.790    613.206    604.941    604.941
 24.070    598.000    618.664    -20.664    604.518    610.045    613.139    604.518    604.518
 24.170    626.000    619.561      6.439    604.099    610.562    613.100    604.099    604.099
 24.270    602.336    620.963    -18.628    603.683    611.561    613.090    603.683    603.683
 24.370    588.000    623.348    -35.348    603.271    613.512    613.111    603.271    603.271
 24.470    648.000    627.610     20.390    602.862    617.312    613.168    602.862    602.862
 24.570    672.626    635.086     37.541    602.456    624.293    613.262    602.456    602.456
 24.670    663.329    647.122     16.206    602.054    635.800    613.398    602.054    602.054
 24.770    674.000    663.949     10.051    601.655    652.058    613.579    601.655    601.655
 24.870    718.000    682.874     35.126    601.259    670.371    613.809    601.259    601.259
 24.970    723.000    696.856     26.144    600.867    683.685    614.095    600.867    600.867
 25.070    651.988    697.902    -45.914    600.479    683.997    614.441    600.479    600.479
 25.170    686.000    685.537      0.463    600.093    670.824    614.854    600.093    600.093
 25.270    658.000    667.500     -9.500    599.711    651.904    615.342    599.711    599.711
 25.370    698.000    651.216     46.784    599.332    634.656    615.914    599.332    599.332
 25.470    613.000    639.710    -26.710    598.957    622.100    616.581    598.957    598.957
 25.570    670.000    632.922     37.078    598.585    614.161    617.354    598.585    598.585
 25.670    651.000    629.556     21.444    598.216    609.529    618.248    598.216    598.216
 25.770    617.000    628.268    -11.268    597.850    606.843    619.279    597.850    597.850
 25.870    628.168    628.147      0.020    597.488    605.170    620.467    597.488    597.488
 25.970    657.589    628.719     28.870    597.129    604.012    621.837    597.129    597.129
 26.070    586.000    629.781    -43.781    596.773    603.139    623.415    596.773    596.773
 26.170    586.747    631.266    -44.519    596.421    602.449    625.238    596.421    596.421
 26.270    625.000    633.166     -8.166    596.072    601.890    627.347    596.072    596.072
 26.370    624.000    635.506    -11.506    595.726    601.436    629.794    595.726    595.726
 26.470    634.000    638.336     -4.336    595.383    601.072    632.645    595.383    595.383
 26.570    634.000    641.735     -7.735    595.043    600.794    635.982    595.043    595.043
 26.670    683.731    645.785     37.946    594.707    600.588    639.902    594.707    594.707
 26.770    608.000    650.624    -42.624    594.373    600.456    644.538    594.373    594.373
 26.870    688.000    656.432     31.568    594.043    600.407    650.064    594.043    594.043
 26.970    674.000    663.446     10.554    593.716    600.451    656.707    593.716    593.716
 27.070    659.082    671.988    -12.906    593.393    600.603    664.771    593.393    593.393
 27.170    653.000    682.499    -29.499    593.072    600.888    674.676    593.072    593.072
 27.270    696.000    695.599      0.401    592.754    601.339    687.006    592.754    592.754
 27.370    707.609    712.182     -4.573    592.440    602.007    702.604    592.440    592.440
 27.470    741.000    733.607      7.393    592.129    602.971    722.751    592.129    592.129
 27.570    745.463    762.223    -16.760    591.820    604.364    749.661    591.820    591.820
 27.670    829.797    803.328     26.469    591.515    606.489    788.329    591.515    591.515
 27.770    840.000    872.289    -32.289    591.213    610.218    853.241    591.213    591.213
 27.870   1052.506   1014.329     38.177    590.914    618.115    987.041    590.914    590.914
 27.970   1349.000   1339.357      9.643    590.618    636.401   1293.386    590.618    590.618
 28.070   2123.903   2038.311     85.593    590.325    675.887   1952.378    590.325    590.325
 28.170   3211.781   3293.041    -81.259    590.036    746.879   3135.593    590.036    590.036
 28.270   5003.851   5026.390    -22.539    589.749    845.060   4770.313    589.749    589.749
 28.370   6700.000   6645.582     54.418    589.465    937.008   6297.352    589.465    589.465
 28.470   7309.000   7200.583    108.417    589.184    969.241   6820.157    589.184    589.184
 28.570   6477.000   6302.723    174.277    588.906    920.371   5971.175    588.906    588.906
 28.670   4882.000   4738.258    143.742    588.631    836.095   4490.815    588.631    588.631
 28.770   3566.000   3517.247     48.753    588.359    775.363   3330.232    588.359    588.359
 28.870   3129.000   3102.486     26.514    588.090    765.752   2924.752    588.090    588.090
 28.970   3505.000   3387.812    117.188    587.824    800.101   3175.467    587.824    587.824
 29.070   3777.770   3903.341   -125.572    587.561    845.979   3644.970    587.561    587.561
 29.170   4118.000   4064.925     53.075    587.301    860.860   3791.579    587.301    587.301
 29.270   3709.388   3589.866    119.522    587.044    824.175   3353.029    587.044    587.044
 29.370   2703.000   2751.592    -48.592    586.790    758.276   2580.367    586.790    586.790
 29.470   1924.000   1950.502    -26.502    586.538    695.132   1842.087    586.538    586.538
 29.570   1315.000   1381.883    -66.883    586.290    650.313   1317.962    586.290    586.290
 29.670   1075.019   1052.399     22.620    586.044    624.390   1014.103    586.044    586.044
 29.770    946.000    884.854     61.146    585.801    611.274    859.406    585.801    585.801
 29.870    787.425    801.726    -14.301    585.561    604.838    782.461    585.561    585.561
 29.970    746.792    756.117     -9.325    585.324    601.384    740.063    585.324    585.324
 30.070    780.802    726.898     53.904    585.089    599.259    712.732    585.089    585.089
 30.170    788.000    705.986     82.014    584.858    597.846    692.999    584.858    584.858
 30.270    728.000    690.281     37.719    584.629    596.943    677.967    584.629    584.629
 30.370    688.000    678.445      9.555    584.403    596.530    666.317    584.403    584.403
 30.470    618.526    670.029    -51.504    584.180    596.779    657.426    584.180    584.180
 30.570    692.000    665.477     26.523    583.959    598.195    651.235    583.959    583.959
 30.670    613.455    666.342    -52.887    583.742    601.779    648.292    583.742    583.742
 30.770    747.000    675.064     71.936    583.527    608.942    649.628    583.527    583.527
 30.870    681.000    693.541    -12.541    583.315    620.774    656.046    583.315    583.315
 30.970    754.000    720.351     33.649    583.105    636.617    666.785    583.105    583.105
 31.070    792.000    747.490     44.510    582.898    652.368    677.950    582.898    582.898
 31.170    733.000    759.942    -26.942    582.694    660.266    682.295    582.694    582.694
 31.270    743.000    747.035     -4.035    582.493    654.796    674.667    582.493    582.493
 31.370    761.747    715.956     45.791    582.294    639.725    658.479    582.294    582.294
 31.470    661.185    681.699    -20.514    582.098    622.875    640.893    582.098    582.098
 31.570    638.057    653.929    -15.872    581.905    609.295    626.522    581.905    581.905
 31.670    685.890    635.268     50.622    581.714    600.365    616.607    581.714    581.714
 31.770    630.383    624.156      6.227    581.526    595.289    610.386    581.526    581.526
 31.870    621.000    617.831      3.169    581.340    592.642    606.524    581.340    581.340
 31.970    627.000    614.067     12.933    581.157    591.277    603.943    581.157    581.157
 32.070    628.000    611.585     16.415    580.977    590.539    602.020    580.977    580.977
 32.170    653.696    609.793     43.902    580.799    590.128    600.462    580.799    580.799
 32.270    668.000    608.447     59.553    580.624    589.925    599.143    580.624    580.624
 32.370    618.000    607.445     10.555    580.451    589.886    598.008    580.451    580.451
 32.470    628.120    606.742     21.378    580.281    589.996    597.025    580.281    580.281
 32.570    633.000    606.321     26.679    580.113    590.255    596.177    580.113    580.113
 32.670    605.951    606.181     -0.231    579.948    590.675    595.453    579.948    579.948
 32.770    613.000    606.341      6.659    579.786    591.276    594.849    579.786    579.786
 32.870    599.000    606.835     -7.835    579.625    592.092    594.366    579.625    579.625
 32.970    617.000    607.720      9.280    579.468    593.173    594.013    579.468    579.468
 33.070    599.000    609.082    -10.082    579.313    594.589    593.803    579.313    579.313
 33.170    644.000    611.055     32.945    579.160    596.449    593.763    579.160    579.160
 33.270    642.000    613.861     28.139    579.010    598.927    593.941    579.010    579.010
 33.370    656.208    617.927     38.281    578.862    602.357    594.428    578.862    578.862
 33.470    634.000    624.184      9.816    578.717    607.462    595.433    578.717    578.717
 33.570    660.000    634.732     25.268    578.574    615.872    597.427    578.574    578.574
 33.670    662.000    653.903      8.097    578.433    630.944    601.382    578.433    578.433
 33.770    673.000    689.189    -16.189    578.295    658.484    608.983    578.295    578.295
 33.870    721.000    750.508    -29.508    578.159    706.177    622.463    578.159    578.159
 33.970    826.000    845.910    -19.910    578.026    780.262    643.632    578.026    578.026
 34.070    959.000    973.170    -14.170    577.895    879.019    671.988    577.895    577.895
 34.170   1143.614   1109.041     34.573    577.766    984.443    702.300    577.766    577.766
 34.270   1237.000   1204.221     32.779    577.640   1058.336    723.467    577.640    577.640
 34.370   1217.000   1207.850      9.150    577.516   1061.293    724.038    577.516    577.516
 34.470   1129.164   1117.276     11.888    577.394    991.245    703.411    577.394    577.394
 34.570   1003.000    981.539     21.461    577.274    886.186    672.626    577.274    577.274
 34.670    876.000    851.720     24.280    577.157    785.698    643.182    577.157    577.157
 34.770    727.000    752.989    -25.989    577.042    709.286    620.748    577.042    577.042
 34.870    657.071    688.695    -31.625    576.930    659.549    606.078    576.930    576.930
 34.970    707.000    651.176     55.824    576.819    630.550    597.445    576.819    576.819
 35.070    677.000    630.422     46.578    576.711    614.534    592.598    576.711    576.711
 35.170    667.000    618.693     48.307    576.605    605.504    589.793    576.605    576.605
 35.270    658.000    611.445     46.555    576.501    599.938    588.007    576.501    576.501
 35.370    620.000    606.457     13.543    576.400    596.116    586.740    576.400    576.400
 35.470    595.000    602.740     -7.740    576.300    593.271    585.769    576.300    576.300
 35.570    647.396    599.841     47.555    576.203    591.051    584.993    576.203    576.203
 35.670    630.000    597.524     32.476    576.108    589.272    584.358    576.108    576.108
 35.770    608.000    595.642     12.358    576.015    587.822    583.834    576.015    576.015
 35.870    616.000    594.097     21.903    575.924    586.624    583.397    575.924    575.924
 35.970    592.700    592.821     -0.121    575.836    585.623    583.034    575.836    575.836
 36.070    568.848    591.763    -22.915    575.749    584.777    582.734    575.749    575.749
 36.170    555.954    590.886    -34.932    575.665    584.059    582.491    575.665    575.665
 36.270    568.584    590.163    -21.578    575.582    583.444    582.301    575.582    575.582
 36.370    575.000    589.575    -14.575    575.502    582.916    582.161    575.502    575.502
 36.470    601.000    589.111     11.889    575.424    582.462    582.072    575.424    575.424
 36.570    593.729    588.763      4.966    575.348    582.073    582.037    575.348    575.348
 36.670    611.962    588.529     23.433    575.274    581.741    582.061    575.274    575.274
 36.770    560.713    588.414    -27.701    575.201    581.463    582.151    575.201    575.201
 36.870    607.595    588.426     19.170    575.131    581.237    582.319    575.131    575.131
 36.970    581.000    588.585     -7.585    575.063    581.067    582.581    575.063    575.063
 37.070    602.294    588.927     13.368    574.997    580.962    582.961    574.997    574.997
 37.170    566.000    589.514    -23.514    574.933    580.951    583.495    574.933    574.933
 37.270    574.000    590.467    -16.467    574.871    581.089    584.248    574.871    574.871
 37.370    630.941    592.014     38.926    574.811    581.480    585.344    574.811    574.811
 37.470    633.000    594.580     38.420    574.752    582.282    587.049    574.752    574.752
 37.570    612.000    598.901     13.099    574.696    583.676    589.919    574.696    574.696
 37.670    597.000    606.144     -9.144    574.642    585.796    594.988    574.642    574.642
 37.770    613.243    617.878     -4.635    574.589    588.588    603.876    574.589    574.589
 37.870    652.000    635.648     16.352    574.538    591.644    618.538    574.538    574.538
 37.970    658.000    659.999     -1.999    574.490    594.095    640.387    574.490    574.490
 38.070    698.000    689.273      8.727    574.443    594.904    668.803    574.443    574.443
 38.170    789.000    718.619     70.381    574.398    593.718    699.290    574.398    574.398
 38.270    751.815    739.295     12.520    574.354    591.193    722.449    574.354    574.354
 38.370    742.000    741.313      0.687    574.313    588.230    727.393    574.313    574.313
 38.470    725.000    722.241      2.759    574.273    585.431    711.084    574.273    574.273
 38.570    667.000    690.953    -23.953    574.236    583.134    682.056    574.236    574.236
 38.670    640.000    658.788    -18.788    574.200    581.453    651.537    574.200    574.200
 38.770    606.000    632.423    -26.423    574.165    580.323    626.268    574.165    574.165
 38.870    582.000    613.793    -31.793    574.133    579.600    608.327    574.133    574.133
 38.970    563.000    602.001    -39.001    574.102    579.146    596.958    574.102    574.102
 39.070    610.337    595.051     15.286    574.073    578.852    590.272    574.073    574.073
 39.170    574.000    591.029    -17.029    574.046    578.654    586.421    574.046    574.046
 39.270    607.000    588.600     18.400    574.021    578.516    584.105    574.021    574.021
 39.370    583.528    587.000     -3.472    573.997    578.415    582.581    573.997    573.997
 39.470    592.000    585.849      6.151    573.975    578.340    581.483    573.975    573.975
 39.570    553.518    584.970    -31.451    573.954    578.285    580.639    573.954    573.954
 39.670    622.678    584.275     38.402    573.935    578.246    579.964    573.935    573.935
 39.770    561.932    583.718    -21.785    573.918    578.223    579.413    573.918    573.918
 39.870    571.000    583.265    -12.265    573.903    578.212    578.956    573.903    573.903
 39.970    622.000    582.897     39.103    573.889    578.213    578.572    573.889    573.889
 40.070    556.000    582.597    -26.597    573.877    578.227    578.247    573.877    573.877
 40.170    560.776    582.354    -21.578    573.866    578.251    577.969    573.866    573.866
 40.270    580.000    582.160     -2.160    573.857    578.288    577.729    573.857    573.857
 40.370    593.000    582.008     10.992    573.850    578.336    577.522    573.850    573.850
 40.470    623.379    581.893     41.486    573.844    578.396    577.341    573.844    573.844
 40.570    589.000    581.813      7.187    573.839    578.470    577.183    573.839    573.839
 40.670    560.950    581.765    -20.814    573.837    578.558    577.044    573.837    573.837
 40.770    567.000    581.748    -14.748    573.835    578.661    576.922    573.835    573.835
 40.870    571.000    581.762    -10.762    573.836    578.783    576.815    573.836    573.836
 40.970    586.000    581.808      4.192    573.837    578.924    576.722    573.837    573.837
 41.070    557.000    581.888    -24.888    573.841    579.089    576.640    573.841    573.841
 41.170    621.541    582.004     39.537    573.845    579.281    576.569    573.845    573.845
 41.270    576.000    582.161     -6.161    573.851    579.505    576.508    573.851    573.851
 41.370    545.000    582.364    -37.364    573.859    579.768    576.457    573.859    573.859
 41.470    597.000    582.623     14.377    573.868    580.078    576.414    573.868    573.868
 41.570    551.000    582.948    -31.948    573.879    580.447    576.380    573.879    573.879
 41.670    543.562    583.355    -39.793    573.891    580.891    576.356    573.891    573.891
 41.770    569.000    583.868    -14.868    573.904    581.433    576.340    573.904    573.904
 41.870    591.000    584.527      6.473    573.919    582.112    576.336    573.919    573.919
 41.970    558.000    585.407    -27.407    573.935    583.000    576.344    573.935    573.935
 42.070    596.000    586.658      9.342    573.952    584.242    576.371    573.952    573.952
 42.170    601.116    588.582     12.534    573.971    586.128    576.428    573.971    573.971
 42.270    582.000    591.735     -9.735    573.991    589.194    576.537    573.991    573.991
 42.370    551.144    597.021    -45.877    574.013    594.309    576.731    574.013    574.013
 42.470    580.000    605.644    -25.644    574.036    602.632    577.058    574.036    574.036
 42.570    592.000    618.797    -26.797    574.060    615.309    577.564    574.060    574.060
 42.670    635.000    637.002     -2.002    574.085    632.843    578.267    574.085    574.085
 42.770    620.373    659.195    -38.822    574.112    654.213    579.128    574.112    574.112
 42.870    656.000    681.737    -25.737    574.140    675.917    580.005    574.140    574.140
 42.970    699.000    698.101      0.899    574.169    691.679    580.646    574.169    574.169
 43.070    751.078    701.388     49.690    574.199    694.862    580.785    574.199    574.199
 43.170    732.376    689.890     42.486    574.231    683.821    580.356    574.231    574.231
 43.270    690.953    668.997     21.956    574.264    663.742    579.566    574.264    574.264
 43.370    647.000    646.094      0.906    574.298    641.727    578.701    574.298    574.298
 43.470    574.000    626.105    -52.105    574.333    622.513    577.951    574.333    574.333
 43.570    618.000    611.020      6.980    574.370    608.013    577.393    574.370    574.370
 43.670    592.314    600.827     -8.513    574.407    598.219    577.026    574.407    574.407
 43.770    575.363    594.498    -19.135    574.446    592.140    576.811    574.446    574.446
 43.870    590.000    590.766     -0.766    574.486    588.558    576.699    574.486    574.486
 43.970    610.000    588.582     21.418    574.527    586.464    576.649    574.527    574.527
 44.070    556.048    587.254    -31.206    574.569    585.191    576.635    574.569    574.569
 44.170    560.001    586.391    -26.390    574.613    584.365    576.640    574.613    574.613
 44.270    579.000    585.794     -6.794    574.657    583.794    576.659    574.657    574.657
 44.370    607.000    585.367     21.633    574.703    583.385    576.686    574.703    574.703
 44.470    570.043    585.059    -15.015    574.749    583.088    576.721    574.749    574.749
 44.570    549.330    584.841    -35.511    574.797    582.878    576.761    574.797    574.797
 44.670    594.000    584.694      9.306    574.845    582.734    576.806    574.845    574.845
 44.770    613.074    584.606     28.467    574.895    582.646    576.856    574.895    574.895
 44.870    611.000    584.567     26.433    574.946    582.603    576.911    574.946    574.946
 44.970    589.000    584.570      4.430    574.998    582.598    576.970    574.998    574.998
 45.070    560.479    584.609    -24.130    575.050    582.627    577.033    575.050    575.050
 45.170    610.000    584.681     25.319    575.104    582.686    577.099    575.104    575.104
 45.270    575.628    584.782     -9.154    575.159    582.771    577.170    575.159    575.159
 45.370    583.000    584.911     -1.911    575.214    582.880    577.245    575.214    575.214
 45.470    552.685    585.066    -32.381    575.271    583.013    577.323    575.271    575.271
 45.570    569.994    585.246    -15.252    575.328    583.168    577.406    575.328    575.328
 45.670    597.000    585.452     11.548    575.387    583.345    577.493    575.387    575.387
 45.770    609.000    585.683     23.317    575.446    583.544    577.585    575.446    575.446
 45.870    580.000    585.941     -5.941    575.506    583.765    577.681    575.506    575.506
 45.970    573.057    586.225    -13.168    575.567    584.010    577.782    575.567    575.567
 46.070    553.000    586.539    -33.539    575.629    584.279    577.889    575.629    575.629
 46.170    558.000    586.884    -28.884    575.692    584.574    578.001    575.692    575.692
 46.270    608.000    587.263     20.737    575.756    584.899    578.120    575.756    575.756
 46.370    621.000    587.681     33.319    575.820    585.255    578.245    575.820    575.820
 46.470    639.000    588.141     50.859    575.886    585.647    578.378    575.886    575.886
 46.570    592.000    588.650      3.350    575.952    586.081    578.520    575.952    575.952
 46.670    600.000    589.215     10.785    576.019    586.563    578.670    576.019    576.019
 46.770    544.973    589.848    -44.875    576.087    587.101    578.832    576.087    576.087
 46.870    617.000    590.560     26.440    576.155    587.707    579.006    576.155    576.155
 46.970    628.187    591.374     36.813    576.225    588.401    579.196    576.225    576.225
 47.070    654.000    592.324     61.676    576.295    589.211    579.405    576.295    576.295
 47.170    557.000    593.473    -36.473    576.365    590.195    579.640    576.365    576.365
 47.270    607.839    594.941     12.898    576.437    591.460    579.914    576.437    576.437
 47.370    620.131    596.950     23.181    576.509    593.203    580.252    576.509    576.509
 47.470    647.000    599.880     47.120    576.582    595.763    580.693    576.582    576.582
 47.570    572.000    604.294    -32.294    576.656    599.645    581.296    576.656    576.656
 47.670    583.000    610.892    -27.892    576.730    605.473    582.136    576.730    576.730
 47.770    618.000    620.328     -2.328    576.805    613.833    583.281    576.805    576.805
 47.870    632.000    632.880     -0.880    576.881    624.971    584.761    576.881    576.881
 47.970    664.999    648.026     16.973    576.957    638.419    586.526    576.957    576.957
 48.070    631.323    663.990    -32.667    577.034    652.583    588.392    577.034    577.034
 48.170    660.000    677.426    -17.426    577.111    664.466    590.015    577.111    577.111
 48.270    707.083    684.129     22.954    577.190    670.297    590.963    577.190    577.190
 48.370    687.000    681.788      5.212    577.268    668.001    591.000    577.268    577.268
 48.470    631.053    672.202    -41.149    577.348    659.186    590.317    577.348    577.348
 48.570    685.000    659.517     25.483    577.427    647.558    589.351    577.427    577.427
 48.670    653.681    647.352      6.329    577.508    636.350    588.483    577.508    577.508
 48.770    588.000    637.809    -49.809    577.589    627.436    587.943    577.589    577.589
 48.870    656.264    631.686     24.578    577.670    621.519    587.825    577.670    577.670
 48.970    588.000    628.925    -40.925    577.753    618.528    588.139    577.753    577.753
 49.070    576.000    629.053    -53.053    577.835    618.022    588.859    577.835    577.835
 49.170    595.144    631.562    -36.418    577.918    619.511    589.962    577.918    577.918
 49.270    590.349    636.165    -45.815    578.002    622.691    591.470    578.002    578.002
 49.370    638.354    643.025     -4.671    578.086    627.613    593.491    578.086    578.086
 49.470    647.000    653.132     -6.132    578.170    634.961    596.333    578.170    578.170
 49.570    651.000    669.172    -18.172    578.255    646.673    600.741    578.255    578.255
 49.670    649.124    697.241    -48.117    578.341    667.189    608.369    578.341    578.341
 49.770    789.000    749.403     39.597    578.426    705.310    622.478    578.426    578.426
 49.870    857.000    845.984     11.016    578.513    775.876    648.549    578.513    578.513
 49.970    963.000   1014.756    -51.756    578.599    899.195    694.046    578.599    578.599
 50.070   1227.000   1283.391    -56.391    578.686   1095.519    766.392    578.686    578.686
 50.170   1642.000   1663.884    -21.884    578.774   1373.443    869.005    578.774    578.774
 50.270   2098.000   2131.812    -33.812    578.862   1715.243    995.206    578.862    578.862
 50.370   2473.000   2612.195   -139.195    578.950   2066.202   1124.756    578.950    578.950
 50.470   2873.000   2981.963   -108.963    579.038   2336.471   1224.440    579.038    579.038
 50.570   2972.000   3109.223   -137.223    579.127   2429.746   1258.644    579.127    579.127
 50.670   2879.635   2938.981    -59.346    579.216   2305.867   1212.474    579.216    579.216
 50.770   2596.000   2543.841     52.159    579.306   2017.893   1105.445    579.306    579.306
 50.870   2032.351   2060.783    -28.432    579.396   1665.938    974.430    579.396    579.396
 50.970   1613.440   1607.630      5.811    579.486   1336.148    851.124    579.486    579.486
 51.070   1307.702   1251.110     56.592    579.576   1077.340    753.460    579.576    579.576
 51.170   1070.104   1008.426     61.678    579.667    902.097    686.074    579.667    579.667
 51.270    900.000    863.398     36.602    579.758    798.487    644.721    579.758    579.758
 51.370    830.699    786.267     44.432    579.849    744.473    621.683    579.849    579.849
 51.470    742.000    748.365     -6.365    579.940    718.574    609.766    579.940    579.940
 51.570    783.000    728.740     54.260    580.032    704.792    604.011    580.032    580.032
 51.670    726.626    715.302     11.324    580.124    693.778    601.676    580.124    580.124
 51.770    716.000    703.319     12.681    580.216    682.069    601.488    580.216    580.216
 51.870    731.984    692.368     39.616    580.308    669.815    602.876    580.308    580.308
 51.970    655.000    683.298    -28.298    580.400    658.295    605.412    580.400    580.400
 52.070    671.000    676.560     -5.560    580.493    648.568    608.487    580.493    580.493
 52.170    638.265    671.758    -33.493    580.586    641.153    611.188    580.586    580.586
 52.270    671.000    667.861      3.139    580.679    636.107    612.427    580.679    580.679
 52.370    682.501    663.903     18.598    580.772    633.204    611.464    580.772    580.772
 52.470    617.014    659.690    -42.677    580.865    632.119    608.430    580.865    580.865
 52.570    638.489    655.821    -17.332    580.958    632.583    604.191    580.958    580.958
 52.670    679.000    653.204     25.796    581.051    634.508    599.744    581.051    581.051
 52.770    678.000    652.772     25.228    581.145    638.100    595.815    581.145    581.145
 52.870    648.000    655.555     -7.555    581.238    644.017    592.775    581.238    581.238
 52.970    623.195    662.967    -39.772    581.332    653.591    590.706    581.332    581.332
 53.070    680.009    677.180      2.829    581.425    669.083    589.521    581.425    581.425
 53.170    714.175    701.370     12.805    581.519    693.826    589.059    581.519    581.519
 53.270    718.799    739.570    -20.771    581.613    732.012    589.165    581.613    581.613
 53.370    786.000    796.108    -10.108    581.707    787.869    589.937    581.707    581.707
 53.470    938.000    873.564     64.436    581.800    864.093    591.261    581.800    581.800
 53.570    957.000    970.993    -13.993    581.894    959.816    593.058    581.894    581.894
 53.670   1083.000   1081.583      1.417    581.988   1068.392    595.163    581.988    581.988
 53.770   1189.866   1190.495     -0.629    582.081   1175.296    597.266    582.081    582.081
 53.870   1316.081   1274.209     41.872    582.175   1257.488    598.886    582.175    582.175
 53.970   1273.000   1306.657    -33.657    582.269   1289.429    599.495    582.269    582.269
 54.070   1219.930   1275.514    -55.584    582.362   1259.042    598.842    582.362    582.362
 54.170   1121.000   1192.951    -71.951    582.456   1178.255    597.169    582.456    582.456
 54.270   1035.000   1084.992    -49.992    582.549   1072.565    594.997    582.549    582.549
 54.370   1029.598    975.201     54.397    582.643    965.065    592.798    582.643    582.643
 54.470    821.114    878.475    -57.361    582.736    870.356    590.871    582.736    582.736
 54.570    810.000    801.661      8.339    582.829    795.151    589.353    582.829    582.829
 54.670    768.000    745.690     22.310    582.922    740.361    588.261    582.922    582.922
 54.770    751.419    707.832     43.587    583.015    703.314    587.539    583.015    583.015
 54.870    686.000    683.798      2.202    583.108    679.808    587.101    583.108    583.108
 54.970    639.495    669.311    -29.816    583.201    665.653    586.861    583.201    583.201
 55.070    674.000    660.962     13.038    583.293    657.508    586.749    583.293    583.293
 55.170    686.000    656.424     29.576    583.385    653.091    586.718    583.385    583.385
 55.270    648.797    654.292     -5.495    583.477    651.029    586.740    583.477    583.477
 55.370    665.953    653.808     12.145    583.569    650.578    586.799    583.569    583.569
 55.470    656.948    654.610      2.338    583.661    651.382    586.889    583.661    583.661
 55.570    610.000    656.564    -46.564    583.753    653.312    587.005    583.753    583.753
 55.670    676.429    659.679     16.750    583.844    656.375    587.148    583.844    583.844
 55.770    668.000    664.088      3.912    583.935    660.701    587.320    583.935    583.935
 55.870    714.755    670.092     44.662    584.026    666.588    587.529    584.026    584.026
 55.970    659.000    678.301    -19.301    584.116    674.631    587.785    584.116    584.116
 56.070    649.000    689.910    -40.910    584.207    686.000    588.113    584.207    584.207
 56.170    750.671    707.186     43.485    584.297    702.919    588.559    584.297    584.297
 56.270    703.000    734.178    -31.178    584.387    729.352    589.203    584.387    584.387
 56.370    762.000    777.498    -15.498    584.476    771.779    590.180    584.476    584.476
 56.470    819.320    846.802    -27.482    584.565    839.661    591.682    584.565    584.565
 56.570    901.000    954.282    -53.282    584.654    944.945    593.955    584.654    584.654
 56.670   1108.200   1112.462     -4.262    584.743   1099.902    597.250    584.743    584.743
 56.770   1286.265   1329.981    -43.717    584.831   1313.002    601.741    584.831    584.831
 56.870   1575.000   1605.908    -30.908    584.919   1583.334    607.412    584.919    584.919
 56.970   1921.808   1923.836     -2.028    585.006   1894.829    613.932    585.006    585.006
 57.070   2177.013   2247.167    -70.154    585.093   2211.627    620.571    585.093    585.093
 57.170   2548.000   2518.234     29.766    585.180   2477.222    626.172    585.180    585.180
 57.270   2711.000   2669.494     41.506    585.267   2625.423    629.382    585.267    585.267
 57.370   2708.000   2654.447     53.553    585.353   2610.645    629.271    585.353    585.353
 57.470   2563.000   2478.713     84.287    585.438   2438.365    625.955    585.438    585.438
 57.570   2234.000   2195.554     38.446    585.523   2160.761    620.506    585.523    585.523
 57.670   1842.000   1872.129    -30.129    585.608   1843.641    614.278    585.608    585.608
 57.770   1548.000   1562.517    -14.517    585.692   1539.992    608.374    585.692    585.692
 57.870   1236.028   1299.557    -63.530    585.776   1281.971    603.485    585.776    585.776
 57.970   1146.254   1096.754     49.499    585.860   1082.757    599.945    585.860    585.860
 58.070   1007.826    953.435     54.391    585.943    941.571    597.865    585.943    585.943
 58.170    814.000    860.895    -46.895    586.025    849.662    597.293    586.025    586.025
 58.270    835.000    808.084     26.916    586.107    795.850    598.358    586.107    586.107
 58.370    729.862    785.572    -55.710    586.189    770.400    601.363    586.189    586.189
 58.470    790.936    787.288      3.648    586.270    766.804    606.743    586.270    586.270
 58.570    866.237    810.331     55.907    586.350    781.749    614.909    586.350    586.350
 58.670    903.744    853.530     50.214    586.431    813.967    625.959    586.431    586.431
 58.770    876.000    915.532    -39.532    586.510    862.629    639.369    586.510    586.510
 58.870   1039.447    992.976     46.472    586.589    925.751    653.763    586.589    586.589
 58.970   1015.000   1079.234    -64.234    586.667    998.964    666.888    586.667    586.667
 59.070   1128.326   1164.492    -36.166    586.745   1075.201    675.994    586.745    586.745
 59.170   1175.429   1238.207    -62.778    586.823   1146.167    678.838    586.823    586.823
 59.270   1193.000   1292.835    -99.835    586.899   1204.813    674.916    586.899    586.899
 59.370   1220.000   1324.701   -104.701    586.976   1245.980    665.712    586.976    586.976
 59.470   1330.000   1331.871     -1.871    587.051   1265.310    653.645    587.051    587.051
 59.570   1327.000   1314.616     12.384    587.126   1260.821    640.964    587.126    587.126
 59.670   1289.000   1279.206      9.794    587.200   1237.132    629.315    587.200    587.200
 59.770   1294.814   1238.380     56.435    587.274   1206.010    619.666    587.274    587.274
 59.870   1237.000   1206.343     30.657    587.347   1181.353    612.328    587.347    587.347
 59.970   1247.485   1193.747     53.738    587.420   1174.022    607.095    587.420    587.420
 60.070   1259.000   1206.396     52.604    587.492   1190.300    603.492    587.492    587.492
 60.170   1254.000   1246.588      7.412    587.563   1232.981    601.023    587.563    587.563
 60.270   1334.000   1313.556     20.444    587.633   1301.675    599.318    587.633    587.633
 60.370   1437.667   1401.019     36.649    587.703   1390.337    598.145    587.703    587.703
 60.470   1560.000   1494.372     65.628    587.772   1484.510    597.363    587.772    587.772
 60.570   1640.000   1570.810     69.190    587.841   1561.483    596.885    587.841    587.841
 60.670   1635.000   1604.568     30.432    587.909   1595.556    596.656    587.909    587.909
 60.770   1518.000   1578.197    -60.197    587.976   1569.310    596.638    587.976    587.976
 60.870   1487.000   1492.900     -5.900    588.042   1483.958    596.810    588.042    588.042
 60.970   1359.718   1367.123     -7.404    588.108   1357.942    597.163    588.108    588.108
 61.070   1230.000   1225.505      4.495    588.173   1215.886    597.707    588.173    588.173
 61.170   1035.000   1089.349    -54.349    588.237   1079.054    598.477    588.237    588.237
 61.270    993.000    972.949     20.051    588.300    961.654    599.559    588.300    588.300
 61.370    932.089    883.579     48.510    588.363    870.794    601.121    588.363    588.363
 61.470    832.000    823.127      8.873    588.425    808.055    603.471    588.425    588.425
 61.570    754.718    790.486    -35.768    588.486    771.822    607.119    588.486    588.486
 61.670    807.937    784.002     23.935    588.547    759.672    612.835    588.547    588.547
 61.770    822.363    803.215     19.148    588.606    770.105    621.657    588.606    588.606
 61.870    838.000    849.391    -11.391    588.665    803.176    634.798    588.665    588.665
 61.970    943.276    924.713     18.562    588.723    859.924    653.399    588.723    588.723
 62.070   1064.671   1030.360     34.311    588.780    940.851    678.140    588.780    588.780
 62.170   1131.000   1164.023    -33.023    588.837   1043.918    708.754    588.837    588.837
 62.270   1301.000   1317.539    -16.539    588.892   1162.642    743.566    588.892    588.892
 62.370   1445.000   1475.247    -30.247    588.947   1284.765    779.182    588.947    588.947
 62.470   1604.916   1613.776     -8.861    589.001   1392.057    810.466    589.001    589.001
 62.570   1636.832   1705.160    -68.329    589.054   1462.727    831.249    589.054    589.054
 62.670   1644.098   1725.982    -81.884    589.106   1478.525    836.361    589.106    589.106
 62.770   1627.000   1669.898    -42.898    589.157   1434.492    824.406    589.157    589.157
 62.870   1518.000   1551.965    -33.965    589.207   1342.335    798.725    589.207    589.207
 62.970   1395.000   1399.303     -4.303    589.257   1223.154    765.331    589.257    589.257
 63.070   1144.000   1238.634    -94.634    589.306   1097.746    730.147    589.306    589.306
 63.170   1120.000   1089.830     30.170    589.353    981.575    697.579    589.353    589.353
 63.270    941.000    964.618    -23.618    589.400    883.767    670.233    589.400    589.400
 63.370    876.000    867.502      8.498    589.446    807.824    649.110    589.446    589.446
 63.470    755.413    797.539    -42.126    589.491    753.010    634.009    589.491    589.491
 63.570    794.000    750.557     43.443    589.535    716.072    624.009    589.535    589.535
 63.670    668.109    721.252    -53.143    589.578    692.879    617.939    589.578    589.578
 63.770    675.797    704.755    -28.958    589.620    679.634    614.727    589.620    589.620
 63.870    674.000    697.509    -23.509    589.662    673.555    613.599    589.662    589.662
 63.970    752.000    697.588     54.412    589.702    673.102    614.168    589.702    589.702
 64.070    674.868    704.671    -29.803    589.741    677.925    616.462    589.741    589.741
 64.170    680.000    719.849    -39.849    589.780    688.665    620.932    589.780    589.780
 64.270    746.814    745.326      1.488    589.817    706.655    628.445    589.817    589.817
 64.370    790.000    783.970      6.030    589.853    733.524    640.241    589.853    589.853
 64.470    822.750    838.641    -15.891    589.889    770.660    657.790    589.889    589.889
 64.570    904.000    911.261     -7.261    589.923    818.573    682.507    589.923    589.923
 64.670   1022.000   1001.691     20.309    589.956    876.204    715.310    589.956    589.956
 64.770   1188.000   1106.543     81.457    589.989    940.285    756.083    589.989    589.989
 64.870   1217.320   1218.182     -0.862    590.020   1004.868    803.143    590.020    590.020
 64.970   1324.766   1324.422      0.344    590.050   1061.435    852.828    590.050    590.050
 65.070   1407.473   1409.913     -2.440    590.080   1100.431    899.346    590.080    590.080
 65.170   1525.748   1459.884     65.864    590.108   1114.576    935.213    590.108    590.108
 65.270   1505.000   1465.011     39.989    590.135   1102.028    952.942    590.135    590.135
 65.370   1490.000   1424.973     65.027    590.161   1066.857    948.138    590.161    590.161
 65.470   1367.000   1348.808     18.192    590.186   1016.925    921.970    590.186    590.186
 65.570   1276.000   1251.316     24.684    590.210    960.985    880.480    590.210    590.210
 65.670   1153.000   1147.622      5.378    590.233    906.329    831.494    590.233    590.233
 65.770   1060.000   1049.304     10.696    590.255    857.593    781.957    590.255    590.255
 65.870    972.000    963.166      8.834    590.276    816.646    736.803    590.276    590.276
 65.970    854.000    891.788    -37.788    590.296    783.263    698.837    590.296    590.296
 66.070    816.000    834.928    -18.928    590.314    756.230    669.031    590.314    590.314
 66.170    772.000    790.968    -18.968    590.332    734.325    646.993    590.332    590.332
 66.270    676.000    757.831    -81.831    590.348    716.680    631.515    590.348    590.348
 66.370    726.000    733.404     -7.404    590.363    702.700    621.078    590.363    590.363
 66.470    678.000    715.765    -37.765    590.377    691.926    614.223    590.377    590.377
 66.570    700.000    703.353     -3.353    590.390    683.993    609.754    590.390    590.390
 66.670    674.000    695.027    -21.027    590.402    678.633    606.796    590.402    590.402
 66.770    655.000    690.021    -35.021    590.413    675.663    604.770    590.413    590.413
 66.870    641.000    687.882    -46.882    590.423    674.984    603.319    590.423    590.423
 66.970    639.973    688.431    -48.459    590.431    676.621    602.238    590.431    590.431
 67.070    637.000    691.805    -54.805    590.438    680.821    601.420    590.438    590.438
 67.170    666.437    698.588    -32.152    590.444    688.215    600.815    590.444    590.444
 67.270    746.000    710.025     35.975    590.449    700.055    600.415    590.449    590.449
 67.370    722.000    728.292     -6.292    590.453    718.493    600.246    590.453    590.453
 67.470    713.000    756.780    -43.780    590.456    746.860    600.366    590.456    590.456
 67.570    803.000    800.269      2.731    590.457    789.844    600.869    590.457    590.457
 67.670    835.000    864.827    -29.827    590.457    853.390    601.875    590.457    590.457
 67.770    905.000    957.236    -52.236    590.456    944.142    603.526    590.456    590.456
 67.870   1077.582   1083.816     -6.234    590.454   1068.289    605.950    590.454    590.454
 67.970   1285.000   1248.648     36.352    590.451   1229.834    609.231    590.451    590.451
 68.070   1377.000   1451.447    -74.447    590.446   1428.503    613.360    590.446    590.446
 68.170   1766.890   1685.449     81.442    590.440   1657.685    618.186    590.440    590.440
 68.270   1996.324   1935.711     60.613    590.433   1902.767    623.384    590.433    590.433
 68.370   2180.000   2178.197      1.803    590.425   2140.234    628.433    590.425    590.425
 68.470   2392.000   2380.609     11.391    590.415   2338.489    632.633    590.415    590.415
 68.570   2524.000   2507.479     16.521    590.404   2462.826    635.216    590.404    590.404
 68.670   2630.000   2531.586     98.414    590.392   2486.602    635.592    590.392    590.392
 68.770   2457.000   2447.095      9.905    590.379   2404.096    633.634    590.379    590.379
 68.870   2269.324   2273.018     -3.694    590.365   2233.903    629.751    590.365    590.365
 68.970   2036.000   2043.133     -7.133    590.349   2009.073    624.672    590.349    590.349
 69.070   1802.848   1792.314     10.535    590.332   1763.735    619.148    590.332    590.332
 69.170   1593.000   1548.531     44.469    590.314   1525.265    613.783    590.314    590.314
 69.270   1383.000   1330.620     52.380    590.294   1312.097    608.981    590.294    590.294
 69.370   1116.498   1148.698    -32.200    590.273   1134.137    604.960    590.273    590.273
 69.470   1028.000   1005.604     22.396    590.251    994.162    601.787    590.251    590.251
 69.570    977.000    898.848     78.152    590.228    889.738    599.404    590.228    590.228
 69.670    906.000    822.793     83.207    590.203    815.353    597.689    590.203    590.203
 69.770    882.000    770.628    111.372    590.177    764.341    596.494    590.177    590.177
 69.870    823.000    735.811     87.189    590.150    730.303    595.678    590.150    590.150
 69.970    690.365    712.896    -22.531    590.121    707.907    595.123    590.121    590.121
 70.070    780.000    697.803     82.197    590.091    693.162    594.741    590.091    590.091
 70.170    652.668    687.727    -35.059    590.060    683.321    594.471    590.060    590.060
 70.270    686.000    680.876      5.124    590.028    676.632    594.275    590.028    590.028
 70.370    675.000    676.174     -1.174    589.994    672.041    594.129    589.994    589.994
 70.470    680.000    673.012      6.988    589.959    668.950    594.020    589.959    589.959
 70.570    724.000    671.069     52.931    589.922    667.048    593.942    589.922    589.922
 70.670    691.638    670.209     21.429    589.884    666.198    593.892    589.884    589.884
 70.770    646.000    670.431    -24.431    589.845    666.400    593.872    589.845    589.845
 70.870    776.000    671.871    104.129    589.805    667.784    593.885    589.805    589.805
 70.970    684.000    674.838      9.162    589.763    670.651    593.942    589.763    589.763
 71.070    669.956    679.907     -9.950    589.720    675.556    594.060    589.720    589.720
 71.170    657.579    688.028    -30.448    589.675    683.423    594.265    589.675    589.675
 71.270    653.878    700.683    -46.805    589.629    695.690    594.602    589.629    589.629
 71.370    727.000    720.026      6.974    589.582    714.447    595.133    589.582    589.582
 71.470    796.000    748.959     47.041    589.534    742.510    595.943    589.534    589.534
 71.570    742.204    791.076    -48.872    589.484    783.369    597.136    589.484    589.484
 71.670    796.289    850.369    -54.080    589.432    840.898    598.829    589.432    589.432
 71.770    897.000    930.644    -33.644    589.380    918.792    601.131    589.380    589.380
 71.870   1019.000   1034.653    -15.653    589.326   1019.723    604.125    589.326    589.326
 71.970   1169.000   1163.020      5.980    589.270   1144.296    607.828    589.270    589.270
 72.070   1284.000   1313.147    -29.147    589.213   1289.988    612.167    589.213    589.213
 72.170   1432.000   1478.259    -46.259    589.155   1450.225    616.949    589.155    589.155
 72.270   1593.000   1646.745    -53.745    589.096   1613.733    621.838    589.096    589.096
 72.370   1788.000   1802.019    -14.019    589.035   1764.409    626.358    589.035    589.035
 72.470   1813.000   1923.710   -110.710    588.973   1882.473    629.921    588.973    588.973
 72.570   1939.000   1991.581    -52.581    588.909   1948.275    631.945    588.909    588.909
 72.670   1999.609   1992.364      7.246    588.844   1948.925    632.047    588.844    588.844
 72.770   1973.000   1925.833     47.167    588.777   1884.196    630.221    588.777    588.777
 72.870   1694.000   1804.923   -110.923    588.709   1766.640    626.843    588.709    588.709
 72.970   1596.289   1649.770    -53.481    588.640   1615.808    622.491    588.640    588.640
 73.070   1469.000   1480.809    -11.809    588.569   1451.549    617.751    588.569    588.569
 73.170   1286.000   1314.743    -28.743    588.497   1290.093    613.094    588.497    588.497
 73.270   1100.393   1163.300    -62.907    588.424   1142.844    608.845    588.424    588.424
 73.370   1006.072   1033.349    -27.277    588.349   1016.491    605.185    588.349    588.349
 73.470    904.000    927.568    -23.568    588.273    913.648    602.177    588.273    588.273
 73.570    810.542    845.403    -34.860    588.195    833.782    599.805    588.195    588.195
 73.670    738.000    784.172    -46.172    588.116    774.278    598.001    588.116    588.116
 73.770    747.000    740.138      6.862    588.035    731.483    596.683    588.035    588.035
 73.870    742.000    709.372     32.628    587.953    701.551    595.768    587.953    587.953
 73.970    678.174    688.340    -10.166    587.870    681.019    595.185    587.870    587.870
 74.070    707.000    674.199     32.801    587.785    667.092    594.888    587.785    587.785
 74.170    665.095    664.862      0.233    587.699    657.710    594.848    587.699    587.699
 74.270    690.626    658.912     31.714    587.611    651.465    595.058    587.611    587.611
 74.370    678.173    655.447     22.726    587.522    647.452    595.519    587.522    587.522
 74.470    654.081    653.910      0.171    587.432    645.111    596.236    587.432    587.432
 74.570    658.000    653.940      4.060    587.340    644.085    597.205    587.340    587.340
 74.670    643.000    655.250    -12.250    587.246    644.108    598.403    587.246    587.246
 74.770    701.000    657.546     43.454    587.152    644.934    599.783    587.152    587.152
 74.870    692.000    660.468     31.532    587.055    646.281    601.268    587.055    587.055
 74.970    675.168    663.563     11.605    586.958    647.807    602.746    586.958    586.958
 75.070    695.000    666.280     28.720    586.859    649.102    604.074    586.859    586.859
 75.170    671.000    668.031      2.969    586.758    649.731    605.098    586.758    586.758
 75.270    710.000    668.342     41.658    586.656    649.341    605.699    586.656    586.656
 75.370    720.000    667.057     52.943    586.553    647.801    605.849    586.553    586.553
 75.470    617.306    664.448    -47.142    586.448    645.284    605.650    586.448    586.448
 75.570    615.503    661.135    -45.632    586.342    642.201    605.309    586.342    586.342
 75.670    707.000    657.914     49.086    586.234    639.074    605.101    586.234    586.234
 75.770    689.000    655.630     33.370    586.125    636.440    605.334    586.125    586.125
 75.870    668.000    655.142     12.858    586.014    634.825    606.343    586.014    586.014
 75.970    653.000    657.325     -4.325    585.902    634.734    608.496    585.902    585.902
 76.070    666.490    663.067      3.423    585.789    636.660    612.190    585.789    585.789
 76.170    690.000    673.233     16.767    585.674    641.064    617.827    585.674    585.674
 76.270    674.027    688.595    -14.568    585.557    648.344    625.781    585.557    585.557
 76.370    728.016    709.706     18.310    585.439    658.774    636.333    585.439    585.439
 76.470    774.364    736.745     37.618    585.320    672.426    649.588    585.320    585.320
 76.570    752.000    769.341    -17.341    585.200    689.083    665.392    585.200    585.200
 76.670    839.023    806.408     32.615    585.077    708.154    683.251    585.077    585.077
 76.770    802.832    846.021    -43.189    584.954    728.613    702.267    584.954    584.954
 76.870    898.753    885.318     13.436    584.829    748.944    721.097    584.829    584.829
 76.970    948.000    920.552     27.448    584.702    767.166    737.973    584.702    584.702
 77.070    983.000    947.402     35.598    584.575    781.005    750.853    584.575    584.575
 77.170    990.000    961.799     28.201    584.445    788.316    757.812    584.445    584.445
 77.270   1017.108    961.204     55.904    584.314    787.762    757.648    584.314    584.314
 77.370    925.594    945.640    -20.046    584.182    779.352    750.373    584.182    584.182
 77.470    976.067    917.681     58.386    584.049    764.436    737.210    584.049    584.049
 77.570    876.042    881.389     -5.347    583.914    745.147    720.086    583.914    583.914
 77.670    861.028    841.045     19.983    583.777    723.734    701.032    583.777    583.777
 77.770    844.000    800.331     43.669    583.639    702.130    681.796    583.639    583.639
 77.870    799.321    762.020     37.302    583.500    681.793    663.693    583.500    583.500
 77.970    733.597    727.940      5.657    583.359    663.681    647.593    583.359    583.359
 78.070    708.000    699.059      8.941    583.217    648.303    633.954    583.217    583.217
 78.170    672.595    675.625     -3.030    583.073    635.789    622.895    583.073    583.073
 78.270    664.000    657.343      6.657    582.928    625.983    614.277    582.928    582.928
 78.370    621.762    643.576    -21.814    582.781    618.549    607.799    582.781    582.781
 78.470    673.000    633.519     39.481    582.633    613.065    603.081    582.633    582.633
 78.570    667.000    626.355     40.645    582.484    609.098    599.735    582.484    582.484
 78.670    578.556    621.346    -42.791    582.333    606.262    597.412    582.333    582.333
 78.770    628.613    617.886     10.726    582.181    604.236    595.827    582.181    582.181
 78.870    647.000    615.514     31.486    582.027    602.777    594.760    582.027    582.027
 78.970    604.000    613.901     -9.901    581.872    601.711    594.058    581.872    581.872
 79.070    640.000    612.828     27.172    581.716    600.923    593.617    581.716    581.716
 79.170    653.526    612.161     41.366    581.558    600.340    593.375    581.558    581.558
 79.270    648.000    611.825     36.175    581.399    599.922    593.298    581.399    581.399
 79.370    628.000    611.792     16.208    581.238    599.651    593.375    581.238    581.238
 79.470    607.000    612.067     -5.067    581.076    599.526    593.613    581.076    581.076
 79.570    639.120    612.688     26.433    580.912    599.558    594.038    580.912    580.912
 79.670    606.783    613.725     -6.943    580.747    599.768    594.700    580.747    580.747
 79.770    580.000    615.294    -35.294    580.581    600.188    595.681    580.581    580.581
 79.870    616.000    617.567     -1.567    580.413    600.861    597.112    580.413    580.413
 79.970    618.000    620.801     -2.801    580.244    601.843    599.194    580.244    580.244
 80.070    588.000    625.368    -37.368    580.073    603.208    602.224    580.073    580.073
 80.170    586.223    631.787    -45.564    579.901    605.052    606.625    579.901    579.901
 80.270    664.020    640.759     23.261    579.728    607.502    612.970    579.728    579.728
 80.370    697.350    653.177     44.173    579.553    610.721    621.991    579.553    579.553
 80.470    675.000    670.114      4.886    579.377    614.907    634.561    579.377    579.377
 80.570    702.207    692.756      9.451    579.200    620.288    651.639    579.200    579.200
 80.670    697.000    722.286    -25.286    579.021    627.114    674.156    579.021    579.021
 80.770    762.000    759.718      2.282    578.841    635.643    702.871    578.841    578.841
 80.870    813.000    805.689      7.311    578.659    646.119    738.176    578.659    578.659
 80.970    810.192    860.223    -50.031    578.476    658.740    779.899    578.476    578.476
 81.070    966.000    922.483     43.517    578.292    673.598    827.110    578.292    578.292
 81.170   1013.000    990.551     22.449    578.106    690.607    877.980    578.106    578.106
 81.270   1097.000   1061.297     35.703    577.919    709.428    929.718    577.919    577.919
 81.370   1187.000   1130.427     56.573    577.731    729.433    978.657    577.731    577.731
 81.470   1277.000   1192.818     84.182    577.541    749.725   1020.575    577.541    577.541
 81.570   1290.000   1243.243     46.757    577.350    769.220   1051.326    577.350    577.350
 81.670   1340.000   1277.366     62.634    577.157    786.799   1067.696    577.157    577.157
 81.770   1351.000   1292.761     58.239    576.964    801.576   1068.139    576.964    576.964
 81.870   1234.349   1288.882    -54.533    576.769    812.777   1052.884    576.769    576.769
 81.970   1328.000   1267.076     60.924    576.572    819.935   1023.742    576.572    576.572
 82.070   1269.018   1230.192     38.826    576.374    822.894    983.718    576.374    576.374
 82.170   1233.000   1182.102     50.898    576.175    821.761    936.574    576.175    576.175
 82.270   1180.000   1127.014     52.986    575.975    816.786    886.270    575.975    575.975
 82.370   1071.000   1068.804      2.196    575.773    808.267    836.383    575.773    575.773
 82.470    983.382   1010.660    -27.279    575.570    796.595    789.710    575.570    575.570
 82.570    940.000    955.031    -15.031    575.366    782.353    748.119    575.366    575.366
 82.670    894.000    903.654     -9.654    575.160    766.311    712.576    575.160    575.160
 82.770    816.661    857.548    -40.887    574.953    749.278    683.291    574.953    574.953
 82.870    753.000    817.041    -64.041    574.745    731.941    659.908    574.745    574.745
 82.970    762.000    781.935    -19.935    574.535    714.811    641.717    574.535    574.535
 83.070    744.010    751.762     -7.752    574.325    698.288    627.850    574.325    574.325
 83.170    725.000    726.034     -1.034    574.113    682.748    617.442    574.113    574.113
 83.270    700.000    704.363     -4.363    573.899    668.571    609.728    573.899    573.899
 83.370    668.731    686.476    -17.745    573.685    656.104    604.087    573.685    573.685
 83.470    625.491    672.175    -46.684    573.469    645.620    600.046    573.469    573.469
 83.570    626.110    661.297    -35.187    573.252    637.298    597.264    573.252    573.252
 83.670    626.000    653.685    -27.685    573.033    631.216    595.507    573.033    573.033
 83.770    589.000    649.155    -60.155    572.814    627.353    594.612    572.814    572.814
 83.870    637.000    647.468    -10.468    572.593    625.592    594.457    572.593    572.593
 83.970    603.431    648.297    -44.866    572.371    625.718    594.929    572.371    572.371
 84.070    656.000    651.213      4.787    572.147    627.423    595.909    572.147    572.147
 84.170    632.000    655.672    -23.672    571.923    630.307    597.251    571.923    571.923
 84.270    646.000    661.018    -15.018    571.697    633.891    598.781    571.697    571.697
 84.370    677.000    666.496     10.504    571.470    637.626    600.291    571.470    571.470
 84.470    667.000    671.291     -4.291    571.242    640.924    601.555    571.242    571.242
 84.570    576.000    674.598    -98.598    571.013    643.209    602.345    571.013    571.013
 84.670    681.470    675.750      5.721    570.782    644.005    602.471    570.782    570.782
 84.770    621.000    674.367    -53.367    570.551    643.035    601.828    570.551    570.551
 84.870    627.000    670.461    -43.461    570.318    640.304    600.425    570.318    570.318
 84.970    631.507    664.402    -32.895    570.084    636.058    598.382    570.084    570.084
 85.070    593.000    656.788    -63.788    569.848    630.709    595.887    569.848    569.848
 85.170    619.000    648.298    -29.298    569.612    624.720    593.156    569.612    569.612
 85.270    574.000    639.576    -65.576    569.375    618.527    590.395    569.375    569.375
 85.370    623.000    631.172     -8.172    569.136    612.496    587.788    569.136    569.136
 85.470    610.000    623.519    -13.519    568.896    606.906    585.488    568.896    568.896
 85.570    659.168    616.929     42.240    568.655    601.946    583.621    568.655    568.655
 85.670    573.884    611.599    -37.715    568.413    597.717    582.280    568.413    568.413
 85.770    583.000    607.631    -24.631    568.170    594.251    581.537    568.170    568.170
 85.870    596.000    605.048     -9.048    567.926    591.520    581.441    567.926    567.926
 85.970    604.000    603.819      0.181    567.680    589.463    582.022    567.680    567.680
 86.070    590.071    603.874    -13.803    567.434    588.001    583.292    567.434    567.434
 86.170    587.596    605.122    -17.526    567.186    587.055    585.236    567.186    567.186
 86.270    581.579    607.455    -25.876    566.938    586.561    587.812    566.938    566.938
 86.370    576.000    610.752    -34.752    566.688    586.480    590.937    566.688    566.688
 86.470    620.000    614.875      5.125    566.437    586.798    594.488    566.437    566.437
 86.570    681.000    619.672     61.328    566.185    587.539    598.287    566.185    566.185
 86.670    659.000    624.969     34.031    565.933    588.758    602.109    565.933    565.933
 86.770    660.054    630.578     29.476    565.679    590.541    605.676    565.679    565.679
 86.870    646.000    636.301      9.699    565.424    593.001    608.678    565.424    565.424
 86.970    651.000    641.954      9.046    565.168    596.269    610.803    565.168    565.168
 87.070    611.532    647.413    -35.881    564.911    600.479    611.788    564.911    564.911
 87.170    671.167    652.659     18.508    564.653    605.756    611.493    564.653    564.653
 87.270    700.947    657.799     43.148    564.394    612.191    609.933    564.394    564.394
 87.370    656.000    663.029     -7.029    564.134    619.816    607.270    564.134    564.134
 87.470    655.000    668.554    -13.554    563.873    628.581    603.760    563.873    563.873
 87.570    715.000    674.506     40.494    563.611    638.329    599.693    563.611    563.611
 87.670    710.000    680.875     29.125    563.349    648.775    595.343    563.349    563.349
 87.770    691.000    687.477      3.523    563.085    659.499    590.947    563.085    563.085
 87.870    728.000    693.942     34.058    562.820    669.941    586.697    562.820    562.820
 87.970    719.000    699.732     19.268    562.555    679.416    582.738    562.555    562.555
 88.070    697.782    704.186     -6.404    562.288    687.170    579.168    562.288    562.288
 88.170    718.000    706.642     11.358    562.021    692.489    576.036    562.021    562.021
 88.270    734.000    706.598     27.402    561.752    694.860    573.356    561.752    561.752
 88.370    726.000    703.877     22.123    561.483    694.125    571.108    561.483    561.483
 88.470    714.459    698.688     15.770    561.213    690.532    569.252    561.213    561.213
 88.570    685.000    691.563     -6.563    560.942    684.662    567.740    560.942    560.942
 88.670    658.000    683.210    -25.210    560.670    677.273    566.518    560.670    560.670
 88.770    646.421    674.381    -27.960    560.397    669.167    565.537    560.397    560.397
 88.870    654.000    665.794    -11.794    560.124    661.105    564.754    560.124    560.124
 88.970    686.672    658.082     28.591    559.849    653.754    564.132    559.849    559.849
 89.070    638.000    651.758    -13.758    559.574    647.660    563.642    559.574    559.574
 89.170    646.000    647.191     -1.191    559.298    643.212    563.259    559.298    559.298
 89.270    639.921    644.584     -4.663    559.021    640.634    562.965    559.021    559.021
 89.370    596.023    643.965    -47.941    558.743    639.970    562.743    558.743    558.743
 89.470    629.000    645.190    -16.190    558.465    641.093    562.576    558.465    558.465
 89.570    657.000    647.961      9.039    558.186    643.721    562.450    558.186    558.186
 89.670    609.000    651.839    -42.839    557.906    647.431    562.346    557.906    557.906
 89.770    597.000    656.268    -59.268    557.625    651.688    562.245    557.625    557.625
 89.870    634.000    660.610    -26.610    557.344    655.874    562.128    557.344    557.344
 89.970    662.000    664.190     -2.190    557.062    659.333    561.972    557.062    557.062
 90.070    673.040    666.368      6.672    556.779    661.448    561.758    556.779    556.779
 90.170    699.000    666.650     32.350    556.495    661.737    561.471    556.495    556.495
 90.270    688.000    664.790     23.210    556.211    659.961    561.104    556.211    556.211
 90.370    672.303    660.835     11.468    555.926    656.164    560.660    555.926    555.926
 90.470    680.012    655.093     24.919    555.640    650.642    560.152    555.640    555.640
 90.570    659.000    648.028     10.972    555.354    643.842    559.597    555.354    555.354
 90.670    644.676    640.155      4.521    555.067    636.261    559.013    555.067    555.067
 90.770    603.950    631.966    -28.016    554.780    628.373    558.418    554.780    554.780
 90.870    599.404    623.882    -24.478    554.491    620.585    557.828    554.491    554.491
 90.970    631.409    616.242     15.167    554.203    613.224    557.253    554.203    554.203
 91.070    605.771    609.293     -3.522    553.913    606.529    556.704    553.913    553.913
 91.170    606.000    603.194      2.806    553.623    600.653    556.185    553.623    553.623
 91.270    605.000    598.024      6.976    553.333    595.673    555.700    553.333    553.333
 91.370    569.000    593.797    -24.797    553.042    591.602    555.249    553.042    553.042
 91.470    582.110    590.475     -8.365    552.750    588.404    554.830    552.750    552.750
 91.570    560.000    587.992    -27.992    552.458    586.014    554.442    552.458    552.458
 91.670    570.000    586.266    -16.266    552.165    584.353    554.081    552.165    552.165
 91.770    586.000    585.220      0.780    551.872    583.348    553.744    551.872    551.872
 91.870    563.000    584.793    -21.793    551.578    582.940    553.431    551.578    551.578
 91.970    610.792    584.952     25.840    551.284    583.095    553.139    551.284    551.284
 92.070    600.000    585.695     14.305    550.990    583.812    552.868    550.990    550.990
 92.170    560.000    587.059    -27.059    550.695    585.127    552.621    550.695    550.695
 92.270    589.000    589.116     -0.116    550.399    587.108    552.398    550.399    550.399
 92.370    615.000    591.973     23.027    550.103    589.860    552.205    550.103    550.103
 92.470    581.375    595.769    -14.394    549.807    593.516    552.046    549.807    549.807
 92.570    608.000    600.661      7.339    549.510    598.229    551.925    549.510    549.510
 92.670    647.300    606.817     40.483    549.213    604.161    551.848    549.213    549.213
 92.770    638.000    614.402     23.598    548.915    611.472    551.819    548.915    548.915
 92.870    593.000    623.556    -30.556    548.617    620.301    551.842    548.617    548.617
 92.970    624.000    634.386    -10.386    548.319    630.751    551.917    548.319    548.319
 93.070    629.000    646.940    -17.940    548.021    642.873    552.045    548.021    548.021
 93.170    615.000    661.198    -46.198    547.722    656.649    552.221    547.722    547.722
 93.270    661.000    677.055    -16.055    547.422    671.980    552.440    547.422    547.422
 93.370    708.000    694.315     13.685    547.123    688.678    552.694    547.123    547.123
 93.470    684.165    712.680    -28.515    546.823    706.456    552.974    546.823    546.823
 93.570    740.307    731.758      8.550    546.523    724.930    553.271    546.523    546.523
 93.670    734.000    751.079    -17.079    546.223    743.639    553.578    546.223    546.223
 93.770    747.000    770.147    -23.147    545.923    762.086    553.893    545.923    545.923
 93.870    826.207    788.519     37.688    545.622    779.822    554.226    545.622    545.622
 93.970    831.727    805.899     25.827    545.321    796.526    554.598    545.321    545.321
 94.070    836.000    822.303     13.697    545.020    812.172    555.053    545.020    545.020
 94.170    847.000    837.924      9.076    544.719    826.896    555.648    544.719    544.719
 94.270    908.672    853.134     55.538    544.417    840.998    556.455    544.417    544.417
 94.370    820.397    868.327    -47.929    544.116    854.796    557.549    544.116    544.116
 94.470    878.285    883.791     -5.506    543.814    868.512    558.996    543.814    543.814
 94.570    869.000    899.644    -30.644    543.512    882.208    560.852    543.512    543.512
 94.670    884.186    915.838    -31.652    543.211    895.810    563.143    543.211    543.211
 94.770    921.000    932.224    -11.224    542.909    909.172    565.867    542.909    542.909
 94.870    963.000    948.614     14.386    542.607    922.146    568.982    542.607    542.607
 94.970    945.052    964.789    -19.736    542.305    934.596    572.407    542.305    542.305
 95.070    940.902    980.429    -39.526    542.003    946.329    576.015    542.003    542.003
 95.170    972.000    995.015    -23.015    541.701    956.991    579.641    541.701    541.701
 95.270    997.000   1007.753    -10.753    541.399    965.992    583.080    541.399    541.399
 95.370    954.530   1017.577    -63.047    541.097    972.493    586.107    541.097    541.097
 95.470    999.779   1023.245    -23.466    540.795    975.490    588.484    540.795    540.795
 95.570    989.463   1023.552    -34.088    540.493    973.992    589.995    540.493    540.493
 95.670   1031.000   1017.599     13.401    540.191    967.260    590.482    540.191    540.191
 95.770    979.000   1005.049    -26.049    539.889    955.030    589.870    539.889    539.889
 95.870    976.850    986.287     -9.437    539.588    937.654    588.194    539.588    539.588
 95.970    945.000    962.381    -17.381    539.286    916.067    585.581    539.286    539.286
 96.070    935.000    934.889      0.111    538.985    891.631    582.231    538.985    538.985
 96.170    936.655    905.626     31.029    538.684    865.929    578.374    538.684    538.684
 96.270    826.820    876.470    -49.650    538.383    840.606    574.243    538.383    538.383
 96.370    845.000    849.234     -4.234    538.082    817.259    570.054    538.082    538.082
 96.470    896.000    825.595     70.405    537.781    797.381    565.992    537.781    537.781
 96.570    835.000    807.058     27.942    537.481    782.326    562.206    537.481    537.481
 96.670    786.183    794.931     -8.749    537.181    773.297    558.804    537.181    537.181
 96.770    811.000    790.316     20.684    536.881    771.322    555.856    536.881    536.881
 96.870    832.000    794.067     37.933    536.582    777.226    553.396    536.582    536.582
 96.970    790.728    806.908    -16.180    536.282    791.725    551.429    536.282    536.282
 97.070    833.000    829.299      3.701    535.983    815.299    549.936    535.983    535.983
 97.170    911.415    861.403     50.012    535.685    848.145    548.884    535.685    535.685
 97.270    981.000    903.121     77.879    535.387    890.209    548.227    535.387    535.387
 97.370    997.242    954.027     43.215    535.089    941.112    547.919    535.089    535.089
 97.470   1056.000   1013.323     42.677    534.791   1000.109    547.908    534.791    534.791
 97.570   1120.000   1079.787     40.213    534.494   1066.031    548.142    534.494    534.494
 97.670   1156.000   1151.705      4.295    534.198   1137.221    548.563    534.198    534.198
 97.770   1239.000   1226.857     12.143    533.902   1211.520    549.111    533.902    533.902
 97.870   1382.000   1302.499     79.501    533.606   1286.250    549.722    533.606    533.606
 97.970   1331.000   1375.392    -44.392    533.311   1358.243    550.325    533.311    533.311
 98.070   1493.000   1441.892     51.108    533.016   1423.929    550.847    533.016    533.016
 98.170   1488.000   1498.160    -10.160    532.722   1479.545    551.213    532.722    532.722
 98.270   1487.201   1540.539    -53.338    532.429   1521.503    551.352    532.429    532.429
 98.370   1577.000   1566.063     10.937    532.136   1546.893    551.210    532.136    532.136
 98.470   1624.000   1572.997     51.003    531.844   1554.010    550.754    531.844    531.844
 98.570   1553.000   1561.188     -8.188    531.552   1542.702    549.981    531.552    531.552
 98.670   1514.000   1532.071    -18.071    531.261   1514.375    548.920    531.261    531.261
 98.770   1478.009   1488.348    -10.340    530.970   1471.682    547.618    530.970    530.970
 98.870   1389.000   1433.504    -44.504    530.681   1418.041    546.140    530.681    530.681
 98.970   1395.000   1371.330     23.670    530.392   1357.179    544.552    530.392    530.392
 99.070   1259.000   1305.578    -46.578    530.103   1292.783    542.916    530.103    530.103
 99.170   1221.000   1239.740    -18.740    529.816   1228.286    541.292    529.816    529.816
 99.270   1238.166   1176.919     61.247    529.529   1166.743    539.728    529.529    529.529
 99.370   1092.000   1119.777    -27.777    529.243   1110.778    538.265    529.243    529.243
 99.470   1006.000   1070.531    -64.531    528.957   1062.574    536.933    528.957    528.957
 99.570   1011.000   1030.966    -19.966    528.673   1023.898    535.755    528.673    528.673
 99.670   1028.651   1002.472     26.178    528.389    996.126    534.742    528.389    528.389
 99.770    979.000    986.080     -7.080    528.107    980.284    533.902    528.107    528.107
 99.870    993.000    982.483     10.517    527.825    977.068    533.232    527.825    527.825
 99.970   1044.545    992.061     52.484    527.544    986.864    532.726    527.544    527.544
100.070   1077.575   1014.891     62.684    527.264   1009.760    532.372    527.264    527.264
100.170   1078.000   1050.754     27.246    526.985   1045.554    532.157    526.985    526.985
100.270   1149.743   1099.135     50.608    526.707   1093.748    532.061    526.707    526.707
100.370   1251.000   1159.210     91.790    526.430   1153.540    532.066    526.430    526.430
100.470   1204.223   1229.816    -25.592    526.154   1223.787    532.148    526.154    526.154
100.570   1380.389   1309.464     70.925    525.879   1303.026    532.284    525.879    525.879
100.670   1405.685   1396.270      9.416    525.605   1389.397    532.449    525.605    525.605
100.770   1481.000   1487.928     -6.928    525.332   1480.621    532.619    525.332    525.332
100.870   1632.137   1581.757     50.380    525.060   1574.043    532.766    525.060    525.060
100.970   1650.202   1674.778    -24.576    524.790   1666.708    532.865    524.790    524.790
101.070   1832.000   1763.890     68.110    524.520   1755.537    532.896    524.520    524.520
101.170   1984.000   1846.127    137.873    524.252   1837.580    532.840    524.252    524.252
101.270   1868.000   1918.934    -50.934    523.985   1910.289    532.691    523.985    523.985
101.370   2025.000   1980.341     44.659    523.719   1971.692    532.449    523.719    523.719
101.470   1952.629   2028.971    -76.342    523.455   2020.399    532.126    523.455    523.455
101.570   2114.000   2063.873     50.127    523.191   2055.442    531.741    523.191    523.191
101.670   2078.000   2084.320     -6.320    522.930   2076.067    531.316    522.930    522.930
101.770   2193.000   2089.690    103.310    522.669   2081.632    530.875    522.669    522.669
101.870   2055.000   2079.562    -24.562    522.410   2071.690    530.440    522.410    522.410
101.970   1983.566   2053.982    -70.416    522.152   2046.268    530.032    522.152    522.152
102.070   1984.000   2013.792    -29.792    521.895   2006.194    529.665    521.895    521.895
102.170   1989.000   1960.840     28.160    521.640   1953.301    529.352    521.640    521.640
102.270   1937.760   1897.912     39.849    521.386   1890.372    529.098    521.386    521.386
102.370   1792.000   1828.415    -36.415    521.134   1820.812    528.904    521.134    521.134
102.470   1817.100   1755.927     61.173    520.883   1748.204    528.766    520.883    520.883
102.570   1645.243   1683.768    -38.525    520.634   1675.880    528.673    520.634    520.634
102.670   1601.000   1614.702    -13.702    520.386   1606.617    528.611    520.386    520.386
102.770   1523.000   1550.779    -27.779    520.140   1542.485    528.564    520.140    520.140
102.870   1425.000   1493.290    -68.290    519.896   1484.790    528.514    519.896    519.896
102.970   1458.860   1442.778     16.082    519.653   1434.096    528.444    519.653    519.653
103.070   1428.000   1399.094     28.906    519.412   1390.267    528.340    519.412    519.412
103.170   1347.000   1361.468    -14.468    519.172   1352.546    528.188    519.172    519.172
103.270   1300.000   1328.613    -28.613    518.934   1319.656    527.979    518.934    518.934
103.370   1238.000   1298.867    -60.867    518.698   1289.948    527.703    518.698    518.698
103.470   1313.000   1270.398     42.602    518.464   1261.594    527.350    518.464    518.464
103.570   1277.822   1241.445     36.378    518.231   1232.841    526.917    518.231    518.231
103.670   1174.000   1210.574    -36.574    518.000   1202.256    526.401    518.000    518.000
103.770   1156.584   1176.875    -20.291    517.771   1168.921    525.807    517.771    517.771
103.870   1128.000   1140.035    -12.035    517.544   1132.516    525.144    517.544    517.544
103.970   1124.516   1100.286     24.230    517.319   1093.258    524.427    517.319    517.319
104.070   1051.000   1058.255     -7.255    517.095   1051.755    523.673    517.095    517.095
104.170    978.420   1014.814    -36.394    516.874   1008.864    522.899    516.874    516.874
104.270   1004.304    970.899     33.405    516.655    965.502    522.121    516.655    516.655
104.370    921.236    927.429     -6.193    516.437    922.577    521.355    516.437    516.437
104.470    883.000    885.245     -2.245    516.222    880.915    520.612    516.222    516.222
104.570    888.000    845.070     42.930    516.008    841.231    519.902    516.008    516.008
104.670    764.000    807.484    -43.484    515.797    804.100    519.229    515.797    515.797
104.770    834.000    772.919     61.081    515.588    769.952    518.598    515.588    515.588
104.870    747.000    741.709      5.291    515.380    739.108    518.018    515.380    515.380
104.970    694.000    713.979    -19.979    515.175    711.700    517.487    515.175    515.175
105.070    688.412    689.742     -1.331    514.973    687.739    517.002    514.973    514.973
105.170    684.000    668.902     15.098    514.772    667.134    516.562    514.772    514.772
105.270    626.383    651.273    -24.890    514.574    649.702    516.162    514.574    514.574
105.370    694.000    636.609     57.391    514.377    635.200    515.801    514.377    514.377
105.470    697.000    624.627     72.373    514.184    623.348    515.473    514.184    514.184
105.570    630.000    615.032     14.968    513.992    613.856    515.176    513.992    513.992
105.670    644.000    607.535     36.465    513.803    606.438    514.905    513.803    513.803
105.770    613.818    601.871     11.948    513.616    600.832    514.658    513.616    513.616
105.870    581.000    597.808    -16.808    513.432    596.809    514.431    513.432    513.432
105.970    663.000    595.155     67.845    513.250    594.180    514.223    513.250    513.250
106.070    580.000    593.764    -13.764    513.071    592.799    514.031    513.071    513.071
106.170    549.065    593.529    -44.463    512.894    592.561    513.856    512.894    512.894
106.270    555.292    594.382    -39.089    512.719    593.397    513.695    512.719    512.719
106.370    602.000    596.287      5.713    512.547    595.274    513.549    512.547    512.547
106.470    595.000    599.236     -4.236    512.378    598.183    513.418    512.378    512.378
106.570    605.000    603.240      1.760    512.211    602.132    513.302    512.211    512.211
106.670    636.000    608.317     27.683    512.047    607.143    513.202    512.047    512.047
106.770    597.597    614.490    -16.893    511.886    613.237    513.117    511.886    511.886
106.870    651.819    621.775     30.044    511.727    620.429    513.048    511.727    511.727
106.970    659.844    630.171     29.672    511.571    628.718    512.995    511.571    511.571
107.070    702.000    639.652     62.348    511.418    638.079    512.958    511.418    511.418
107.170    686.000    650.153     35.847    511.268    648.450    512.935    511.268    511.268
107.270    678.061    661.571     16.489    511.120    659.726    512.925    511.120    511.120
107.370    699.000    673.753     25.247    510.976    671.758    512.927    510.976    510.976
107.470    759.000    686.494     72.506    510.834    684.344    512.936    510.834    510.834
107.570    685.000    699.540    -14.540    510.695    697.234    512.951    510.695    510.695
107.670    726.000    712.589     13.411    510.559    710.129    512.966    510.559    510.559
107.770    749.147    725.297     23.850    510.426    722.691    512.977    510.426    510.426
107.870    757.000    737.290     19.710    510.296    734.550    512.979    510.296    510.296
107.970    781.603    748.183     33.420    510.169    745.329    512.966    510.169    510.169
108.070    777.053    757.612     19.441    510.045    754.667    512.933    510.045    510.045
108.170    704.000    765.272    -61.272    509.925    762.266    512.876    509.925    509.925
108.270    747.000    770.967    -23.967    509.807    767.930    512.791    509.807    509.807
108.370    729.000    774.639    -45.639    509.693    771.605    512.677    509.693    509.693
108.470    809.293    776.396     32.897    509.582    773.397    512.535    509.582    509.582
108.570    795.796    776.493     19.303    509.474    773.557    512.367    509.474    509.474
108.670    734.000    775.297    -41.297    509.369    772.450    512.178    509.369    509.369
108.770    792.935    773.238     19.697    509.268    770.500    511.972    509.268    509.268
108.870    775.000    770.755      4.245    509.170    768.140    511.756    509.170    509.170
108.970    743.000    768.254    -25.254    509.075    765.769    511.535    509.075    509.075
109.070    770.490    766.073      4.417    508.984    763.723    511.313    508.984    508.984
109.170    805.237    764.468     40.769    508.896    762.251    511.096    508.896    508.896
109.270    744.000    763.596    -19.596    508.812    761.508    510.887    508.812    508.812
109.370    684.000    763.513    -79.513    508.731    761.546    510.688    508.731    508.731
109.470    748.000    764.168    -16.168    508.653    762.314    510.502    508.653    508.653
109.570    782.000    765.408     16.592    508.580    763.656    510.329    508.580    508.580
109.670    796.000    766.987     29.013    508.510    765.327    510.170    508.510    508.510
109.770    758.292    768.576    -10.284    508.443    766.998    510.024    508.443    508.443
109.870    725.000    769.787    -44.787    508.380    768.284    509.889    508.380    508.380
109.970    772.957    770.200      2.757    508.321    768.771    509.759    508.321    508.321
110.070    803.000    769.439     33.561    508.266    768.076    509.641    508.266    508.266
110.170    806.000    767.180     38.820    508.214    765.874    509.534    508.214    508.214
110.270    714.000    763.207    -49.207    508.166    761.955    509.433    508.166    508.166
110.370    725.000    757.444    -32.444    508.123    756.246    509.338    508.123    508.123
110.470    706.792    749.961    -43.170    508.082    748.815    509.247    508.082    508.082
110.570    699.127    740.949    -41.822    508.046    739.855    509.159    508.046    508.046
110.670    721.000    730.686     -9.686    508.014    729.642    509.077    508.014    508.014
110.770    732.000    719.495     12.505    507.986    718.501    508.998    507.986    507.986
110.870    665.000    707.709    -42.709    507.962    706.763    508.925    507.962    507.962
110.970    682.000    695.668    -13.668    507.942    694.768    508.858    507.942    507.942
111.070    717.000    683.674     33.326    507.926    682.818    508.797    507.926    507.926
111.170    664.000    671.991     -7.991    507.914    671.175    508.743    507.914    507.914
111.270    690.000    660.846     29.154    507.906    660.068    508.696    507.906    507.906
111.370    643.000    650.425     -7.425    507.902    649.680    508.657    507.902    507.902
111.470    658.609    640.871     17.739    507.903    640.155    508.627    507.903    507.903
111.570    644.125    632.285     11.840    507.908    631.595    508.605    507.908    507.908
111.670    626.000    624.729      1.271    507.917    624.060    508.591    507.917    507.917
111.770    614.000    618.229     -4.229    507.931    617.578    508.585    507.931    507.931
111.870    623.616    612.780     10.836    507.949    612.141    508.588    507.949    507.949
111.970    599.000    608.347     -9.347    507.972    607.718    508.600    507.972    507.972
112.070    617.086    604.878     12.208    507.999    604.254    508.619    507.999    507.999
112.170    558.498    602.302    -43.804    508.030    601.682    508.646    508.030    508.030
112.270    560.690    600.541    -39.850    508.066    599.921    508.680    508.066    508.066
112.370    619.000    599.509     19.491    508.106    598.888    508.721    508.106    508.106
112.470    641.000    599.123     41.877    508.152    598.498    508.769    508.152    508.152
112.570    573.000    599.299    -26.299    508.201    598.669    508.823    508.201    508.201
112.670    555.386    599.962    -44.576    508.256    599.325    508.883    508.256    508.256
112.770    574.000    601.043    -27.043    508.315    600.400    508.948    508.315    508.315
112.870    638.000    602.485     35.515    508.379    601.834    509.018    508.379    508.379
112.970    598.000    604.241     -6.241    508.448    603.584    509.094    508.448    508.448
113.070    596.872    606.281     -9.410    508.521    605.616    509.174    508.521    508.521
113.170    638.000    608.587     29.413    508.600    607.915    509.259    508.600    508.600
113.270    589.638    611.155    -21.517    508.683    610.476    509.350    508.683    508.683
113.370    662.355    614.000     48.356    508.772    613.312    509.446    508.772    508.772
113.470    626.000    617.149      8.851    508.865    616.453    509.548    508.865    508.865
113.570    534.000    620.650    -86.650    508.963    619.943    509.656    508.963    508.963
113.670    611.000    624.565    -13.565    509.067    623.846    509.771    509.067    509.067
113.770    581.000    628.982    -47.982    509.175    628.248    509.895    509.175    509.175
113.870    601.621    634.014    -32.393    509.289    633.260    510.027    509.289    509.289
113.970    688.735    639.805     48.929    509.408    639.027    510.169    509.408    509.408
114.070    612.000    646.544    -34.544    509.532    645.736    510.321    509.532    509.532
114.170    620.000    654.467    -34.467    509.662    653.622    510.486    509.662    509.662
114.270    649.077    663.880    -14.802    509.796    662.989    510.664    509.796    509.796
114.370    644.333    675.163    -30.830    509.936    674.216    510.857    509.936    509.936
114.470    664.307    688.792    -24.485    510.082    687.777    511.066    510.082    510.082
114.570    675.000    705.355    -30.355    510.233    704.258    511.293    510.233    510.233
114.670    744.000    725.568     18.432    510.389    724.375    511.540    510.389    510.389
114.770    716.000    750.300    -34.300    510.551    748.992    511.809    510.551    510.551
114.870    790.888    780.582     10.305    510.719    779.139    512.102    510.719    510.719
114.970    758.000    817.625    -59.625    510.892    816.024    512.420    510.892    510.892
115.070    819.870    862.827    -42.957    511.071    861.043    512.766    511.071    511.071
115.170    897.908    917.775    -19.867    511.255    915.783    513.141    511.255    511.255
115.270   1006.207    984.237     21.970    511.445    982.008    513.547    511.445    511.445
115.370   1010.000   1064.144    -54.144    511.641   1061.647    513.986    511.641    511.641
115.470   1159.857   1159.550      0.307    511.843   1156.753    514.459    511.843    511.843
115.570   1229.429   1272.588    -43.160    512.050   1269.459    514.967    512.050    512.050
115.670   1335.000   1405.400    -70.400    512.264   1401.904    515.510    512.264    512.264
115.770   1527.000   1560.050    -33.050    512.483   1556.155    516.088    512.483    512.483
115.870   1668.269   1738.428    -70.159    512.709   1734.101    516.702    512.709    512.709
115.970   1943.000   1942.132      0.868    512.940   1937.342    517.349    512.940    512.940
116.070   2128.160   2172.342    -44.182    513.178   2167.062    518.028    513.178    513.178
116.170   2434.000   2429.693      4.307    513.421   2423.898    518.736    513.421    513.421
116.270   2751.574   2714.127     37.446    513.671   2707.799    519.468    513.671    513.671
116.370   3089.000   3024.808     64.192    513.927   3017.934    520.221    513.927    513.927
116.470   3442.000   3360.068     81.932    514.189   3352.640    520.990    514.189    514.189
116.570   3758.222   3717.161     41.061    514.457   3709.180    521.768    514.457    514.457
116.670   4077.000   4092.341    -15.341    514.732   4083.816    522.549    514.732    514.732
116.770   4578.713   4480.814     97.898    515.013   4471.762    523.329    515.013    515.013
116.870   4797.000   4876.748    -79.748    515.301   4867.193    524.100    515.301    515.301
116.970   5164.000   5273.323   -109.323    515.595   5263.295    524.858    515.595    515.595
117.070   5496.000   5662.819   -166.819    515.896   5652.355    525.599    515.896    515.896
117.170   6021.355   6036.750    -15.395    516.203   6025.894    526.317    516.203    516.203
117.270   6255.000   6386.061   -131.061    516.516   6374.860    527.009    516.516    516.516
117.370   6619.224   6701.398    -82.174    516.837   6689.904    527.670    516.837    516.837
117.470   6946.403   6973.481    -27.078    517.164   6961.752    528.296    517.164    517.164
117.570   7218.000   7193.594     24.406    517.498   7181.692    528.882    517.498    517.498
117.670   7476.000   7354.173    121.827    517.838   7342.160    529.423    517.838    517.838
117.770   7412.000   7449.428    -37.428    518.185   7437.369    529.915    518.185    518.185
117.870   7605.000   7475.901    129.099    518.540   7463.858    530.356    518.540    518.540
117.970   7392.000   7432.835    -40.835    518.901   7420.869    530.744    518.901    518.901
118.070   7400.967   7322.253     78.714    519.269   7310.420    531.079    519.269    519.269
118.170   6994.270   7148.731   -154.462    519.644   7137.083    531.361    519.644    519.644
118.270   6802.971   6918.925   -115.954    520.026   6907.508    531.594    520.026    520.026
118.370   6691.000   6640.956     50.044    520.415   6629.813    531.780    520.415    520.415
118.470   6349.648   6323.794     25.853    520.812   6312.961    531.922    520.812    520.812
118.570   5935.000   5976.709    -41.709    521.215   5966.220    532.025    521.215    521.215
118.670   5565.268   5608.836    -43.568    521.626   5598.721    532.092    521.626    521.626
118.770   5247.000   5228.853     18.147    522.044   5219.137    532.128    522.044    522.044
118.870   4730.126   4844.749   -114.623    522.469   4835.453    532.139    522.469    522.469
118.970   4645.000   4463.660    181.340    522.902   4454.800    532.132    522.902    522.902
119.070   4179.000   4091.767     87.233    523.342   4083.353    532.113    523.342    523.342
119.170   3712.119   3734.226    -22.107    523.790   3726.262    532.090    523.790    523.790
119.270   3283.879   3395.147   -111.268    524.245   3387.632    532.071    524.245    524.245
119.370   3102.000   3077.613     24.387    524.708   3070.540    532.062    524.708    524.708
119.470   2861.000   2783.727     77.273    525.179   2777.083    532.071    525.179    525.179
119.570   2503.261   2514.695    -11.434    525.657   2508.462    532.105    525.657    525.657
119.670   2258.332   2270.930    -12.598    526.142   2265.087    532.168    526.142    526.142
119.770   2120.546   2052.176     68.370    526.636   2046.696    532.266    526.636    526.636
119.870   1929.000   1857.624     71.376    527.137   1852.479    532.404    527.137    527.137
119.970   1712.000   1686.042     25.958    527.646   1681.199    532.584    527.646    527.646
120.070   1605.000   1535.885     69.115    528.164   1531.309    532.810    528.164    528.164
120.170   1386.000   1405.402    -19.402    528.689   1401.057    533.084    528.689    528.689
120.270   1401.000   1292.733    108.267    529.222   1288.579    533.408    529.222    529.222
120.370   1219.515   1195.982     23.533    529.763   1191.980    533.784    529.763    529.763
120.470   1186.000   1113.290     72.710    530.312   1109.397    534.212    530.312    530.312
120.570   1093.000   1042.883     50.117    530.870   1039.058    534.693    530.870    530.870
120.670   1002.411    983.114     19.297    531.435    979.312    535.228    531.435    531.435
120.770    896.656    932.483    -35.828    532.009    928.661    535.818    532.009    532.009
120.870    912.000    889.657     22.343    532.591    885.768    536.464    532.591    532.591
120.970    878.814    853.465     25.349    533.182    849.463    537.166    533.182    533.182
121.070    847.000    822.900     24.100    533.781    818.738    537.926    533.781    533.781
121.170    755.000    797.106    -42.106    534.388    792.734    538.744    534.388    534.388
121.270    785.000    775.362      9.638    535.004    770.729    539.621    535.004    535.004
121.370    809.238    757.071     52.166    535.628    752.125    540.561    535.628    535.628
121.470    721.000    741.740    -20.740    536.262    736.426    541.563    536.262    536.262
121.570    760.000    728.963     31.037    536.903    723.225    542.631    536.903    536.903
121.670    692.000    718.410    -26.410    537.554    712.190    543.766    537.554    537.554
121.770    683.047    709.812    -26.764    538.213    703.047    544.971    538.213    538.213
121.870    704.000    702.946      1.054    538.881    695.575    546.247    538.881    538.881
121.970    670.000    697.632    -27.632    539.558    689.588    547.598    539.558    539.558
122.070    674.000    693.716    -19.716    540.244    684.933    549.025    540.244    540.244
122.170    656.000    691.071    -35.071    540.939    681.480    550.530    540.939    540.939
122.270    737.860    689.586     48.274    541.642    679.115    552.115    541.642    541.642
122.370    665.000    689.162    -24.162    542.355    677.739    553.781    542.355    542.355
122.470    679.000    689.708    -10.708    543.077    677.261    555.528    543.077    543.077
122.570    666.083    691.139    -25.056    543.809    677.597    557.356    543.809    543.809
122.670    696.000    693.372      2.628    544.549    678.665    559.263    544.549    544.549
122.770    649.630    696.322    -46.692    545.299    680.385    561.246    545.299    545.299
122.870    724.000    699.902     24.098    546.058    682.674    563.298    546.058    546.058
122.970    688.000    704.022    -16.022    546.827    685.449    565.414    546.827    546.827
123.070    667.326    708.585    -41.259    547.605    688.624    567.581    547.605    547.605
123.170    711.453    713.487     -2.034    548.392    692.109    569.789    548.392    548.392
123.270    700.600    718.618    -18.017    549.189    695.807    572.021    549.189    549.189
123.370    699.000    723.861    -24.861    549.996    699.620    574.260    549.996    549.996
123.470    725.000    729.092     -4.092    550.812    703.443    576.488    550.812    550.812
123.570    735.000    734.183      0.817    551.638    707.169    578.681    551.638    551.638
123.670    730.060    739.001     -8.941    552.474    710.690    580.816    552.474    552.474
123.770    753.000    743.410      9.590    553.320    713.895    582.870    553.320    553.320
123.870    739.463    747.263     -7.801    554.175    716.660    584.816    554.175    554.175
123.970    775.865    750.459     25.406    555.041    718.907    586.632    555.041    555.041
124.070    783.561    752.913     30.648    555.916    720.574    588.297    555.916    555.916
124.170    751.000    754.522     -3.522    556.802    721.574    589.793    556.802    556.802
124.270    784.000    755.221     28.779    557.698    721.858    591.105    557.698    557.698
124.370    774.000    754.980     19.020    558.603    721.404    592.226    558.603    558.603
124.470    808.696    753.798     54.898    559.520    720.212    593.152    559.520    559.520
124.570    739.000    751.701    -12.701    560.446    718.309    593.885    560.446    560.446
124.670    764.000    748.740     15.260    561.383    715.737    594.432    561.383    561.383
124.770    704.980    744.984    -40.005    562.330    712.557    594.803    562.330    562.330
124.870    750.000    740.519      9.481    563.287    708.840    595.011    563.287    563.287
124.970    795.000    735.436     59.564    564.255    704.664    595.072    564.255    564.255
