neutron_powder_diffraction_0170
R_wp: 3.868
Temperature (K): 1074.000
Counts: 83814.00
Wavelength (Ã…): 2.52098
COMMENTS
Test file for demonstrating the .xyy file format in Reel1.0
END OF HEADER
   tth       Y_obs     Y_calc      Y_res    Background    Phase_1_Nuc    Phase_1_Mag    Phase_2_Nuc    Phase_2_Mag
  9.970    599.000    572.906     26.094    572.196    572.856    572.196    572.245    572.196
 10.070    532.617    573.031    -40.414    572.264    572.981    572.264    572.313    572.264
 10.170    596.000    573.159     22.841    572.326    573.109    572.326    572.376    572.326
 10.270    530.616    573.294    -42.677    572.383    573.241    572.383    572.435    572.383
 10.370    595.724    573.433     22.291    572.434    573.379    572.434    572.487    572.434
 10.470    614.071    573.583     40.489    572.480    573.528    572.480    572.534    572.480
 10.570    590.000    573.744     16.256    572.520    573.689    572.520    572.574    572.520
 10.670    614.000    573.924     40.076    572.555    573.869    572.555    572.610    572.555
 10.770    583.000    574.130      8.870    572.584    574.073    572.584    572.640    572.584
 10.870    586.897    574.368     12.529    572.608    574.311    572.608    572.664    572.608
 10.970    590.000    574.652     15.348    572.628    574.595    572.628    572.684    572.628
 11.070    580.000    575.000      5.000    572.641    574.943    572.641    572.698    572.641
 11.170    587.000    575.438     11.562    572.650    575.380    572.650    572.707    572.650
 11.270    562.165    576.004    -13.840    572.654    575.946    572.654    572.711    572.654
 11.370    585.648    576.770      8.879    572.652    576.710    572.652    572.710    572.652
 11.470    531.420    577.885    -46.465    572.646    577.824    572.646    572.704    572.646
 11.570    599.000    579.767     19.233    572.635    579.706    572.635    572.693    572.635
 11.670    617.935    583.587     34.347    572.619    583.524    572.619    572.677    572.619
 11.770    632.000    592.013     39.987    572.598    591.944    572.598    572.656    572.598
 11.870    655.000    609.272     45.728    572.572    609.194    572.572    572.631    572.572
 11.970    667.424    638.563     28.861    572.542    638.469    572.542    572.600    572.542
 12.070    675.000    676.053     -1.053    572.506    675.938    572.506    572.565    572.506
 12.170    660.000    705.453    -45.453    572.467    705.322    572.467    572.526    572.467
 12.270    702.000    706.368     -4.368    572.422    706.236    572.422    572.482    572.422
 12.370    630.343    677.938    -47.595    572.373    677.821    572.373    572.433    572.373
 12.470    629.000    640.201    -11.201    572.320    640.104    572.320    572.380    572.320
 12.570    644.000    610.169     33.831    572.262    610.089    572.262    572.323    572.262
 12.670    550.819    592.240    -41.421    572.200    592.168    572.200    572.261    572.200
 12.770    571.000    583.393    -12.393    572.134    583.326    572.134    572.195    572.134
 12.870    548.000    579.341    -31.341    572.063    579.276    572.063    572.124    572.063
 12.970    547.000    577.318    -30.318    571.988    577.253    571.988    572.049    571.988
 13.070    574.000    576.096     -2.096    571.908    576.031    571.908    571.971    571.908
 13.170    551.224    575.236    -24.012    571.825    575.171    571.825    571.889    571.825
 13.270    604.606    574.580     30.026    571.737    574.515    571.737    571.801    571.737
 13.370    541.572    574.057    -32.484    571.646    573.991    571.646    571.710    571.646
 13.470    555.000    573.625    -18.625    571.550    573.559    571.550    571.615    571.550
 13.570    544.186    573.260    -29.074    571.450    573.194    571.450    571.515    571.450
 13.670    541.000    572.943    -31.943    571.347    572.876    571.347    571.412    571.347
 13.770    580.000    572.661      7.339    571.239    572.595    571.239    571.305    571.239
 13.870    589.000    572.406     16.594    571.128    572.339    571.128    571.194    571.128
 13.970    601.121    572.171     28.951    571.013    572.104    571.013    571.079    571.013
 14.070    565.447    571.951     -6.504    570.894    571.883    570.894    570.961    570.894
 14.170    556.000    571.742    -15.742    570.771    571.675    570.771    570.838    570.771
 14.270    565.000    571.542     -6.542    570.645    571.475    570.645    570.713    570.645
 14.370    517.000    571.349    -54.349    570.515    571.281    570.515    570.583    570.515
 14.470    602.000    571.161     30.839    570.382    571.093    570.382    570.450    570.382
 14.570    566.000    570.979     -4.979    570.245    570.910    570.245    570.313    570.245
 14.670    589.423    570.798     18.625    570.104    570.729    570.104    570.173    570.104
 14.770    593.000    570.618     22.382    569.960    570.548    569.960    570.030    569.960
 14.870    566.784    570.438     -3.654    569.813    570.368    569.813    569.883    569.813
 14.970    601.000    570.258     30.742    569.662    570.188    569.662    569.732    569.662
 15.070    567.000    570.079     -3.079    569.508    570.008    569.508    569.579    569.508
 15.170    534.000    569.899    -35.899    569.351    569.828    569.351    569.422    569.351
 15.270    555.000    569.718    -14.718    569.190    569.646    569.190    569.262    569.190
 15.370    535.173    569.536    -34.363    569.027    569.464    569.027    569.098    569.027
 15.470    533.663    569.353    -35.689    568.860    569.281    568.860    568.932    568.860
 15.570    585.498    569.168     16.330    568.690    569.095    568.690    568.762    568.690
 15.670    539.000    568.982    -29.982    568.516    568.909    568.516    568.589    568.516
 15.770    582.000    568.794     13.206    568.340    568.720    568.340    568.414    568.340
 15.870    516.000    568.604    -52.604    568.161    568.530    568.161    568.235    568.161
 15.970    589.130    568.413     20.717    567.979    568.338    567.979    568.054    567.979
 16.070    559.000    568.223     -9.223    567.794    568.144    567.794    567.873    567.794
 16.170    562.000    568.031     -6.031    567.606    567.949    567.606    567.687    567.606
 16.270    573.000    567.835      5.165    567.415    567.753    567.415    567.497    567.415
 16.370    555.000    567.635    -12.635    567.222    567.553    567.222    567.304    567.222
 16.470    517.000    567.434    -50.434    567.025    567.351    567.025    567.108    567.025
 16.570    545.099    567.230    -22.131    566.826    567.147    566.826    566.910    566.826
 16.670    548.457    567.024    -18.567    566.625    566.940    566.625    566.708    566.625
 16.770    579.000    566.816     12.184    566.420    566.732    566.420    566.504    566.420
 16.870    558.000    566.606     -8.606    566.213    566.521    566.213    566.298    566.213
 16.970    568.748    566.394      2.354    566.004    566.309    566.004    566.089    566.004
 17.070    577.000    566.180     10.820    565.792    566.094    565.792    565.877    565.792
 17.170    531.742    565.964    -34.222    565.577    565.878    565.577    565.663    565.577
 17.270    568.000    565.748      2.252    565.360    565.661    565.360    565.447    565.360
 17.370    553.216    565.528    -12.312    565.140    565.440    565.140    565.228    565.140
 17.470    596.846    565.306     31.540    564.919    565.217    564.919    565.007    564.919
 17.570    533.320    565.081    -31.761    564.694    564.992    564.694    564.783    564.694
 17.670    597.023    564.855     32.168    564.468    564.765    564.468    564.557    564.468
 17.770    523.724    564.626    -40.903    564.239    564.537    564.239    564.329    564.239
 17.870    533.000    564.396    -31.396    564.008    564.306    564.008    564.099    564.008
 17.970    540.000    564.164    -24.164    563.775    564.073    563.775    563.866    563.775
 18.070    532.000    563.930    -31.930    563.540    563.838    563.540    563.631    563.540
 18.170    550.000    563.694    -13.694    563.302    563.602    563.302    563.395    563.302
 18.270    572.000    563.456      8.544    563.063    563.363    563.063    563.156    563.063
 18.370    558.000    563.217     -5.217    562.821    563.123    562.821    562.915    562.821
 18.470    566.000    562.976      3.024    562.577    562.881    562.577    562.672    562.577
 18.570    580.261    562.733     17.528    562.332    562.638    562.332    562.427    562.332
 18.670    542.197    562.489    -20.292    562.084    562.393    562.084    562.180    562.084
 18.770    553.000    562.242     -9.242    561.834    562.146    561.834    561.931    561.834
 18.870    551.000    561.995    -10.995    561.583    561.898    561.583    561.680    561.583
 18.970    531.104    561.746    -30.642    561.330    561.648    561.330    561.428    561.330
 19.070    514.000    561.495    -47.495    561.075    561.397    561.075    561.173    561.075
 19.170    547.000    561.244    -14.244    560.818    561.144    560.818    560.917    560.818
 19.270    516.350    560.991    -44.641    560.559    560.891    560.559    560.659    560.559
 19.370    573.000    560.736     12.264    560.299    560.635    560.299    560.400    560.299
 19.470    567.000    560.480      6.520    560.037    560.377    560.037    560.139    560.037
 19.570    499.000    560.222    -61.222    559.773    560.119    559.773    559.876    559.773
 19.670    539.000    559.963    -20.963    559.508    559.859    559.508    559.611    559.508
 19.770    567.000    559.702      7.298    559.241    559.598    559.241    559.345    559.241
 19.870    572.933    559.442     13.491    558.972    559.337    558.972    559.078    558.972
 19.970    566.983    559.193      7.790    558.702    559.087    558.702    558.809    558.702
 20.070    552.000    558.940     -6.940    558.431    558.832    558.431    558.538    558.431
 20.170    559.000    558.676      0.324    558.158    558.568    558.158    558.266    558.158
 20.270    503.000    558.411    -55.411    557.884    558.301    557.884    557.993    557.884
 20.370    559.000    558.145      0.855    557.608    558.034    557.608    557.718    557.608
 20.470    521.000    557.877    -36.877    557.331    557.766    557.331    557.442    557.331
 20.570    560.000    557.610      2.390    557.052    557.497    557.052    557.165    557.052
 20.670    538.000    557.343    -19.343    556.773    557.228    556.773    556.888    556.773
 20.770    575.352    557.075     18.277    556.492    556.957    556.492    556.609    556.492
 20.870    520.000    556.805    -36.805    556.209    556.687    556.209    556.328    556.209
 20.970    575.000    556.535     18.465    555.926    556.415    555.926    556.046    555.926
 21.070    599.338    556.265     43.073    555.641    556.144    555.641    555.762    555.641
 21.170    574.056    555.995     18.062    555.355    555.872    555.355    555.478    555.355
 21.270    534.397    555.724    -21.327    555.068    555.600    555.068    555.192    555.068
 21.370    533.000    555.453    -22.453    554.780    555.328    554.780    554.906    554.780
 21.470    554.000    555.183     -1.183    554.491    555.056    554.491    554.618    554.491
 21.570    539.000    554.913    -15.913    554.201    554.785    554.201    554.329    554.201
 21.670    509.000    554.643    -45.643    553.910    554.514    553.910    554.039    553.910
 21.770    608.000    554.382     53.618    553.618    554.251    553.618    553.749    553.618
 21.870    525.286    554.197    -28.911    553.325    554.065    553.325    553.457    553.325
 21.970    503.000    553.952    -50.952    553.031    553.818    553.031    553.165    553.031
 22.070    542.000    553.688    -11.688    552.736    553.553    552.736    552.871    552.736
 22.170    518.139    553.427    -35.288    552.440    553.290    552.440    552.577    552.440
 22.270    513.534    553.187    -39.653    552.143    553.048    552.143    552.283    552.143
 22.370    550.000    552.961     -2.961    551.846    552.820    551.846    551.987    551.846
 22.470    526.000    552.756    -26.756    551.548    552.613    551.548    551.691    551.548
 22.570    597.000    552.528     44.472    551.249    552.383    551.249    551.394    551.249
 22.670    535.068    552.285    -17.217    550.949    552.138    550.949    551.096    550.949
 22.770    521.371    552.045    -30.674    550.649    551.897    550.649    550.798    550.649
 22.870    556.000    551.813      4.187    550.348    551.663    550.348    550.499    550.348
 22.970    526.000    551.591    -25.591    550.046    551.438    550.046    550.199    550.046
 23.070    562.227    551.379     10.848    549.743    551.223    549.743    549.899    549.743
 23.170    578.000    551.181     26.819    549.441    551.023    549.441    549.599    549.441
 23.270    591.128    551.000     40.127    549.137    550.840    549.137    549.298    549.137
 23.370    556.000    550.842      5.158    548.833    550.679    548.833    548.996    548.833
 23.470    524.473    550.713    -26.240    548.528    550.548    548.528    548.694    548.528
 23.570    576.000    550.625     25.375    548.223    550.457    548.223    548.392    548.223
 23.670    553.219    550.586      2.633    547.918    550.415    547.918    548.090    547.918
 23.770    549.000    550.617     -1.617    547.612    550.444    547.612    547.787    547.612
 23.870    536.000    550.750    -14.750    547.305    550.574    547.305    547.484    547.305
 23.970    509.208    551.040    -41.832    546.999    550.861    546.999    547.180    546.999
 24.070    571.615    551.621     19.994    546.691    551.438    546.691    546.877    546.691
 24.170    553.000    552.862      0.138    546.384    552.677    546.384    546.573    546.384
 24.270    574.000    555.743     18.257    546.076    555.556    546.076    546.269    546.076
 24.370    593.395    562.273     31.123    545.768    562.087    545.768    545.965    545.768
 24.470    627.000    575.194     51.806    545.459    575.014    545.459    545.661    545.459
 24.570    603.000    595.814      7.186    545.151    595.644    545.151    545.357    545.151
 24.670    632.000    620.094     11.906    544.842    619.938    544.842    545.053    544.842
 24.770    634.000    636.142     -2.142    544.533    635.993    544.533    544.749    544.533
 24.870    632.000    632.202     -0.202    544.224    632.044    544.224    544.445    544.224
 24.970    652.000    611.460     40.540    543.914    611.282    543.914    544.141    543.914
 25.070    580.000    587.136     -7.136    543.605    586.934    543.605    543.837    543.605
 25.170    613.000    568.474     44.526    543.295    568.252    543.295    543.534    543.295
 25.270    549.000    557.370     -8.370    542.985    557.133    542.985    543.231    542.985
 25.370    574.000    551.744     22.256    542.675    551.495    542.675    542.929    542.675
 25.470    513.000    549.007    -36.007    542.365    548.749    542.365    542.627    542.365
 25.570    539.000    547.521     -8.521    542.055    547.253    542.055    542.325    542.055
 25.670    550.000    546.554      3.446    541.746    546.277    541.746    542.024    541.746
 25.770    562.000    545.833     16.167    541.436    545.546    541.436    541.724    541.436
 25.870    560.000    545.257     14.743    541.126    544.960    541.126    541.424    541.126
 25.970    514.000    544.784    -30.784    540.816    544.476    540.816    541.125    540.816
 26.070    543.000    544.390     -1.390    540.506    544.070    540.506    540.827    540.506
 26.170    536.906    544.057     -7.151    540.197    543.723    540.197    540.531    540.197
 26.270    538.000    543.780     -5.780    539.887    543.432    539.887    540.235    539.887
 26.370    546.835    543.579      3.256    539.578    543.216    539.578    539.941    539.578
 26.470    523.000    543.423    -20.423    539.269    543.044    539.269    539.649    539.269
 26.570    573.000    543.297     29.703    538.960    542.899    538.960    539.358    538.960
 26.670    538.565    543.227     -4.662    538.651    542.809    538.651    539.069    538.651
 26.770    530.662    543.224    -12.562    538.342    542.784    538.342    538.782    538.342
 26.870    509.302    543.290    -33.988    538.034    542.826    538.034    538.498    538.034
 26.970    538.000    543.449     -5.449    537.726    542.958    537.726    538.217    537.726
 27.070    570.000    543.733     26.267    537.418    543.212    537.418    537.939    537.418
 27.170    543.814    544.188     -0.375    537.111    543.634    537.111    537.664    537.111
 27.270    608.000    544.851     63.149    536.804    544.260    536.804    537.395    536.804
 27.370    533.922    545.781    -11.860    536.497    545.148    536.497    537.130    536.497
 27.470    544.000    547.150     -3.150    536.191    546.468    536.191    536.871    536.191
 27.570    521.711    549.348    -27.638    535.885    548.612    535.885    536.619    535.885
 27.670    564.000    553.753     10.247    535.579    552.953    535.579    536.375    535.579
 27.770    574.114    565.037      9.076    535.274    564.163    535.274    536.141    535.274
 27.870    551.866    595.048    -43.183    534.969    594.081    534.969    535.919    534.969
 27.970    695.752    662.218     33.534    534.665    661.134    534.665    535.712    534.665
 28.070    801.410    774.698     26.712    534.361    773.468    534.361    535.522    534.361
 28.170    907.000    900.611      6.389    534.058    899.218    534.058    535.354    534.058
 28.270   1004.000    962.746     41.254    533.755    961.193    533.755    535.214    533.755
 28.370    871.000    910.108    -39.108    533.452    908.393    533.452    535.111    533.452
 28.470    822.000    796.847     25.153    533.151    794.919    533.151    535.056    533.151
 28.570    711.000    709.293      1.707    532.849    707.064    532.849    535.069    532.849
 28.670    707.000    691.601     15.399    532.549    688.953    532.549    535.183    532.549
 28.770    720.000    738.458    -18.458    532.249    735.234    532.249    535.455    532.249
 28.870    761.000    808.854    -47.854    531.949    804.817    531.949    535.977    531.949
 28.970    817.000    842.151    -25.151    531.650    836.921    531.650    536.886    531.650
 29.070    735.000    802.569    -67.569    531.352    795.571    531.352    538.366    531.352
 29.170    738.883    721.472     17.411    531.055    711.923    531.055    540.619    531.055
 29.270    600.947    647.185    -46.239    530.758    634.154    530.758    543.798    530.758
 29.370    611.000    601.413      9.587    530.462    583.990    530.462    547.889    530.462
 29.470    563.000    581.212    -18.212    530.166    558.899    530.166    552.480    530.166
 29.570    582.000    574.672      7.328    529.872    548.087    529.872    556.455    529.872
 29.670    558.801    571.848    -13.047    529.578    543.316    529.578    558.108    529.578
 29.770    609.063    567.884     41.179    529.284    540.754    529.284    556.412    529.284
 29.870    520.814    562.240    -41.426    528.992    539.084    528.992    552.146    528.992
 29.970    592.000    556.203     35.797    528.700    537.908    528.700    546.994    528.700
 30.070    586.000    550.881     35.119    528.409    537.097    528.409    542.192    528.409
 30.170    523.000    546.769    -23.769    528.119    536.629    528.119    538.258    528.119
 30.270    584.000    544.047     39.953    527.830    536.613    527.830    535.262    527.830
 30.370    551.505    543.021      8.485    527.542    537.489    527.542    533.070    527.542
 30.470    526.015    544.663    -18.648    527.254    540.426    527.254    531.485    527.254
 30.570    565.000    550.961     14.039    526.968    547.598    526.968    530.319    526.968
 30.670    601.000    564.155     36.845    526.682    561.389    526.682    529.425    526.682
 30.770    573.000    584.082    -11.082    526.397    581.740    526.397    528.702    526.397
 30.870    653.000    604.791     48.209    526.113    602.764    526.113    528.089    526.113
 30.970    609.026    614.241     -5.215    525.830    612.467    525.830    527.550    525.830
 31.070    663.000    604.464     58.536    525.548    602.905    525.548    527.063    525.548
 31.170    585.000    582.848      2.152    525.267    581.472    525.267    526.614    525.267
 31.270    521.803    561.429    -39.627    524.986    560.205    524.986    526.195    524.986
 31.370    521.546    546.410    -24.865    524.707    545.310    524.707    525.800    524.707
 31.470    547.780    538.067      9.713    524.429    537.069    524.429    525.424    524.429
 31.570    587.000    534.059     52.941    524.152    533.145    524.152    525.063    524.152
 31.670    471.000    532.159    -61.159    523.875    531.318    523.875    524.715    523.875
 31.770    555.000    531.128     23.872    523.600    530.349    523.600    524.378    523.600
 31.870    502.961    530.463    -27.502    523.326    529.738    523.326    524.050    523.326
 31.970    514.000    529.995    -15.995    523.053    529.317    523.053    523.730    523.053
 32.070    544.000    529.665     14.335    522.781    529.029    522.781    523.417    522.781
 32.170    568.000    529.454     38.546    522.510    528.854    522.510    523.109    522.510
 32.270    554.080    529.349     24.730    522.240    528.781    522.240    522.807    522.240
 32.370    562.000    529.351     32.649    521.971    528.811    521.971    522.510    521.971
 32.470    587.000    529.468     57.532    521.704    528.955    521.704    522.216    521.704
 32.570    544.527    529.719     14.809    521.437    529.228    521.437    521.927    521.437
 32.670    527.761    530.127     -2.366    521.172    529.657    521.172    521.641    521.172
 32.770    570.575    530.732     39.843    520.908    530.281    520.908    521.358    520.908
 32.870    521.771    531.589     -9.818    520.645    531.154    520.645    521.078    520.645
 32.970    544.000    532.778     11.222    520.383    532.358    520.383    520.801    520.383
 33.070    503.000    534.427    -31.427    520.122    534.021    520.122    520.527    520.122
 33.170    513.944    536.766    -22.822    519.862    536.372    519.862    520.255    519.862
 33.270    551.000    540.325     10.675    519.604    539.942    519.604    519.985    519.604
 33.370    570.635    546.551     24.084    519.347    546.178    519.347    519.717    519.347
 33.470    577.000    559.248     17.752    519.091    558.882    519.091    519.452    519.091
 33.570    610.000    586.667     23.333    518.836    586.305    518.836    519.189    518.836
 33.670    608.000    641.860    -33.860    518.583    641.496    518.583    518.927    518.583
 33.770    730.670    736.649     -5.979    518.330    736.279    518.330    518.668    518.330
 33.870    882.000    867.277     14.723    518.079    866.898    518.079    518.410    518.079
 33.970   1062.000    998.253     63.747    517.830    997.872    517.830    518.155    517.830
 34.070   1016.000   1062.420    -46.420    517.581   1062.055    517.581    517.901    517.581
 34.170    966.000   1014.204    -48.204    517.334   1013.870    517.334    517.648    517.334
 34.270    935.000    889.312     45.688    517.088    889.004    517.088    517.398    517.088
 34.370    752.000    755.326     -3.326    516.844    755.032    516.844    517.149    516.844
 34.470    696.954    653.378     43.576    516.601    653.087    516.601    516.902    516.601
 34.570    586.000    591.586     -5.586    516.359    591.295    516.359    516.657    516.359
 34.670    550.000    559.757     -9.757    516.118    559.465    516.118    516.413    516.118
 34.770    567.690    544.576     23.114    515.879    544.285    515.879    516.170    515.879
 34.870    537.000    536.969      0.031    515.641    536.680    515.641    515.930    515.641
 34.970    533.000    532.508      0.492    515.404    532.221    515.404    515.691    515.404
 35.070    542.000    529.445     12.555    515.169    529.160    515.169    515.454    515.169
 35.170    553.410    527.136     26.274    514.935    526.853    514.935    515.218    514.935
 35.270    510.000    525.312    -15.312    514.703    525.031    514.703    514.984    514.703
 35.370    523.000    523.831     -0.831    514.472    523.552    514.472    514.751    514.472
 35.470    528.000    522.604      5.396    514.242    522.326    514.242    514.520    514.242
 35.570    529.851    521.568      8.283    514.014    521.291    514.014    514.290    514.014
 35.670    541.000    520.680     20.320    513.787    520.404    513.787    514.063    513.787
 35.770    517.000    519.909     -2.909    513.561    519.634    513.561    513.836    513.561
 35.870    557.000    519.230     37.770    513.337    518.956    513.337    513.612    513.337
 35.970    561.890    518.628     43.262    513.115    518.354    513.115    513.388    513.115
 36.070    513.000    518.089     -5.089    512.894    517.815    512.894    513.167    512.894
 36.170    529.000    517.602     11.398    512.674    517.330    512.674    512.947    512.674
 36.270    552.000    517.162     34.838    512.456    516.890    512.456    512.728    512.456
 36.370    505.000    516.763    -11.763    512.239    516.490    512.239    512.511    512.239
 36.470    525.530    516.402      9.129    512.023    516.129    512.023    512.296    512.023
 36.570    552.795    516.077     36.719    511.810    515.804    511.810    512.082    511.810
 36.670    508.694    515.790     -7.096    511.597    515.517    511.597    511.870    511.597
 36.770    477.000    515.546    -38.546    511.386    515.273    511.386    511.660    511.386
 36.870    479.809    515.366    -35.556    511.177    515.092    511.177    511.451    511.177
 36.970    552.712    515.299     37.413    510.969    515.024    510.969    511.243    510.969
 37.070    522.000    515.468      6.532    510.762    515.193    510.762    511.037    510.762
 37.170    522.000    516.109      5.891    510.557    515.833    510.557    510.833    510.557
 37.270    512.000    517.559     -5.559    510.354    517.283    510.354    510.631    510.354
 37.370    512.000    520.101     -8.101    510.152    519.825    510.152    510.430    510.152
 37.470    558.573    523.645     34.928    509.951    523.368    509.951    510.230    509.951
 37.570    514.000    527.376    -13.376    509.752    527.099    509.752    510.032    509.752
 37.670    533.000    529.714      3.286    509.555    529.438    509.555    509.836    509.555
 37.770    521.691    529.337     -7.646    509.359    529.061    509.359    509.642    509.359
 37.870    508.684    526.584    -17.900    509.165    526.309    509.165    509.449    509.165
 37.970    556.029    522.906     33.123    508.972    522.631    508.972    509.257    508.972
 38.070    501.086    519.432    -18.346    508.781    519.156    508.781    509.068    508.781
 38.170    529.971    516.611     13.360    508.591    516.332    508.591    508.880    508.591
 38.270    497.000    514.534    -17.534    508.403    514.251    508.403    508.693    508.403
 38.370    490.645    513.109    -22.464    508.216    512.821    508.216    508.508    508.216
 38.470    464.000    512.165    -48.165    508.031    511.874    508.031    508.325    508.031
 38.570    496.000    511.538    -15.538    507.848    511.244    507.848    508.144    507.848
 38.670    477.245    511.104    -33.858    507.666    510.806    507.666    507.964    507.666
 38.770    485.666    510.776    -25.110    507.486    510.476    507.486    507.786    507.486
 38.870    552.533    510.506     42.026    507.307    510.204    507.307    507.609    507.307
 38.970    491.000    510.269    -19.269    507.130    509.965    507.130    507.434    507.130
 39.070    517.000    510.053      6.947    506.954    509.746    506.954    507.261    506.954
 39.170    481.000    509.852    -28.852    506.780    509.542    506.780    507.090    506.780
 39.270    501.868    509.663     -7.795    506.608    509.351    506.608    506.920    506.608
 39.370    504.716    509.485     -4.769    506.437    509.170    506.437    506.752    506.437
 39.470    540.862    509.316     31.546    506.268    508.998    506.268    506.585    506.268
 39.570    507.000    509.156     -2.156    506.100    508.836    506.100    506.421    506.100
 39.670    494.000    509.004    -15.004    505.934    508.681    505.934    506.258    505.934
 39.770    501.065    508.860     -7.796    505.769    508.534    505.769    506.096    505.769
 39.870    512.628    508.724      3.904    505.607    508.394    505.607    505.937    505.607
 39.970    495.000    508.596    -13.596    505.445    508.263    505.445    505.779    505.445
 40.070    500.000    508.476     -8.476    505.286    508.139    505.286    505.622    505.286
 40.170    520.000    508.364     11.636    505.128    508.024    505.128    505.468    505.128
 40.270    482.000    508.262    -26.262    504.971    507.919    504.971    505.315    504.971
 40.370    480.000    508.170    -28.170    504.817    507.822    504.817    505.164    504.817
 40.470    488.000    508.088    -20.088    504.663    507.737    504.663    505.015    504.663
 40.570    500.000    508.019     -8.019    504.512    507.664    504.512    504.867    504.512
 40.670    496.000    507.964    -11.964    504.362    507.605    504.362    504.722    504.362
 40.770    556.000    507.925     48.075    504.214    507.561    504.214    504.578    504.214
 40.870    534.000    507.904     26.096    504.067    507.536    504.067    504.435    504.067
 40.970    526.595    507.906     18.689    503.922    507.534    503.922    504.295    503.922
 41.070    491.442    507.935    -16.492    503.778    507.558    503.778    504.156    503.778
 41.170    519.880    507.996     11.884    503.637    507.614    503.637    504.019    503.637
 41.270    518.000    508.098      9.902    503.496    507.712    503.496    503.884    503.496
 41.370    550.791    508.253     42.538    503.358    507.861    503.358    503.750    503.358
 41.470    504.000    508.475     -4.475    503.221    508.078    503.221    503.619    503.221
 41.570    488.000    508.790    -20.790    503.086    508.388    503.086    503.489    503.086
 41.670    504.000    509.241     -5.241    502.952    508.834    502.952    503.361    502.952
 41.770    522.000    509.928     12.072    502.820    509.515    502.820    503.235    502.820
 41.870    484.000    511.091    -27.091    502.690    510.672    502.690    503.111    502.690
 41.970    489.000    513.278    -24.278    502.561    512.854    502.561    502.988    502.561
 42.070    536.268    517.586     18.681    502.434    517.158    502.434    502.868    502.434
 42.170    549.000    525.765     23.235    502.308    525.334    502.308    502.749    502.308
 42.270    555.000    539.815     15.185    502.184    539.383    502.184    502.632    502.184
 42.370    592.166    560.773     31.393    502.062    560.345    502.062    502.517    502.062
 42.470    587.000    586.905      0.095    501.942    586.483    501.942    502.404    501.942
 42.570    638.763    612.129     26.634    501.823    611.714    501.823    502.293    501.823
 42.670    608.000    626.554    -18.554    501.705    626.141    501.705    502.184    501.705
 42.770    655.801    622.630     33.172    501.590    622.210    501.590    502.076    501.590
 42.870    635.795    602.656     33.139    501.475    602.219    501.475    501.971    501.475
 42.970    568.000    576.050     -8.050    501.363    575.590    501.363    501.868    501.363
 43.070    525.748    551.418    -25.670    501.252    550.934    501.252    501.766    501.252
 43.170    519.658    533.020    -13.361    501.143    532.514    501.143    501.667    501.143
 43.270    519.000    521.304     -2.304    501.035    520.780    501.035    501.570    501.035
 43.370    521.613    514.689      6.924    500.930    514.150    500.930    501.475    500.930
 43.470    507.000    511.200     -4.200    500.825    510.648    500.825    501.381    500.825
 43.570    489.000    509.343    -20.343    500.723    508.778    500.723    501.290    500.723
 43.670    485.000    508.258    -23.258    500.621    507.680    500.621    501.201    500.621
 43.770    534.000    507.538     26.462    500.522    506.948    500.522    501.115    500.522
 43.870    549.000    507.011     41.989    500.424    506.407    500.424    501.030    500.424
 43.970    510.000    506.602      3.398    500.328    505.984    500.328    500.948    500.328
 44.070    514.000    506.278      7.722    500.233    505.645    500.233    500.868    500.233
 44.170    523.000    506.017     16.983    500.140    505.368    500.140    500.790    500.140
 44.270    466.184    505.806    -39.622    500.049    505.141    500.049    500.714    500.049
 44.370    504.000    505.635     -1.635    499.959    504.954    499.959    500.641    499.959
 44.470    526.000    505.499     20.501    499.871    504.800    499.871    500.571    499.871
 44.570    504.000    505.391     -1.391    499.785    504.673    499.785    500.503    499.785
 44.670    539.000    505.308     33.692    499.700    504.570    499.700    500.438    499.700
 44.770    477.000    505.247    -28.247    499.616    504.488    499.616    500.375    499.616
 44.870    541.000    505.205     35.795    499.535    504.425    499.535    500.315    499.535
 44.970    524.049    505.183     18.866    499.455    504.379    499.455    500.258    499.455
 45.070    494.000    505.178    -11.178    499.376    504.350    499.376    500.204    499.376
 45.170    481.018    505.190    -24.172    499.299    504.336    499.299    500.153    499.299
 45.270    509.232    505.220      4.012    499.224    504.338    499.224    500.106    499.224
 45.370    531.173    505.266     25.907    499.150    504.354    499.150    500.061    499.150
 45.470    512.853    505.329      7.524    499.078    504.386    499.078    500.021    499.078
 45.570    498.000    505.411     -7.411    499.007    504.434    499.007    499.983    499.007
 45.670    526.734    505.511     21.222    498.938    504.499    498.938    499.950    498.938
 45.770    513.897    505.633      8.264    498.871    504.582    498.871    499.921    498.871
 45.870    489.945    505.776    -15.831    498.805    504.684    498.805    499.897    498.805
 45.970    470.488    505.944    -35.456    498.741    504.807    498.741    499.877    498.741
 46.070    517.674    506.139     11.535    498.678    504.954    498.678    499.862    498.678
 46.170    504.000    506.365     -2.365    498.617    505.128    498.617    499.852    498.617
 46.270    464.540    506.626    -42.086    498.557    505.334    498.557    499.849    498.557
 46.370    527.560    506.929     20.631    498.499    505.575    498.499    499.852    498.499
 46.470    502.000    507.280     -5.280    498.443    505.861    498.443    499.862    498.443
 46.570    510.000    507.691      2.309    498.388    506.199    498.388    499.879    498.388
 46.670    517.000    508.177      8.823    498.334    506.605    498.334    499.905    498.334
 46.770    479.044    508.765    -29.720    498.282    507.105    498.282    499.941    498.282
 46.870    478.000    509.509    -31.509    498.232    507.752    498.232    499.987    498.232
 46.970    507.082    510.531     -3.449    498.183    508.668    498.183    500.045    498.183
 47.070    500.000    512.098    -12.098    498.136    510.114    498.136    500.116    498.136
 47.170    508.363    514.720     -6.357    498.090    512.603    498.090    500.203    498.090
 47.270    573.000    519.228     53.772    498.046    516.959    498.046    500.307    498.046
 47.370    493.836    526.668    -32.831    498.003    524.226    498.003    500.432    498.003
 47.470    533.217    537.880     -4.663    497.962    535.241    497.962    500.580    497.962
 47.570    591.709    552.784     38.926    497.923    549.919    497.923    500.756    497.923
 47.670    621.000    569.586     51.414    497.884    566.462    497.884    500.965    497.884
 47.770    582.000    584.332     -2.332    497.848    580.914    497.848    501.213    497.848
 47.870    573.789    591.770    -17.981    497.813    588.017    497.813    501.510    497.813
 47.970    600.000    588.769     11.231    497.779    584.631    497.779    501.866    497.779
 48.070    575.000    577.459     -2.459    497.747    572.867    497.747    502.297    497.747
 48.170    599.000    562.990     36.010    497.716    557.848    497.716    502.828    497.716
 48.270    589.827    549.813     40.014    497.687    543.983    497.687    503.498    497.687
 48.370    518.000    540.332    -22.332    497.659    533.610    497.659    504.369    497.659
 48.470    515.785    535.140    -19.354    497.633    527.219    497.633    505.546    497.633
 48.570    568.000    533.774     34.226    497.608    524.184    497.608    507.193    497.608
 48.670    528.000    535.508     -7.508    497.584    523.533    497.584    509.556    497.584
 48.770    557.000    539.865     17.135    497.562    524.457    497.562    512.967    497.562
 48.870    521.000    546.775    -25.775    497.542    526.485    497.542    517.829    497.542
 48.970    570.000    556.500     13.500    497.523    529.472    497.523    524.547    497.523
 49.070    567.882    569.493     -1.611    497.505    533.577    497.505    533.416    497.505
 49.170    586.000    586.391     -0.391    497.489    539.429    497.489    544.446    497.489
 49.270    604.000    608.416     -4.416    497.474    548.760    497.474    557.122    497.474
 49.370    649.000    638.623     10.377    497.461    565.971    497.461    570.100    497.461
 49.470    693.000    684.455      8.545    497.449    600.919    497.449    580.961    497.449
 49.570    800.000    761.470     38.530    497.438    672.194    497.438    586.671    497.438
 49.670    893.000    895.575     -2.575    497.429    807.709    497.429    585.220    497.429
 49.770   1119.858   1117.179      2.679    497.422   1037.306    497.422    577.178    497.422
 49.870   1488.270   1442.020     46.250    497.415   1374.093    497.415    565.188    497.415
 49.970   1786.000   1844.598    -58.598    497.410   1789.707    497.410    552.136    497.410
 50.070   2209.000   2241.244    -32.244    497.407   2198.516    497.407    540.008    497.407
 50.170   2558.928   2503.425     55.503    497.404   2471.005    497.404    529.795    497.404
 50.270   2482.000   2519.664    -37.664    497.404   2495.383    497.404    521.778    497.404
 50.370   2199.000   2278.956    -79.956    497.404   2260.725    497.404    515.819    497.404
 50.470   1829.827   1881.723    -51.896    497.406   1867.778    497.406    511.564    497.406
 50.570   1396.000   1461.372    -65.372    497.409   1450.372    497.409    508.599    497.409
 50.670   1085.092   1113.337    -28.245    497.414   1104.349    497.414    506.546    497.414
 50.770    852.000    874.669    -22.669    497.419    867.082    497.419    505.105    497.419
 50.870    687.000    736.177    -49.177    497.427    729.608    497.427    504.063    497.427
 50.970    661.000    666.733     -5.733    497.435    660.935    497.435    503.283    497.435
 51.070    623.000    633.984    -10.984    497.445    628.793    497.445    502.677    497.445
 51.170    639.000    615.043     23.957    497.456    610.342    497.456    502.193    497.456
 51.270    612.000    598.763     13.237    497.469    594.464    497.469    501.799    497.469
 51.370    588.000    582.606      5.394    497.482    578.639    497.482    501.474    497.482
 51.470    581.000    567.660     13.340    497.497    563.972    497.497    501.204    497.497
 51.570    543.000    555.338    -12.338    497.513    551.886    497.513    500.979    497.513
 51.670    511.918    546.270    -34.352    497.531    543.019    497.531    500.791    497.531
 51.770    502.269    540.281    -38.012    497.550    537.202    497.550    500.634    497.550
 51.870    541.000    536.742      4.258    497.570    533.812    497.570    500.505    497.570
 51.970    620.000    534.949     85.051    497.591    532.147    497.591    500.398    497.591
 52.070    563.000    534.369     28.631    497.614    531.675    497.614    500.311    497.614
 52.170    506.843    534.715    -27.872    497.638    532.114    497.638    500.241    497.638
 52.270    593.000    535.944     57.056    497.663    533.422    497.663    500.187    497.663
 52.370    529.000    538.279     -9.279    497.689    535.824    497.689    500.147    497.689
 52.470    590.000    542.363     47.637    497.716    539.963    497.716    500.118    497.716
 52.570    580.000    549.615     30.385    497.745    547.261    497.745    500.101    497.745
 52.670    542.256    562.778    -20.522    497.775    560.459    497.775    500.094    497.775
 52.770    617.846    586.437     31.409    497.806    584.147    497.806    500.096    497.806
 52.870    674.471    626.993     47.478    497.838    624.723    497.838    500.107    497.838
 52.970    678.824    691.331    -12.508    497.871    689.075    497.871    500.127    497.871
 53.070    768.957    783.774    -14.817    497.906    781.526    497.906    500.154    497.906
 53.170    951.965    901.785     50.179    497.942    899.542    497.942    500.188    497.942
 53.270    982.000   1031.871    -49.871    497.979   1029.629    497.979    500.229    497.979
 53.370   1097.670   1147.678    -50.008    498.017   1145.438    498.017    500.277    498.017
 53.470   1270.398   1214.711     55.688    498.056   1212.468    498.056    500.332    498.056
 53.570   1201.853   1207.640     -5.787    498.096   1205.389    498.096    500.393    498.096
 53.670   1149.000   1129.658     19.342    498.137   1127.386    498.137    500.461    498.137
 53.770    955.056   1009.498    -54.442    498.180   1007.191    498.180    500.536    498.180
 53.870    835.000    880.808    -45.808    498.224    878.457    498.224    500.617    498.224
 53.970    689.000    767.569    -78.569    498.268    765.164    498.268    500.704    498.268
 54.070    705.000    681.017     23.983    498.314    678.554    498.314    500.799    498.314
 54.170    654.750    622.106     32.644    498.361    619.580    498.361    500.900    498.361
 54.270    611.000    585.769     25.231    498.409    583.178    498.409    501.009    498.409
 54.370    540.108    565.062    -24.954    498.458    562.400    498.458    501.126    498.458
 54.470    556.000    553.885      2.115    498.508    551.147    498.508    501.250    498.508
 54.570    591.000    548.015     42.985    498.559    545.195    498.559    501.382    498.559
 54.670    539.262    544.993     -5.731    498.611    542.083    498.611    501.523    498.611
 54.770    550.000    543.563      6.437    498.664    540.555    498.664    501.674    498.664
 54.870    506.002    543.149    -37.147    498.719    540.035    498.719    501.834    498.719
 54.970    583.715    543.509     40.206    498.774    540.278    498.774    502.006    498.774
 55.070    588.271    544.554     43.717    498.830    541.197    498.830    502.188    498.830
 55.170    513.346    546.273    -32.927    498.887    542.778    498.887    502.383    498.887
 55.270    551.000    548.706      2.294    498.945    545.061    498.945    502.592    498.945
 55.370    564.000    551.945     12.055    499.005    548.136    499.005    502.816    499.005
 55.470    586.000    556.157     29.843    499.065    552.168    499.065    503.055    499.065
 55.570    528.576    561.662    -33.086    499.126    557.477    499.126    503.313    499.126
 55.670    599.000    569.128     29.872    499.188    564.727    499.188    503.590    499.188
 55.770    545.000    579.997    -34.997    499.251    575.359    499.251    503.889    499.251
 55.870    596.000    597.326     -1.326    499.315    592.427    499.315    504.213    499.315
 55.970    669.821    627.103     42.718    499.380    621.915    499.380    504.564    499.380
 56.070    683.702    679.784      3.918    499.445    674.274    499.445    504.946    499.445
 56.170    760.000    771.084    -11.084    499.512    765.215    499.512    505.363    499.512
 56.270    946.758    920.347     26.411    499.580    914.076    499.580    505.820    499.580
 56.370   1104.000   1144.831    -40.831    499.648   1138.116    499.648    506.322    499.648
 56.470   1343.000   1449.896   -106.896    499.718   1442.689    499.718    506.877    499.718
 56.570   1761.829   1817.743    -55.915    499.788   1810.002    499.788    507.491    499.788
 56.670   2142.380   2199.259    -56.879    499.859   2190.937    499.859    508.175    499.859
 56.770   2577.227   2514.247     62.979    499.931   2505.293    499.931    508.941    499.931
 56.870   2739.268   2670.936     68.332    500.004   2661.277    500.004    509.803    500.004
 56.970   2655.000   2614.220     40.780    500.077   2603.742    500.077    510.779    500.077
 57.070   2320.597   2366.598    -46.001    500.152   2355.131    500.152    511.894    500.152
 57.170   2053.000   2009.282     43.718    500.227   1996.610    500.227    513.177    500.227
 57.270   1688.000   1631.206     56.794    500.303   1617.080    500.303    514.675    500.303
 57.370   1325.306   1296.830     28.476    500.380   1280.948    500.380    516.455    500.380
 57.470   1034.000   1038.258     -4.258    500.457   1020.232    500.457    518.622    500.457
 57.570    866.095    860.127      5.968    500.536    839.409    500.536    521.345    500.536
 57.670    786.288    750.097     36.192    500.615    725.876    500.615    524.891    500.615
 57.770    687.000    689.979     -2.979    500.695    661.035    500.695    529.668    500.695
 57.870    716.000    663.737     52.263    500.775    628.253    500.775    536.273    500.775
 57.970    705.000    661.149     43.851    500.857    616.502    500.857    545.507    500.857
 58.070    689.000    678.045     10.955    500.939    620.618    500.939    558.359    500.939
 58.170    722.644    714.680      7.964    501.022    639.774    501.022    575.911    501.022
 58.270    803.919    773.358     30.561    501.105    675.291    501.105    599.144    501.105
 58.370    828.432    855.933    -27.501    501.190    728.415    501.190    628.670    501.190
 58.470   1010.222    961.515     48.707    501.275    798.368    501.275    664.375    501.275
 58.570   1058.000   1084.717    -26.717    501.360    881.025    501.360    705.003    501.360
 58.670   1269.182   1214.772     54.410    501.447    968.559    501.447    747.615    501.447
 58.770   1332.000   1336.843     -4.843    501.534   1051.297    501.534    787.048    501.534
 58.870   1504.822   1435.225     69.597    501.621   1120.826    501.621    816.006    501.621
 58.970   1533.000   1496.027     36.973    501.709   1170.582    501.709    827.160    501.709
 59.070   1559.759   1509.433     50.326    501.798   1194.069    501.798    817.189    501.798
 59.170   1534.000   1474.174     59.826    501.888   1186.958    501.888    789.147    501.888
 59.270   1412.000   1401.080     10.920    501.978   1152.846    501.978    750.257    501.978
 59.370   1335.476   1309.770     25.706    502.069   1104.003    502.069    707.869    502.069
 59.470   1254.000   1220.840     33.160    502.160   1055.749    502.160    667.259    502.160
 59.570   1237.000   1151.747     85.253    502.252   1022.509    502.252    631.462    502.252
 59.670   1132.000   1117.383     14.617    502.344   1017.843    502.344    601.811    502.344
 59.770   1199.000   1129.221     69.779    502.437   1053.069    502.437    578.464    502.437
 59.870   1148.974   1190.529    -41.555    502.531   1132.037    502.531    560.841    502.531
 59.970   1297.000   1291.602      5.398    502.625   1246.022    502.625    547.971    502.625
 60.070   1435.183   1408.341     26.841    502.720   1372.014    502.720    538.775    502.720
 60.170   1556.000   1504.982     51.018    502.815   1475.255    502.815    532.257    502.815
 60.270   1563.419   1543.602     19.816    502.911   1518.646    502.911    527.606    502.911
 60.370   1511.000   1502.111      8.889    503.007   1480.691    503.007    524.219    503.007
 60.470   1456.487   1387.725     68.762    503.104   1369.003    503.104    521.682    503.104
 60.570   1264.000   1229.898     34.102    503.201   1213.287    503.201    519.725    503.201
 60.670   1084.000   1062.533     21.467    503.299   1047.606    503.299    518.182    503.299
 60.770    916.000    911.920      4.080    503.397    898.346    503.397    516.954    503.397
 60.870    798.000    792.708      5.292    503.495    780.218    503.495    515.981    503.495
 60.970    659.000    708.812    -49.812    503.594    697.174    503.594    515.230    503.594
 61.070    712.000    657.064     54.936    503.694    646.072    503.694    514.681    503.694
 61.170    638.000    631.767      6.233    503.794    621.232    503.794    514.319    503.794
 61.270    643.835    628.460     15.376    503.894    618.205    503.894    514.130    503.894
 61.370    658.000    645.966     12.034    503.994    635.835    503.994    514.095    503.994
 61.470    694.297    686.550      7.747    504.096    676.414    504.096    514.184    504.096
 61.570    796.043    754.335     41.708    504.197    744.111    504.197    514.350    504.197
 61.670    828.406    852.346    -23.939    504.299    842.022    504.299    514.524    504.299
 61.770    987.000    978.870      8.130    504.401    968.527    504.401    514.615    504.401
 61.870   1109.000   1124.223    -15.223    504.504   1114.036    504.504    514.533    504.504
 61.970   1304.080   1269.106     34.974    504.606   1259.308    504.606    514.231    504.606
 62.070   1390.000   1385.836      4.164    504.710   1376.648    504.710    513.728    504.710
 62.170   1446.755   1444.932      1.823    504.813   1436.507    504.813    513.093    504.813
 62.270   1346.000   1428.489    -82.489    504.917   1420.891    504.917    512.411    504.917
 62.370   1370.532   1341.399     29.133    505.021   1334.613    505.021    511.749    505.021
 62.470   1176.000   1207.836    -31.836    505.125   1201.791    505.125    511.150    505.125
 62.570   1028.620   1057.623    -29.003    505.230   1052.221    505.230    510.634    505.230
 62.670    895.981    915.451    -19.470    505.335    910.590    505.335    510.211    505.335
 62.770    785.000    796.634    -11.634    505.440    792.217    505.440    509.875    505.440
 62.870    671.000    707.060    -36.060    505.546    703.002    505.546    509.619    505.546
 62.970    675.762    645.396     30.366    505.651    641.628    505.651    509.429    505.651
 63.070    605.477    606.272     -0.795    505.757    602.742    505.757    509.292    505.757
 63.170    589.000    583.230      5.770    505.863    579.897    505.863    509.197    505.863
 63.270    607.342    570.685     36.657    505.970    567.519    505.970    509.133    505.970
 63.370    583.000    564.766     18.234    506.076    561.745    506.076    509.093    506.076
 63.470    617.000    563.405     53.595    506.183    560.511    506.183    509.071    506.183
 63.570    558.978    566.097     -7.119    506.290    563.315    506.290    509.063    506.290
 63.670    550.000    573.612    -23.612    506.397    570.929    506.397    509.067    506.397
 63.770    546.970    587.725    -40.755    506.504    585.130    506.504    509.080    506.504
 63.870    643.000    610.856     32.144    506.611    608.337    506.611    509.102    506.611
 63.970    673.000    645.458     27.542    506.719    643.004    506.719    509.131    506.719
 64.070    734.476    693.113     41.362    506.826    690.715    506.826    509.166    506.826
 64.170    751.000    753.436     -2.436    506.934    751.085    506.934    509.207    506.934
 64.270    831.000    823.026      7.974    507.042    820.717    507.042    509.254    507.042
 64.370    938.000    894.802     43.198    507.150    892.533    507.150    509.305    507.150
 64.470    969.000    958.225     10.775    507.258    956.000    507.258    509.360    507.258
 64.570    977.924   1001.513    -23.589    507.366    999.340    507.366    509.420    507.366
 64.670   1023.000   1016.237      6.763    507.474   1014.122    507.474    509.483    507.474
 64.770   1026.367   1001.085     25.282    507.582    999.035    507.582    509.550    507.582
 64.870    939.000    961.418    -22.418    507.690    959.433    507.690    509.620    507.690
 64.970    859.639    906.360    -46.721    507.799    904.437    507.799    509.693    507.799
 65.070    799.000    845.785    -46.785    507.907    843.918    507.907    509.769    507.907
 65.170    823.579    787.638     35.941    508.015    785.817    508.015    509.848    508.015
 65.270    743.000    736.428      6.572    508.123    734.645    508.123    509.930    508.123
 65.370    686.000    693.503     -7.503    508.231    691.750    508.231    510.013    508.231
 65.470    673.000    658.461     14.539    508.340    656.730    508.340    510.100    508.340
 65.570    589.560    630.431    -40.871    508.448    628.716    508.448    510.188    508.448
 65.670    640.000    608.535     31.465    508.556    606.832    508.556    510.278    508.556
 65.770    629.909    591.898     38.011    508.664    590.205    508.664    510.371    508.664
 65.870    594.000    579.683     14.317    508.772    577.999    508.772    510.465    508.772
 65.970    535.000    571.133    -36.133    508.880    569.456    508.880    510.562    508.880
 66.070    554.000    565.581    -11.581    508.988    563.911    508.988    510.660    508.988
 66.170    529.000    562.452    -33.452    509.096    560.788    509.096    510.760    509.096
 66.270    551.612    561.266     -9.654    509.203    559.607    509.203    510.862    509.203
 66.370    527.626    561.667    -34.041    509.311    560.013    509.311    510.966    509.311
 66.470    536.423    563.462    -27.039    509.418    561.810    509.418    511.071    509.418
 66.570    561.301    566.682     -5.382    509.525    565.030    509.525    511.179    509.525
 66.670    554.017    571.695    -17.678    509.632    570.042    509.632    511.288    509.632
 66.770    600.641    579.405     21.236    509.739    577.748    509.739    511.398    509.739
 66.870    598.000    591.591      6.409    509.846    589.928    509.846    511.511    509.846
 66.970    541.000    611.380    -70.380    509.953    609.707    509.953    511.625    509.953
 67.070    621.000    643.755    -22.755    510.059    642.071    510.059    511.742    510.059
 67.170    671.000    695.871    -24.871    510.165    694.172    510.165    511.860    510.165
 67.270    749.000    776.777    -27.777    510.271    775.060    510.271    511.980    510.271
 67.370    897.000    896.136      0.864    510.377    894.399    510.377    512.102    510.377
 67.470   1034.795   1061.693    -26.898    510.483   1059.939    510.483    512.226    510.483
 67.570   1229.000   1275.732    -46.732    510.588   1273.966    510.588    512.352    510.588
 67.670   1528.070   1531.303     -3.233    510.693   1529.534    510.693    512.481    510.693
 67.770   1781.352   1809.349    -27.997    510.798   1807.589    510.798    512.612    510.798
 67.870   2077.000   2077.787     -0.787    510.903   2076.051    510.903    512.746    510.903
 67.970   2239.165   2294.028    -54.864    511.007   2292.328    511.007    512.882    511.007
 68.070   2329.000   2413.943    -84.943    511.111   2412.281    511.111    513.022    511.111
 68.170   2439.000   2408.593     30.407    511.214   2406.956    511.214    513.164    511.214
 68.270   2289.000   2279.455      9.545    511.318   2277.812    511.318    513.310    511.318
 68.370   2106.000   2057.495     48.505    511.421   2055.808    511.421    513.459    511.421
 68.470   1853.000   1787.205     65.795    511.524   1785.441    511.524    513.612    511.524
 68.570   1512.575   1510.470      2.105    511.626   1508.604    511.626    513.769    511.626
 68.670   1324.864   1258.297     66.566    511.728   1256.317    511.728    513.931    511.728
 68.770   1036.000   1048.654    -12.654    511.830   1046.554    511.830    514.098    511.830
 68.870    851.113    887.583    -36.470    511.931    885.366    511.931    514.269    511.931
 68.970    751.810    772.200    -20.390    512.032    769.868    512.032    514.447    512.032
 69.070    700.000    694.478      5.522    512.132    692.033    512.132    514.632    512.132
 69.170    653.000    644.733      8.267    512.232    642.177    512.232    514.824    512.232
 69.270    654.000    614.042     39.958    512.332    611.373    512.332    515.024    512.332
 69.370    634.000    595.427     38.573    512.431    592.642    512.431    515.232    512.431
 69.470    601.000    584.060     16.940    512.530    581.150    512.530    515.451    512.530
 69.570    620.050    576.913     43.137    512.629    573.869    512.629    515.681    512.629
 69.670    571.205    572.241     -1.036    512.727    569.051    512.727    515.923    512.727
 69.770    599.023    569.099     29.923    512.824    565.749    512.824    516.179    512.824
 69.870    571.000    567.004      3.996    512.921    563.478    512.921    516.451    512.921
 69.970    555.000    565.715    -10.715    513.018    561.995    513.018    516.740    513.018
 70.070    561.056    565.120     -4.065    513.114    561.187    513.114    517.049    513.114
 70.170    559.000    565.187     -6.187    513.209    561.016    513.209    517.382    513.209
 70.270    589.000    565.945     23.055    513.305    561.509    513.305    517.740    513.305
 70.370    601.494    567.508     33.987    513.399    562.776    513.399    518.129    513.399
 70.470    514.000    570.127    -56.127    513.493    565.065    513.493    518.554    513.493
 70.570    549.000    574.297    -25.297    513.587    568.860    513.587    519.019    513.587
 70.670    623.000    580.914     42.086    513.680    575.054    513.680    519.533    513.680
 70.770    610.000    591.512     18.488    513.772    585.168    513.772    520.106    513.772
 70.870    552.000    608.520    -56.520    513.864    601.616    513.864    520.752    513.864
 70.970    583.000    635.494    -52.494    513.955    627.931    513.955    521.492    513.955
 71.070    639.000    677.134    -38.134    514.046    668.783    514.046    522.357    514.046
 71.170    715.453    738.944    -23.490    514.136    729.624    514.136    523.399    514.136
 71.270    836.000    826.346      9.654    514.225    815.797    514.225    524.695    514.225
 71.370    905.000    943.227    -38.227    514.314    931.068    514.314    526.366    514.314
 71.470   1102.000   1090.091     11.909    514.403   1075.763    514.403    528.595    514.403
 71.570   1276.000   1262.253     13.747    514.490   1244.942    514.490    531.638    514.490
 71.670   1432.000   1448.538    -16.538    514.577   1427.086    514.577    535.846    514.577
 71.770   1651.227   1630.949     20.278    514.664   1603.763    514.664    541.656    514.664
 71.870   1824.000   1785.876     38.124    514.749   1750.863    514.749    549.575    514.749
 71.970   1857.000   1888.150    -31.150    514.834   1842.697    514.834    560.123    514.834
 72.070   1926.000   1918.940      7.060    514.919   1859.980    514.919    573.751    514.919
 72.170   1874.000   1874.453     -0.453    515.002   1798.647    515.002    590.720    515.002
 72.270   1762.023   1768.076     -6.052    515.085   1672.139    515.085    610.969    515.085
 72.370   1676.000   1623.490     52.510    515.168   1504.650    515.168    633.982    515.168
 72.470   1399.828   1465.229    -65.401    515.249   1321.816    515.249    658.654    515.249
 72.570   1247.186   1312.673    -65.487    515.330   1144.822    515.330    683.184    515.330
 72.670   1166.000   1177.790    -11.790    515.410    988.174    515.410    705.032    515.410
 72.770   1025.352   1065.157    -39.806    515.490    859.508    515.490    721.145    515.490
 72.870    966.000    973.649     -7.649    515.568    760.544    515.568    728.677    515.568
 72.970    953.127    899.222     53.905    515.646    688.755    515.646    726.114    515.646
 73.070    769.000    837.578    -68.578    515.723    639.278    515.723    714.023    515.723
 73.170    763.000    785.528    -22.528    515.800    606.579    515.800    694.748    515.800
 73.270    689.000    741.080    -52.080    515.875    585.608    515.875    671.346    515.875
 73.370    679.000    703.070    -24.070    515.950    572.372    515.950    646.648    515.950
 73.470    635.000    670.838    -35.838    516.024    564.048    516.024    622.815    516.024
 73.570    604.000    644.011    -40.011    516.097    558.830    516.097    601.280    516.097
 73.670    598.000    622.321    -24.321    516.169    555.661    516.169    582.833    516.169
 73.770    592.000    605.469    -13.469    516.241    553.976    516.241    567.742    516.241
 73.870    569.000    593.046    -24.046    516.312    553.483    516.312    555.885    516.312
 73.970    639.000    584.507     54.493    516.382    554.012    516.382    546.890    516.382
 74.070    596.000    579.192     16.808    516.451    555.402    516.451    540.260    516.451
 74.170    589.625    576.365     13.261    516.519    557.435    516.519    535.473    516.519
 74.270    625.000    575.238     49.762    516.586    559.801    516.586    532.054    516.586
 74.370    619.000    575.008     43.992    516.653    562.088    516.653    529.610    516.653
 74.470    635.000    574.893     60.107    516.718    563.815    516.718    527.838    516.718
 74.570    526.087    574.216    -48.130    516.783    564.521    516.783    526.523    516.783
 74.670    597.008    572.540     24.468    516.847    563.916    516.847    525.516    516.847
 74.770    531.469    569.778    -38.309    516.909    562.012    516.909    524.719    516.909
 74.870    564.919    566.183     -1.264    516.971    559.124    516.971    524.069    516.971
 74.970    632.000    562.206     69.794    517.032    555.745    517.032    523.527    517.032
 75.070    607.029    558.362     48.668    517.093    552.414    517.093    523.067    517.093
 75.170    590.000    555.148     34.852    517.152    549.648    517.152    522.672    517.152
 75.270    559.000    553.038      5.962    517.210    547.932    517.210    522.329    517.210
 75.370    611.000    552.498     58.502    517.267    547.742    517.267    522.031    517.267
 75.470    543.335    554.012    -10.676    517.324    549.567    517.324    521.770    517.324
 75.570    563.341    558.089      5.251    517.379    553.924    517.379    521.541    517.379
 75.670    550.000    565.243    -15.243    517.433    561.327    517.433    521.340    517.433
 75.770    616.670    575.904     40.766    517.487    572.212    517.487    521.162    517.487
 75.870    606.000    590.291     15.709    517.539    586.801    517.539    521.006    517.539
 75.970    646.000    608.244     37.756    517.591    604.936    517.591    520.868    517.591
 76.070    635.000    629.068      5.932    517.641    625.924    517.641    520.745    517.641
 76.170    677.566    651.422     26.144    517.690    648.428    517.690    520.637    517.690
 76.270    661.168    673.297    -12.129    517.739    670.440    517.739    520.541    517.739
 76.370    714.976    692.108     22.868    517.786    689.379    517.786    520.456    517.786
 76.470    691.000    705.028    -14.028    517.833    702.419    517.833    520.380    517.833
 76.570    672.635    709.684    -37.049    517.878    707.189    517.878    520.313    517.878
 76.670    726.000    705.085     20.915    517.922    702.700    517.922    520.254    517.922
 76.770    649.000    692.104    -43.104    517.965    689.823    517.965    520.202    517.965
 76.870    646.000    673.039    -27.039    518.007    670.856    518.007    520.155    518.007
 76.970    669.000    650.699     18.301    518.049    648.606    518.049    520.114    518.049
 77.070    672.625    627.672     44.953    518.089    625.663    518.089    520.077    518.089
 77.170    550.000    605.983    -55.983    518.127    604.051    518.127    520.045    518.127
 77.270    551.000    586.970    -35.970    518.165    585.110    518.165    520.017    518.165
 77.370    568.372    571.308     -2.936    518.202    569.513    518.202    519.991    518.202
 77.470    524.481    559.104    -34.623    518.238    557.368    518.238    519.969    518.238
 77.570    513.567    550.059    -36.492    518.272    548.379    518.272    519.950    518.272
 77.670    554.932    543.645     11.286    518.306    542.016    518.306    519.933    518.306
 77.770    540.000    539.262      0.738    518.338    537.681    518.338    519.918    518.338
 77.870    571.861    536.347     35.514    518.369    534.810    518.369    519.905    518.369
 77.970    507.000    534.436    -27.436    518.399    532.940    518.399    519.894    518.399
 78.070    539.000    533.181      5.819    518.428    531.724    518.428    519.884    518.428
 78.170    504.000    532.326    -28.326    518.456    530.906    518.456    519.875    518.456
 78.270    497.000    531.732    -34.732    518.482    530.346    518.482    519.868    518.482
 78.370    492.000    531.339    -39.339    518.508    529.985    518.508    519.862    518.508
 78.470    496.000    531.076    -35.076    518.532    529.752    518.532    519.856    518.532
 78.570    550.668    530.916     19.752    518.555    529.619    518.555    519.852    518.555
 78.670    488.252    530.859    -42.607    518.577    529.587    518.577    519.849    518.577
 78.770    509.000    530.912    -21.912    518.598    529.664    518.598    519.846    518.598
 78.870    502.000    531.094    -29.094    518.618    529.866    518.618    519.845    518.618
 78.970    491.000    531.429    -40.429    518.636    530.219    518.636    519.845    518.636
 79.070    496.972    531.950    -34.978    518.653    530.755    518.653    519.847    518.653
 79.170    560.315    532.687     27.628    518.669    531.504    518.669    519.851    518.669
 79.270    552.000    533.673     18.327    518.684    532.497    518.684    519.858    518.684
 79.370    550.000    534.934     15.066    518.698    533.761    518.698    519.868    518.698
 79.470    495.000    536.497    -41.497    518.710    535.320    518.710    519.883    518.710
 79.570    501.000    538.389    -37.389    518.721    537.203    518.721    519.903    518.721
 79.670    496.000    540.655    -44.655    518.731    539.453    518.731    519.929    518.731
 79.770    538.273    543.374     -5.101    518.740    542.148    518.740    519.961    518.740
 79.870    470.000    546.677    -76.677    518.747    545.419    518.747    520.000    518.747
 79.970    550.000    550.779     -0.779    518.753    549.482    518.753    520.045    518.753
 80.070    544.000    556.001    -12.001    518.758    554.660    518.758    520.095    518.758
 80.170    561.000    562.776     -1.776    518.762    561.386    518.762    520.149    518.762
 80.270    594.806    571.596     23.210    518.764    570.156    518.764    520.204    518.764
 80.370    608.000    582.914     25.086    518.765    581.426    518.765    520.255    518.765
 80.470    580.000    597.024    -17.024    518.765    595.497    518.765    520.298    518.765
 80.570    545.000    613.950    -68.950    518.764    612.397    518.764    520.327    518.764
 80.670    591.000    633.360    -42.360    518.761    631.800    518.761    520.336    518.761
 80.770    629.341    654.523    -25.183    518.757    652.979    518.757    520.323    518.757
 80.870    701.678    676.336     25.342    518.752    674.829    518.752    520.287    518.752
 80.970    720.000    697.439     22.561    518.746    695.987    518.746    520.232    518.746
 81.070    705.527    716.417    -10.890    518.738    715.034    518.738    520.162    518.738
 81.170    698.788    731.992    -33.204    518.729    730.685    518.729    520.083    518.729
 81.270    767.000    743.136     23.864    518.718    741.908    518.718    520.001    518.718
 81.370    809.000    749.152     59.848    518.706    748.000    518.706    519.919    518.706
 81.470    784.000    749.749     34.251    518.693    748.667    518.693    519.840    518.693
 81.570    740.000    745.053     -5.053    518.679    744.034    518.679    519.766    518.679
 81.670    744.601    735.561      9.040    518.663    734.596    518.663    519.698    518.663
 81.770    725.000    722.113      2.887    518.646    721.193    518.646    519.636    518.646
 81.870    705.628    705.860     -0.232    518.628    704.977    518.628    519.580    518.628
 81.970    715.000    688.107     26.893    518.609    687.253    518.609    519.529    518.609
 82.070    702.000    670.039     31.961    518.588    669.207    518.588    519.483    518.588
 82.170    659.000    652.504      6.496    518.565    651.689    518.565    519.440    518.565
 82.270    643.000    635.969      7.031    518.542    635.166    518.542    519.400    518.542
 82.370    642.000    620.624     21.376    518.517    619.830    518.517    519.361    518.517
 82.470    592.595    606.556    -13.961    518.490    605.767    518.490    519.324    518.490
 82.570    591.359    593.873     -2.513    518.463    593.087    518.463    519.288    518.463
 82.670    560.908    582.731    -21.823    518.434    581.946    518.434    519.251    518.434
 82.770    566.000    573.298     -7.298    518.403    572.513    518.403    519.215    518.403
 82.870    580.000    565.721     14.279    518.371    564.933    518.371    519.178    518.371
 82.970    604.283    560.106     44.177    518.338    559.316    518.338    519.140    518.338
 83.070    550.000    556.512     -6.512    518.304    555.719    518.304    519.102    518.304
 83.170    543.533    554.928    -11.395    518.268    554.131    518.268    519.063    518.268
 83.270    540.000    555.257    -15.257    518.231    554.455    518.231    519.023    518.231
 83.370    589.102    557.293     31.809    518.192    556.487    518.192    518.982    518.192
 83.470    531.000    560.715    -29.715    518.152    559.903    518.152    518.940    518.152
 83.570    536.000    565.082    -29.082    518.111    564.265    518.111    518.897    518.111
 83.670    610.259    569.849     40.410    518.068    569.028    518.068    518.853    518.068
 83.770    565.000    574.391     -9.391    518.024    573.566    518.024    518.809    518.024
 83.870    567.000    578.054    -11.054    517.979    577.226    517.979    518.763    517.979
 83.970    595.000    580.237     14.763    517.932    579.409    517.932    518.716    517.932
 84.070    600.516    580.519     19.997    517.884    579.692    517.884    518.667    517.884
 84.170    541.000    578.775    -37.775    517.834    577.949    517.834    518.618    517.834
 84.270    579.000    575.201      3.799    517.783    574.379    517.783    518.568    517.783
 84.370    535.000    570.241    -35.241    517.731    569.422    517.731    518.517    517.731
 84.470    587.245    564.441     22.804    517.677    563.627    517.677    518.464    517.677
 84.570    563.241    558.342      4.899    517.622    557.531    517.622    518.411    517.622
 84.670    521.000    552.402    -31.402    517.565    551.593    517.565    518.356    517.565
 84.770    555.000    546.967      8.033    517.507    546.160    517.507    518.300    517.507
 84.870    560.231    542.259     17.972    517.448    541.452    517.448    518.243    517.448
 84.970    496.505    538.381    -41.876    517.387    537.575    517.387    518.185    517.387
 85.070    530.000    535.340     -5.340    517.325    534.532    517.325    518.126    517.325
 85.170    526.000    533.072     -7.072    517.262    532.262    517.262    518.066    517.262
 85.270    539.000    531.473      7.527    517.197    530.660    517.197    518.005    517.197
 85.370    529.000    530.430     -1.430    517.130    529.614    517.130    517.942    517.130
 85.470    537.000    529.839      7.161    517.062    529.019    517.062    517.879    517.062
 85.570    561.882    529.625     32.257    516.993    528.799    516.993    517.814    516.993
 85.670    527.000    529.744     -2.744    516.923    528.913    516.923    517.748    516.923
 85.770    539.052    530.195      8.857    516.851    529.359    516.851    517.682    516.851
 85.870    497.767    531.022    -33.255    516.778    530.179    516.778    517.614    516.778
 85.970    513.877    532.310    -18.433    516.703    531.459    516.703    517.545    516.703
 86.070    546.000    534.187     11.813    516.627    533.327    516.627    517.475    516.627
 86.170    567.000    536.818     30.182    516.549    535.948    516.549    517.404    516.549
 86.270    537.000    540.392     -3.392    516.470    539.511    516.470    517.332    516.470
 86.370    550.637    545.103      5.534    516.390    544.208    516.390    517.258    516.390
 86.470    562.000    551.119     10.881    516.308    550.209    516.308    517.184    516.308
 86.570    558.030    558.547     -0.517    516.225    557.621    516.225    517.109    516.225
 86.670    536.000    567.391    -31.391    516.140    566.446    516.140    517.033    516.140
 86.770    554.000    577.511    -23.511    516.054    576.546    516.054    516.956    516.054
 86.870    557.397    588.592    -31.195    515.967    587.605    515.967    516.878    515.967
 86.970    611.834    600.124     11.710    515.878    599.116    515.878    516.799    515.878
 87.070    629.000    611.401     17.599    515.788    610.372    515.788    516.719    515.788
 87.170    646.000    621.585     24.415    515.696    620.536    515.696    516.638    515.696
 87.270    646.261    629.748     16.513    515.604    628.682    515.604    516.557    515.604
 87.370    694.000    635.014     58.986    515.509    633.935    515.509    516.474    515.509
 87.470    661.348    636.783     24.565    515.414    635.694    515.414    516.391    515.414
 87.570    635.188    634.899      0.289    515.316    633.804    515.316    516.307    515.316
 87.670    714.000    629.700     84.300    515.218    628.601    515.218    516.222    515.218
 87.770    634.000    621.906     12.094    515.118    620.806    515.118    516.137    515.118
 87.870    588.000    612.446    -24.446    515.017    611.343    515.017    516.051    515.017
 87.970    637.000    602.297     34.703    514.914    601.192    514.914    515.964    514.914
 88.070    601.000    592.381      8.619    514.810    591.272    514.810    515.877    514.810
 88.170    646.000    583.495     62.505    514.705    582.380    514.705    515.789    514.705
 88.270    609.332    576.264     33.068    514.598    575.141    514.598    515.701    514.598
 88.370    617.882    571.118     46.765    514.490    569.985    514.490    515.612    514.490
 88.470    554.127    568.285    -14.158    514.380    567.140    514.380    515.523    514.380
 88.570    600.113    567.795     32.319    514.269    566.636    514.269    515.434    514.269
 88.670    609.000    569.494     39.506    514.157    568.321    514.157    515.344    514.157
 88.770    555.000    573.065    -18.065    514.043    571.875    514.043    515.255    514.043
 88.870    596.921    578.046     18.875    513.928    576.838    513.928    515.165    513.928
 88.970    549.098    583.857    -34.759    513.812    582.629    513.812    515.076    513.812
 89.070    555.083    589.829    -34.747    513.694    588.580    513.694    514.987    513.694
 89.170    618.000    595.244     22.756    513.575    593.971    513.575    514.899    513.575
 89.270    592.000    599.392     -7.392    513.455    598.093    513.455    514.810    513.455
 89.370    580.000    601.666    -21.666    513.333    600.337    513.333    514.723    513.333
 89.470    591.000    601.677    -10.677    513.210    600.314    513.210    514.637    513.210
 89.570    624.909    599.343     25.566    513.085    597.940    513.085    514.551    513.085
 89.670    567.000    594.896    -27.896    512.960    593.450    512.960    514.467    512.960
 89.770    571.000    588.801    -17.801    512.832    587.306    512.832    514.385    512.832
 89.870    576.040    581.633     -5.593    512.704    580.085    512.704    514.304    512.704
 89.970    571.000    573.970     -2.970    512.574    572.364    512.574    514.226    512.574
 90.070    585.614    566.325     19.289    512.443    564.657    512.443    514.150    512.443
 90.170    527.740    559.112    -31.372    512.311    557.378    512.311    514.077    512.311
 90.270    535.000    552.627    -17.627    512.177    550.822    512.177    514.008    512.177
 90.370    508.125    547.051    -38.926    512.042    545.169    512.042    513.944    512.042
 90.470    538.000    542.457     -4.457    511.906    540.494    511.906    513.885    511.906
 90.570    539.000    538.834      0.166    511.768    536.781    511.768    513.832    511.768
 90.670    542.605    536.109      6.496    511.629    533.958    511.629    513.788    511.629
 90.770    506.000    534.174    -28.174    511.489    531.915    511.489    513.754    511.489
 90.870    554.575    532.913     21.662    511.347    530.531    511.347    513.733    511.347
 90.970    500.000    532.218    -32.218    511.205    529.694    511.205    513.730    511.205
 91.070    516.000    532.005    -16.005    511.061    529.317    511.061    513.749    511.061
 91.170    545.000    532.225     12.775    510.915    529.342    510.915    513.798    510.915
 91.270    564.006    532.864     31.142    510.769    529.746    510.769    513.885    510.769
 91.370    557.000    533.923     23.077    510.621    530.517    510.621    514.024    510.621
 91.470    559.000    535.547     23.453    510.472    531.786    510.472    514.230    510.472
 91.570    544.000    537.854      6.146    510.322    533.652    510.322    514.519    510.322
 91.670    538.791    541.005     -2.214    510.170    536.254    510.170    514.914    510.170
 91.770    501.710    545.203    -43.492    510.017    539.773    510.017    515.437    510.017
 91.870    527.000    550.685    -23.685    509.863    544.420    509.863    516.116    509.863
 91.970    544.854    557.702    -12.849    509.708    550.417    509.708    516.978    509.708
 92.070    568.000    566.493      1.507    509.552    557.977    509.552    518.048    509.552
 92.170    605.222    577.262     27.961    509.394    567.281    509.394    519.349    509.394
 92.270    616.000    590.145     25.855    509.235    578.449    509.235    520.900    509.235
 92.370    597.549    605.183     -7.634    509.075    591.514    509.075    522.707    509.075
 92.470    658.218    622.295     35.923    508.914    606.398    508.914    524.767    508.914
 92.570    662.000    641.252     20.748    508.752    622.891    508.752    527.062    508.752
 92.670    675.000    661.668     13.332    508.588    640.643    508.588    529.555    508.588
 92.770    669.000    682.989    -13.989    508.423    659.160    508.423    532.189    508.423
 92.870    721.000    704.514     16.486    508.258    677.820    508.258    534.883    508.258
 92.970    682.000    725.454    -43.454    508.091    695.942    508.091    537.530    508.091
 93.070    711.000    745.030    -34.030    507.922    712.882    507.922    539.995    507.922
 93.170    789.000    762.585     26.415    507.753    728.140    507.753    542.123    507.753
 93.270    861.000    777.723     83.277    507.583    741.486    507.583    543.745    507.583
 93.370    756.000    790.339    -34.339    507.411    752.968    507.411    544.708    507.411
 93.470    804.000    800.579      3.421    507.239    762.843    507.239    544.903    507.239
 93.570    855.694    808.760     46.934    507.065    771.461    507.065    544.294    507.065
 93.670    865.000    815.308     49.692    506.890    779.202    506.890    542.928    506.890
 93.770    823.000    820.740      2.260    506.714    786.467    506.714    540.923    506.714
 93.870    895.000    825.678     69.322    506.537    793.717    506.537    538.436    506.537
 93.970    821.000    830.826     -9.826    506.359    801.491    506.359    535.635    506.359
 94.070    826.000    836.874    -10.874    506.180    810.322    506.180    532.673    506.180
 94.170    862.000    844.322     17.678    506.000    820.583    506.000    529.683    506.000
 94.270    814.000    853.310    -39.310    505.819    832.308    505.819    526.766    505.819
 94.370    840.812    863.497    -22.684    505.636    845.081    505.636    524.000    505.636
 94.470    895.000    874.042     20.958    505.453    858.006    505.453    521.441    505.453
 94.570    863.986    883.669    -19.683    505.269    869.773    505.269    519.120    505.269
 94.670    935.000    890.806     44.194    505.084    878.795    505.084    517.056    505.084
 94.770    889.318    893.817     -4.499    504.897    883.435    504.897    515.249    504.897
 94.870    908.000    891.310     16.690    504.710    882.307    504.710    513.690    504.710
 94.970    862.904    882.461    -19.557    504.522    874.608    504.522    512.362    504.522
 95.070    918.000    867.242     50.758    504.333    860.331    504.333    511.240    504.333
 95.170    908.000    846.437     61.563    504.143    840.284    504.143    510.298    504.143
 95.270    867.000    821.466     45.534    503.952    815.916    503.952    509.510    503.952
 95.370    817.292    794.136     23.156    503.760    789.057    503.760    508.849    503.760
 95.470    816.000    766.392     49.608    503.567    761.679    503.567    508.293    503.567
 95.570    777.000    740.151     36.849    503.373    735.716    503.373    507.821    503.373
 95.670    721.444    717.249      4.194    503.178    713.024    503.178    507.415    503.178
 95.770    702.467    699.306      3.161    502.983    695.236    502.983    507.061    502.983
 95.870    693.305    687.734      5.571    502.786    683.775    502.786    506.747    502.786
 95.970    716.000    683.738     32.262    502.589    679.856    502.589    506.466    502.589
 96.070    675.000    688.316    -13.316    502.391    684.483    502.391    506.211    502.391
 96.170    658.000    702.266    -44.266    502.192    698.460    502.192    505.976    502.192
 96.270    767.870    726.170     41.700    501.992    722.372    501.992    505.758    501.992
 96.370    727.000    760.355    -33.355    501.791    756.550    501.791    505.555    501.791
 96.470    802.000    804.820     -2.820    501.590    800.994    501.590    505.362    501.590
 96.570    885.000    859.142     25.858    501.388    855.282    501.388    505.183    501.388
 96.670    956.000    922.374     33.626    501.185    918.469    501.185    505.016    501.185
 96.770    955.000    992.957    -37.957    500.981    988.996    500.981    504.859    500.981
 96.870   1008.257   1068.645    -60.388    500.777   1064.619    500.777    504.713    500.777
 96.970   1096.000   1146.502    -50.502    500.571   1142.403    500.571    504.578    500.571
 97.070   1231.000   1222.935      8.065    500.365   1218.755    500.365    504.453    500.365
 97.170   1316.000   1293.815     22.185    500.159   1289.547    500.159    504.340    500.159
 97.270   1374.000   1354.721     19.279    499.951   1350.358    499.951    504.238    499.951
 97.370   1398.000   1401.365     -3.365    499.743   1396.896    499.743    504.149    499.743
 97.470   1452.000   1430.183     21.817    499.535   1425.600    499.535    504.074    499.535
 97.570   1490.000   1438.993     51.007    499.325   1434.283    499.325    504.013    499.325
 97.670   1386.000   1427.434    -41.434    499.115   1422.580    499.115    503.968    499.115
 97.770   1381.451   1396.983    -15.532    498.905   1391.965    498.905    503.942    498.905
 97.870   1421.000   1350.568     70.432    498.693   1345.361    498.693    503.937    498.693
 97.970   1319.000   1291.989     27.011    498.481   1286.564    498.481    503.956    498.481
 98.070   1236.076   1225.386     10.690    498.269   1219.709    498.269    504.005    498.269
 98.170   1187.000   1154.865     32.135    498.056   1148.894    498.056    504.090    498.056
 98.270   1055.000   1084.251    -29.251    497.842   1077.938    497.842    504.220    497.842
 98.370    977.847   1016.945    -39.099    497.628   1010.231    497.628    504.405    497.628
 98.470    933.000    955.852    -22.852    497.414    948.662    497.414    504.661    497.414
 98.570    904.000    903.355      0.645    497.198    895.596    497.198    505.007    497.198
 98.670    917.966    861.343     56.624    496.983    852.897    496.983    505.469    496.983
 98.770    810.000    831.255    -21.255    496.767    821.975    496.767    506.077    496.767
 98.870    827.000    814.155     12.845    496.550    803.854    496.550    506.871    496.550
 98.970    814.699    810.807      3.892    496.333    799.251    496.333    507.899    496.333
 99.070    830.000    821.733      8.267    496.116    808.633    496.116    509.216    496.116
 99.170    850.000    847.235      2.765    495.898    832.239    495.898    510.887    495.898
 99.270    889.000    887.444      1.556    495.679    870.126    495.679    512.984    495.679
 99.370    935.000    942.211     -7.211    495.461    922.071    495.461    515.584    495.461
 99.470    976.000   1011.056    -35.056    495.242    987.512    495.242    518.766    495.242
 99.570   1122.173   1093.081     29.091    495.022   1065.477    495.022    522.608    495.022
 99.670   1163.000   1186.874    -23.874    494.803   1154.481    494.803    527.181    494.803
 99.770   1306.083   1290.409     15.674    494.583   1252.445    494.583    532.541    494.583
 99.870   1379.000   1400.989    -21.989    494.362   1356.635    494.362    538.724    494.362
 99.970   1501.000   1515.232    -14.232    494.142   1463.660    494.142    545.737    494.142
100.070   1591.000   1629.138    -38.138    493.921   1569.550    493.921    553.552    493.921
100.170   1812.005   1738.293     73.712    493.700   1669.962    493.700    562.099    493.700
100.270   1871.434   1838.199     33.235    493.478   1760.514    493.478    571.259    493.478
100.370   1941.000   1924.676     16.324    493.257   1837.200    493.257    580.856    493.257
100.470   2002.000   1994.213      7.787    493.035   1896.741    493.035    590.659    493.035
100.570   2101.429   2044.127     57.302    492.813   1936.748    492.813    600.370    492.813
100.670   2008.146   2072.546    -64.401    492.591   1955.710    492.591    609.627    492.591
100.770   2027.818   2078.369    -50.551    492.369   1952.944    492.369    618.013    492.369
100.870   2119.000   2061.353     57.647    492.146   1928.662    492.146    625.070    492.146
100.970   2053.000   2022.373     30.627    491.924   1884.190    491.924    630.347    491.924
101.070   1975.172   1963.660     11.512    491.701   1822.151    491.701    633.454    491.701
101.170   1862.000   1888.818    -26.818    491.479   1746.405    491.479    634.131    491.479
101.270   1738.606   1802.494    -63.888    491.256   1661.675    491.256    632.306    491.256
101.370   1615.000   1709.822    -94.822    491.034   1572.965    491.034    628.109    491.034
101.470   1619.000   1615.828      3.172    490.811   1484.998    490.811    621.843    490.811
101.570   1475.865   1524.957    -49.091    490.588   1401.807    490.588    613.922    490.588
101.670   1498.000   1440.764     57.236    490.366   1326.489    490.366    604.808    490.366
101.770   1350.000   1365.765    -15.765    490.143   1261.109    490.143    594.948    490.143
101.870   1363.590   1301.386     62.204    489.921   1206.692    489.921    584.748    489.921
101.970   1204.123   1248.007    -43.884    489.698   1163.276    489.698    574.549    489.698
102.070   1175.000   1205.048    -30.048    489.476   1130.003    489.476    564.629    489.476
102.170   1180.766   1171.114      9.653    489.254   1105.261    489.254    555.206    489.254
102.270   1154.000   1144.168      9.832    489.032   1086.859    489.032    546.436    489.032
102.370   1129.218   1121.762      7.456    488.810   1072.240    488.810    538.423    488.810
102.470   1125.000   1101.302     23.698    488.589   1058.756    488.589    531.225    488.589
102.570   1100.000   1080.372     19.628    488.368   1043.970    488.368    524.860    488.368
102.670   1046.064   1057.035    -10.970    488.147   1025.962    488.147    519.310    488.147
102.770   1014.000   1030.068    -16.068    487.926   1003.552    487.926    514.533    487.926
102.870   1001.000    999.041      1.959    487.705    976.369    487.705    510.469    487.705
102.970    889.000    964.226    -75.226    487.485    944.758    487.485    507.043    487.485
103.070    935.268    926.405      8.863    487.265    909.580    487.265    504.177    487.265
103.170    868.500    886.649    -18.149    487.046    871.985    487.046    501.792    487.046
103.270    879.000    846.133     32.867    486.827    833.225    486.827    499.811    486.827
103.370    780.000    806.007    -26.007    486.608    794.519    486.608    498.166    486.608
103.470    777.000    767.308      9.692    486.390    756.967    486.390    496.793    486.390
103.570    740.000    730.902      9.098    486.172    721.489    486.172    495.640    486.172
103.670    665.345    697.455    -32.110    485.955    688.796    485.955    494.662    485.955
103.770    653.942    667.415    -13.473    485.738    659.374    485.738    493.821    485.738
103.870    665.000    641.018     23.982    485.522    633.486    485.522    493.088    485.522
103.970    597.102    618.303    -21.201    485.306    611.198    485.306    492.439    485.306
104.070    620.000    599.151     20.849    485.091    592.407    485.091    491.858    485.091
104.170    615.549    583.322     32.227    484.876    576.887    484.876    491.329    484.876
104.270    580.000    570.484      9.516    484.662    564.318    484.662    490.843    484.662
104.370    567.860    560.263      7.597    484.449    554.332    484.449    490.391    484.449
104.470    582.000    552.291     29.709    484.236    546.568    484.236    489.968    484.236
104.570    504.611    546.202    -41.591    484.024    540.663    484.024    489.568    484.024
104.670    562.698    541.666     21.032    483.813    536.292    483.813    489.190    483.813
104.770    516.573    538.403    -21.830    483.602    533.178    483.602    488.829    483.602
104.870    572.547    536.188     36.359    483.393    531.096    483.393    488.485    483.393
104.970    585.000    534.849     50.151    483.184    529.877    483.184    488.155    483.184
105.070    562.000    534.269     27.731    482.976    529.403    482.976    487.838    482.976
105.170    553.000    534.378     18.622    482.768    529.608    482.768    487.534    482.768
105.270    520.691    535.154    -14.463    482.562    530.469    482.562    487.241    482.562
105.370    536.000    536.613     -0.613    482.357    532.004    482.357    486.958    482.357
105.470    586.000    538.805     47.195    482.152    534.263    482.152    486.686    482.152
105.570    531.503    541.809    -10.306    481.948    537.325    481.948    486.422    481.948
105.670    547.000    545.719      1.281    481.746    541.285    481.746    486.168    481.746
105.770    575.000    550.638     24.362    481.544    546.245    481.544    485.921    481.544
105.870    522.934    556.656    -33.722    481.344    552.298    481.344    485.683    481.344
105.970    565.972    563.839      2.133    481.144    559.509    481.144    485.453    481.144
106.070    580.000    572.217      7.783    480.946    567.909    480.946    485.230    480.946
106.170    609.313    581.768     27.545    480.748    577.475    480.748    485.014    480.748
106.270    600.000    592.410      7.590    480.552    588.126    480.552    484.806    480.552
106.370    610.000    603.993      6.007    480.357    599.713    480.357    484.604    480.357
106.470    634.480    616.300     18.180    480.163    612.019    480.163    484.409    480.163
106.570    640.814    629.048     11.765    479.971    624.760    479.971    484.220    479.971
106.670    619.000    641.893    -22.893    479.780    637.593    479.780    484.038    479.780
106.770    645.000    654.441     -9.441    479.590    650.126    479.590    483.863    479.590
106.870    627.000    666.272    -39.272    479.401    661.936    479.401    483.694    479.401
106.970    669.000    676.957     -7.957    479.214    672.597    479.214    483.531    479.214
107.070    660.333    686.105    -25.772    479.028    681.716    479.028    483.375    479.028
107.170    740.145    693.406     46.739    478.843    688.984    478.843    483.226    478.843
107.270    684.000    698.685    -14.685    478.660    694.225    478.660    483.083    478.660
107.370    661.000    701.940    -40.940    478.478    697.439    478.478    482.946    478.478
107.470    701.000    703.351     -2.351    478.298    698.803    478.298    482.817    478.298
107.570    692.366    703.252    -10.886    478.120    698.653    478.120    482.694    478.120
107.670    675.759    702.075    -26.316    477.943    697.419    477.943    482.578    477.943
107.770    643.000    700.284    -57.284    477.767    695.566    477.767    482.469    477.767
107.870    665.000    698.316    -33.316    477.593    693.530    477.593    482.368    477.593
107.970    699.000    696.537      2.463    477.421    691.677    477.421    482.274    477.421
108.070    664.000    695.209    -31.209    477.251    690.269    477.251    482.187    477.251
108.170    681.000    694.476    -13.476    477.082    689.449    477.082    482.109    477.082
108.270    681.000    694.352    -13.352    476.915    689.231    476.915    482.039    476.915
108.370    689.000    694.722     -5.722    476.749    689.502    476.749    481.978    476.749
108.470    660.000    695.355    -35.355    476.586    690.027    476.586    481.925    476.586
108.570    656.000    695.919    -39.919    476.424    690.475    476.424    481.882    476.424
108.670    660.373    696.011    -35.639    476.265    690.446    476.265    481.848    476.265
108.770    725.000    695.207     29.793    476.107    689.514    476.107    481.820    476.107
108.870    665.715    693.125    -27.410    475.951    687.292    475.951    481.807    475.951
108.970    704.000    689.465     14.535    475.797    683.482    475.797    481.805    475.797
109.070    677.448    684.070     -6.622    475.645    677.926    475.645    481.815    475.645
109.170    669.000    676.940     -7.940    475.495    670.626    475.495    481.837    475.495
109.270    683.988    668.228     15.760    475.348    661.730    475.348    481.872    475.348
109.370    691.000    658.195     32.805    475.202    651.503    475.202    481.921    475.202
109.470    696.239    647.179     49.060    475.058    640.278    475.058    481.985    475.058
109.570    635.850    635.542      0.308    474.917    628.419    474.917    482.064    474.917
109.670    668.633    623.648     44.986    474.778    616.288    474.778    482.160    474.778
109.770    623.043    611.834     11.209    474.641    604.222    474.641    482.273    474.641
109.870    595.579    600.373     -4.794    474.506    592.501    474.506    482.397    474.506
109.970    569.493    589.567    -20.074    474.374    581.407    474.374    482.550    474.374
110.070    599.000    579.631     19.369    474.244    571.161    474.244    482.728    474.244
110.170    587.000    570.694     16.306    474.116    561.891    474.116    482.931    474.116
110.270    577.000    562.850     14.150    473.991    553.688    473.991    483.163    473.991
110.370    581.612    556.145     25.468    473.869    546.594    473.869    483.427    473.869
110.470    511.751    550.580    -38.828    473.748    540.607    473.748    483.727    473.748
110.570    555.000    546.122      8.878    473.631    535.686    473.631    484.070    473.631
110.670    554.000    542.709     11.291    473.516    531.765    473.516    484.462    473.516
110.770    548.767    540.263      8.504    473.403    528.755    473.403    484.912    473.403
110.870    592.000    538.694     53.306    473.293    526.556    473.293    485.431    473.293
110.970    575.339    537.912     37.427    473.186    525.064    473.186    486.032    473.186
111.070    541.374    537.829      3.545    473.082    524.175    473.082    486.733    473.082
111.170    561.668    538.369     23.300    472.980    523.790    472.980    487.554    472.980
111.270    561.864    539.465     22.399    472.881    523.821    472.881    488.520    472.881
111.370    578.000    541.070     36.930    472.785    524.187    472.785    489.662    472.785
111.470    539.630    543.150     -3.519    472.692    524.819    472.692    491.016    472.692
111.570    546.000    545.689      0.311    472.602    525.659    472.602    492.624    472.602
111.670    584.981    548.690     36.291    472.514    526.660    472.514    494.537    472.514
111.770    596.575    552.175     44.400    472.430    527.786    472.430    496.811    472.430
111.870    526.416    556.183    -29.767    472.349    529.012    472.349    499.511    472.349
111.970    544.000    560.771    -16.771    472.270    530.324    472.270    502.709    472.270
112.070    528.781    566.014    -37.233    472.195    531.719    472.195    506.482    472.195
112.170    569.000    572.000     -3.000    472.123    533.201    472.123    510.913    472.123
112.270    542.000    578.832    -36.832    472.054    534.788    472.054    516.090    472.054
112.370    583.000    586.620     -3.620    471.989    536.502    471.989    522.098    471.989
112.470    574.700    595.479    -20.779    471.926    538.374    471.926    529.022    471.926
112.570    592.000    605.530    -13.530    471.867    540.444    471.867    536.943    471.867
112.670    602.000    616.889    -14.889    471.811    542.763    471.811    545.928    471.811
112.770    622.000    629.675     -7.675    471.759    545.391    471.759    556.032    471.759
112.870    654.904    644.001     10.903    471.710    548.409    471.710    567.291    471.710
112.970    656.000    659.981     -3.981    471.665    551.921    471.665    579.713    471.665
113.070    699.000    677.732     21.268    471.623    556.061    471.623    593.281    471.623
113.170    647.000    697.378    -50.378    471.584    561.008    471.584    607.941    471.584
113.270    703.000    719.063    -16.063    471.549    566.997    471.549    623.601    471.549
113.370    739.000    742.962     -3.962    471.518    574.335    471.518    640.128    471.518
113.470    746.000    769.295    -23.295    471.491    583.424    471.491    657.342    471.491
113.570    767.000    798.354    -31.354    471.467    594.784    471.467    675.015    471.467
113.670    802.000    830.519    -28.519    471.447    609.074    471.447    692.866    471.447
113.770    898.000    866.291     31.709    471.431    627.128    471.431    710.562    471.431
113.870    870.299    906.314    -36.015    471.418    649.975    471.418    727.719    471.418
113.970    933.000    951.410    -18.410    471.410    678.873    471.410    743.900    471.410
114.070   1027.337   1002.611     24.726    471.405    715.325    471.405    758.634    471.405
114.170   1053.000   1061.187     -8.187    471.404    761.095    471.404    771.425    471.404
114.270   1079.000   1128.680    -49.680    471.408    818.209    471.408    781.791    471.408
114.370   1233.000   1206.930     26.070    471.415    888.943    471.415    789.296    471.415
114.470   1310.000   1298.082     11.918    471.427    975.780    471.427    793.597    471.427
114.570   1471.000   1404.563     66.437    471.443   1081.358    471.443    794.489    471.443
114.670   1616.000   1529.030     86.970    471.463   1208.373    471.463    791.927    471.463
114.770   1663.000   1674.247    -11.247    471.487   1359.467    471.487    786.037    471.487
114.870   1888.000   1842.931     45.069    471.515   1537.077    471.515    777.098    471.515
114.970   2078.000   2037.536     40.464    471.548   1743.265    471.548    765.503    471.548
115.070   2373.000   2260.023    112.977    471.585   1979.526    471.585    751.717    471.585
115.170   2508.166   2511.618     -3.453    471.627   2246.594    471.627    736.235    471.627
115.270   2802.000   2792.579      9.421    471.673   2544.242    471.673    719.542    471.673
115.370   3173.000   3101.996     71.004    471.724   2871.106    471.724    702.096    471.724
115.470   3434.000   3437.629     -3.629    471.779   3224.535    471.779    684.308    471.779
115.570   3741.000   3795.800    -54.800    471.839   3600.495    471.839    666.537    471.839
115.670   4297.000   4171.343    125.657    471.903   3993.514    471.903    649.091    471.903
115.770   4587.000   4557.621     29.379    471.972   4396.704    471.972    632.224    471.972
115.870   4871.000   4946.613    -75.613    472.046   4801.842    472.046    616.140    472.046
115.970   5228.483   5329.068   -100.585    472.125   5199.521    472.125    600.995    472.125
116.070   5529.000   5694.744   -165.744    472.208   5579.390    472.208    586.903    472.208
116.170   6139.000   6032.726    106.274    472.297   5930.463    472.297    573.936    472.297
116.270   6298.000   6331.861    -33.861    472.390   6241.550    472.390    562.128    472.390
116.370   6592.278   6581.312     10.966    472.489   6501.811    472.489    551.485    472.489
116.470   6829.000   6771.251     57.749    472.592   6701.440    472.592    541.983    472.592
116.570   6820.390   6893.645    -73.255    472.701   6832.445    472.701    533.577    472.701
116.670   6827.917   6943.023   -115.106    472.814   6889.415    472.814    526.205    472.814
116.770   6993.000   6917.072     75.928    472.933   6870.106    472.933    519.793    472.933
116.870   6802.000   6816.888    -14.888    473.057   6775.690    473.057    514.258    473.057
116.970   6813.000   6646.843    166.157    473.187   6610.623    473.187    509.515    473.187
117.070   6344.453   6414.105    -69.653    473.321   6382.154    473.321    505.475    473.321
117.170   6077.000   6127.809    -50.809    473.462   6099.500    473.462    502.054    473.462
117.270   5669.000   5798.346   -129.346    473.607   5773.130    473.607    499.172    473.607
117.370   5432.610   5436.631     -4.021    473.758   5414.034    473.758    496.753    473.758
117.470   4963.000   5053.510    -90.510    473.915   5033.126    473.915    494.730    473.915
117.570   4580.000   4659.308    -79.308    474.077   4640.792    474.077    493.042    474.077
117.670   4407.000   4263.479    143.521    474.245   4246.541    474.245    491.636    474.245
117.770   3965.000   3874.367     90.633    474.419   3858.765    474.419    490.465    474.419
117.870   3566.000   3499.030     66.970    474.598   3484.564    474.598    489.490    474.598
117.970   3113.000   3143.158    -30.158    474.783   3129.663    474.783    488.678    474.783
118.070   2818.934   2811.048      7.886    474.974   2798.388    474.974    488.002    474.974
118.170   2528.672   2505.653     23.018    475.171   2493.717    475.171    487.438    475.171
118.270   2211.000   2228.681    -17.681    475.374   2217.378    475.374    486.967    475.374
118.370   1951.000   1980.732    -29.732    475.583   1969.990    475.583    486.576    475.583
118.470   1700.510   1761.467    -60.957    475.798   1751.227    475.798    486.252    475.798
118.570   1514.000   1569.785    -55.785    476.019   1559.998    476.019    485.985    476.019
118.670   1367.000   1404.003    -37.003    476.246   1394.628    476.246    485.767    476.246
118.770   1242.000   1262.032    -20.032    476.480   1253.036    476.480    485.593    476.480
118.870   1091.000   1141.538    -50.538    476.719   1132.892    476.719    485.457    476.719
118.970   1014.000   1040.084    -26.084    476.966   1031.764    476.966    485.357    476.966
119.070    926.000    955.251    -29.251    477.218    947.234    477.218    485.288    477.218
119.170    872.000    884.722    -12.722    477.477    876.990    477.477    485.248    477.477
119.270    837.000    826.354     10.646    477.743    818.889    477.743    485.236    477.743
119.370    821.695    778.214     43.481    478.015    770.998    478.015    485.250    478.015
119.470    709.000    738.598    -29.598    478.293    731.616    478.293    485.289    478.293
119.570    725.000    706.037     18.963    478.579    699.273    478.579    485.352    478.579
119.670    647.000    679.284    -32.284    478.871    672.724    478.871    485.438    478.871
119.770    658.000    657.301      0.699    479.170    650.928    479.170    485.547    479.170
119.870    681.000    639.231     41.769    479.476    633.031    479.476    485.679    479.476
119.970    668.777    624.379     44.398    479.788    618.337    479.788    485.834    479.788
120.070    584.606    612.184    -27.578    480.108    606.283    480.108    486.011    480.108
120.170    589.003    602.199    -13.196    480.434    596.425    480.434    486.211    480.434
120.270    569.960    594.070    -24.110    480.768    588.407    480.768    486.435    480.768
120.370    556.000    587.519    -31.519    481.109    581.949    481.109    486.683    481.109
120.470    623.431    582.327     41.103    481.457    576.834    481.457    486.954    481.457
120.570    590.000    578.325     11.675    481.812    572.890    481.812    487.251    481.812
120.670    578.000    575.378      2.622    482.175    569.985    482.175    487.573    482.175
120.770    604.231    573.385     30.847    482.545    568.013    482.545    487.922    482.545
120.870    592.000    572.262     19.738    482.922    566.894    482.922    488.297    482.922
120.970    562.000    571.945     -9.945    483.307    566.560    483.307    488.699    483.307
121.070    553.000    572.379    -19.379    483.700    566.958    483.700    489.130    483.700
121.170    572.000    573.516     -1.516    484.100    568.038    484.100    489.588    484.100
121.270    591.938    575.311     16.627    484.507    569.755    484.507    490.075    484.507
121.370    631.000    577.717     53.283    484.923    572.063    484.923    490.589    484.923
121.470    611.000    580.685     30.315    485.346    574.914    485.346    491.132    485.346
121.570    578.000    584.160     -6.160    485.777    578.252    485.777    491.701    485.777
121.670    581.000    588.081     -7.081    486.216    582.019    486.216    492.297    486.216
121.770    592.000    592.376     -0.376    486.663    586.143    486.663    492.917    486.663
121.870    585.000    596.967    -11.967    487.118    590.549    487.118    493.560    487.118
121.970    631.163    601.766     29.397    487.581    595.149    487.581    494.224    487.581
122.070    639.000    606.675     32.325    488.052    599.851    488.052    494.906    488.052
122.170    608.915    611.590     -2.675    488.532    604.552    488.532    495.602    488.532
122.270    625.000    616.400      8.600    489.020    609.144    489.020    496.310    489.020
122.370    600.000    620.990    -20.990    489.516    613.517    489.516    497.025    489.516
122.470    625.000    625.244     -0.244    490.020    617.562    490.020    497.743    490.020
122.570    696.000    629.052     66.948    490.533    621.170    490.533    498.458    490.533
122.670    676.686    632.310     44.376    491.055    624.245    491.055    499.165    491.055
122.770    651.000    634.933     16.067    491.585    626.706    491.585    499.858    491.585
122.870    642.882    636.852      6.031    492.124    628.491    492.124    500.532    492.124
122.970    686.173    638.026     48.148    492.671    629.564    492.671    501.181    492.671
123.070    651.736    638.440     13.296    493.228    629.916    493.228    501.801    493.228
123.170    639.000    638.108      0.892    493.793    629.562    493.793    502.387    493.793
123.270    649.000    637.065     11.935    494.367    628.542    494.367    502.938    494.367
123.370    655.150    635.369     19.781    494.950    626.914    494.950    503.452    494.950
123.470    662.000    633.092     28.908    495.542    624.749    495.542    503.930    495.542
123.570    647.000    630.315     16.685    496.144    622.127    496.144    504.374    496.144
123.670    610.000    627.125    -17.125    496.754    619.131    496.754    504.788    496.754
123.770    619.000    623.610     -4.610    497.374    615.844    497.374    505.177    497.374
123.870    601.267    619.855    -18.588    498.003    612.347    498.003    505.546    498.003
123.970    623.000    615.941      7.059    498.642    608.714    498.642    505.899    498.642
124.070    668.000    611.941     56.059    499.290    605.014    499.290    506.245    499.290
124.170    602.110    607.919     -5.809    499.947    601.305    499.947    506.586    499.947
124.270    569.623    603.928    -34.305    500.614    597.635    500.614    506.929    500.614
124.370    629.000    600.011     28.989    501.291    594.043    501.291    507.279    501.291
124.470    641.000    596.198     44.802    501.977    590.554    501.977    507.639    501.977
124.570    635.000    592.511     42.489    502.674    587.186    502.674    508.013    502.674
124.670    542.000    588.960    -46.960    503.380    583.949    503.380    508.404    503.380
124.770    561.726    585.551    -23.825    504.096    580.843    504.096    508.815    504.096
124.870    565.000    582.283    -17.283    504.822    577.865    504.822    509.248    504.822
124.970    583.000    579.150      3.850    505.558    575.011    505.558    509.705    505.558
