neutron_powder_diffraction_0121
R_wp: 4.100
Temperature (K): 992.555
Counts: 83660.00
Wavelength (Ã…): 2.52098
COMMENTS
Test file for demonstrating the .xyy file format in Reel1.0
END OF HEADER
   tth       Y_obs     Y_calc      Y_res    Background    Phase_1_Nuc    Phase_1_Mag    Phase_2_Nuc    Phase_2_Mag
  9.970    573.851    556.436     17.415    555.307    556.226    555.307    555.517    555.307
 10.070    617.000    556.833     60.167    555.625    556.622    555.625    555.835    555.625
 10.170    509.856    557.233    -47.377    555.933    557.021    555.933    556.144    555.933
 10.270    517.068    557.638    -40.570    556.233    557.425    556.233    556.445    556.233
 10.370    588.000    558.051     29.949    556.524    557.837    556.524    556.737    556.524
 10.470    530.728    558.476    -27.747    556.807    558.261    556.807    557.021    556.807
 10.570    584.304    558.918     25.386    557.081    558.702    557.081    557.296    557.081
 10.670    589.000    559.383     29.617    557.347    559.167    557.347    557.563    557.347
 10.770    575.000    559.881     15.119    557.605    559.663    557.605    557.821    557.605
 10.870    579.000    560.423     18.577    557.854    560.204    557.854    558.072    557.854
 10.970    587.000    561.025     25.975    558.096    560.805    558.096    558.314    558.096
 11.070    624.000    561.710     62.290    558.329    561.489    558.329    558.548    558.329
 11.170    576.557    562.513     14.044    558.554    562.291    558.554    558.774    558.554
 11.270    598.000    563.486     34.514    558.771    563.263    558.771    558.992    558.771
 11.370    559.000    564.726     -5.726    558.981    564.501    558.981    559.202    558.981
 11.470    589.000    566.443     22.557    559.182    566.216    559.182    559.405    559.182
 11.570    576.827    569.152      7.675    559.376    568.923    559.376    559.600    559.376
 11.670    600.381    574.043     26.338    559.562    573.810    559.562    559.787    559.562
 11.770    565.000    583.355    -18.355    559.741    583.116    559.741    559.967    559.741
 11.870    603.547    600.089      3.457    559.912    599.840    559.912    560.139    559.912
 11.970    709.000    626.120     82.880    560.075    625.856    560.075    560.303    560.075
 12.070    708.000    658.407     49.593    560.232    658.124    560.232    560.460    560.232
 12.170    660.000    685.148    -25.148    560.381    684.849    560.381    560.610    560.381
 12.270    672.000    689.944    -17.944    560.522    689.641    560.522    560.753    560.522
 12.370    626.000    668.913    -42.913    560.657    668.621    560.657    560.889    560.657
 12.470    615.000    636.661    -21.661    560.784    636.386    560.784    561.017    560.784
 12.570    619.591    608.104     11.487    560.905    607.844    560.905    561.139    560.905
 12.670    580.255    588.763     -8.508    561.018    588.512    561.018    561.253    561.018
 12.770    562.000    577.769    -15.769    561.124    577.524    561.124    561.361    561.124
 12.870    559.000    572.123    -13.123    561.224    571.880    561.224    561.461    561.224
 12.970    559.000    569.226    -10.226    561.317    568.983    561.317    561.555    561.317
 13.070    588.000    567.583     20.417    561.403    567.340    561.403    561.642    561.403
 13.170    594.938    566.524     28.414    561.482    566.281    561.482    561.723    561.482
 13.270    554.000    565.776    -11.776    561.555    565.532    561.555    561.797    561.555
 13.370    561.630    565.222     -3.592    561.622    564.977    561.622    561.865    561.622
 13.470    515.000    564.800    -49.800    561.682    564.554    561.682    561.926    561.682
 13.570    563.000    564.472     -1.472    561.735    564.225    561.735    561.981    561.735
 13.670    501.000    564.212    -63.212    561.783    563.965    561.783    562.029    561.783
 13.770    551.000    564.003    -13.003    561.823    563.755    561.823    562.071    561.823
 13.870    542.000    563.832    -21.832    561.858    563.582    561.858    562.107    561.858
 13.970    547.000    563.688    -16.688    561.887    563.437    561.887    562.137    561.887
 14.070    581.532    563.567     17.965    561.909    563.315    561.909    562.161    561.909
 14.170    558.000    563.461     -5.461    561.926    563.208    561.926    562.179    561.926
 14.270    590.000    563.366     26.634    561.937    563.112    561.937    562.190    561.937
 14.370    547.000    563.282    -16.282    561.941    563.026    561.941    562.196    561.941
 14.470    557.130    563.204     -6.075    561.940    562.948    561.940    562.197    561.940
 14.570    536.000    563.130    -27.130    561.933    562.871    561.933    562.191    561.933
 14.670    566.747    563.058      3.690    561.921    562.798    561.921    562.180    561.921
 14.770    589.584    562.987     26.597    561.903    562.726    561.903    562.163    561.903
 14.870    534.824    562.917    -28.093    561.879    562.655    561.879    562.141    561.879
 14.970    539.373    562.847    -23.474    561.849    562.584    561.849    562.113    561.849
 15.070    560.000    562.776     -2.776    561.815    562.511    561.815    562.079    561.815
 15.170    526.000    562.706    -36.706    561.774    562.440    561.774    562.040    561.774
 15.270    548.000    562.632    -14.632    561.729    562.364    561.729    561.996    561.729
 15.370    594.513    562.556     31.957    561.678    562.287    561.678    561.947    561.678
 15.470    521.939    562.477    -40.538    561.622    562.206    561.622    561.892    561.622
 15.570    560.989    562.395     -1.406    561.561    562.123    561.561    561.833    561.561
 15.670    593.693    562.311     31.382    561.494    562.037    561.494    561.768    561.494
 15.770    539.000    562.223    -23.223    561.423    561.948    561.423    561.698    561.423
 15.870    538.000    562.132    -24.132    561.347    561.855    561.347    561.623    561.347
 15.970    583.000    562.038     20.962    561.265    561.760    561.265    561.543    561.265
 16.070    540.000    561.940    -21.940    561.179    561.660    561.179    561.459    561.179
 16.170    539.897    561.838    -21.942    561.088    561.557    561.088    561.369    561.088
 16.270    598.000    561.734     36.266    560.992    561.451    560.992    561.275    560.992
 16.370    552.000    561.625     -9.625    560.892    561.340    560.892    561.176    560.892
 16.470    492.000    561.513    -69.513    560.787    561.226    560.787    561.073    560.787
 16.570    554.000    561.397     -7.397    560.677    561.109    560.677    560.965    560.677
 16.670    545.000    561.277    -16.277    560.562    560.987    560.562    560.852    560.562
 16.770    524.000    561.157    -37.157    560.444    560.866    560.444    560.735    560.444
 16.870    542.000    561.053    -19.053    560.320    560.760    560.320    560.614    560.320
 16.970    552.000    560.925     -8.925    560.193    560.630    560.193    560.488    560.193
 17.070    517.142    560.790    -43.649    560.061    560.494    560.061    560.358    560.061
 17.170    546.000    560.653    -14.653    559.924    560.354    559.924    560.223    559.924
 17.270    559.000    560.511     -1.511    559.784    560.210    559.784    560.085    559.784
 17.370    564.536    560.365      4.171    559.639    560.063    559.639    559.942    559.639
 17.470    564.686    560.217      4.470    559.490    559.912    559.490    559.795    559.490
 17.570    528.000    560.064    -32.064    559.338    559.758    559.338    559.644    559.338
 17.670    599.000    559.908     39.092    559.181    559.599    559.181    559.489    559.181
 17.770    587.441    559.756     27.685    559.020    559.445    559.020    559.330    559.020
 17.870    534.000    559.668    -25.668    558.855    559.356    558.855    559.168    558.855
 17.970    587.000    559.545     27.455    558.686    559.230    558.686    559.001    558.686
 18.070    572.000    559.380     12.620    558.514    559.063    558.514    558.831    558.514
 18.170    594.000    559.207     34.793    558.338    558.888    558.338    558.657    558.338
 18.270    524.000    559.031    -35.031    558.158    558.710    558.158    558.479    558.158
 18.370    534.000    558.852    -24.852    557.974    558.528    557.974    558.298    557.974
 18.470    567.879    558.669      9.210    557.787    558.343    557.787    558.113    557.787
 18.570    567.021    558.483      8.538    557.597    558.155    557.597    557.925    557.597
 18.670    522.168    558.294    -36.127    557.402    557.964    557.402    557.733    557.402
 18.770    517.000    558.102    -41.102    557.205    557.769    557.205    557.538    557.205
 18.870    539.000    557.907    -18.907    557.004    557.572    557.004    557.339    557.004
 18.970    541.000    557.710    -16.710    556.799    557.372    556.799    557.137    556.799
 19.070    583.000    557.514     25.486    556.591    557.173    556.591    556.932    556.591
 19.170    500.000    557.313    -57.313    556.380    556.969    556.380    556.724    556.380
 19.270    557.000    557.106     -0.106    556.166    556.760    556.166    556.512    556.166
 19.370    579.042    556.897     22.144    555.949    556.549    555.949    556.297    555.949
 19.470    581.000    556.686     24.314    555.728    556.334    555.728    556.080    555.728
 19.570    569.000    556.471     12.529    555.504    556.117    555.504    555.859    555.504
 19.670    558.000    556.255      1.745    555.278    555.897    555.278    555.635    555.278
 19.770    525.000    556.035    -31.035    555.048    555.675    555.048    555.408    555.048
 19.870    564.000    555.814      8.186    554.815    555.450    554.815    555.179    554.815
 19.970    562.000    555.590      6.410    554.580    555.223    554.580    554.946    554.580
 20.070    527.332    555.364    -28.032    554.342    554.994    554.342    554.711    554.342
 20.170    534.000    555.137    -21.137    554.100    554.765    554.100    554.473    554.100
 20.270    541.000    554.931    -13.931    553.857    554.555    553.857    554.233    553.857
 20.370    576.000    554.744     21.256    553.610    554.364    553.610    553.990    553.610
 20.470    536.000    554.514    -18.514    553.361    554.131    553.361    553.744    553.361
 20.570    570.000    554.280     15.720    553.109    553.893    553.109    553.496    553.109
 20.670    520.000    554.044    -34.044    552.854    553.653    552.854    553.245    552.854
 20.770    545.037    553.809     -8.772    552.597    553.415    552.597    552.992    552.597
 20.870    563.268    553.569      9.699    552.338    553.171    552.338    552.736    552.338
 20.970    545.000    553.327     -8.327    552.076    552.926    552.076    552.478    552.076
 21.070    563.000    553.085      9.915    551.812    552.679    551.812    552.218    551.812
 21.170    561.000    552.841      8.159    551.545    552.431    551.545    551.955    551.545
 21.270    556.000    552.604      3.396    551.276    552.189    551.276    551.690    551.276
 21.370    575.675    552.398     23.277    551.004    551.980    551.004    551.423    551.004
 21.470    535.000    552.157    -17.157    550.731    551.734    550.731    551.154    550.731
 21.570    509.534    551.911    -42.376    550.455    551.483    550.455    550.883    550.455
 21.670    596.427    551.665     44.762    550.177    551.232    550.177    550.610    550.177
 21.770    560.000    551.419      8.581    549.897    550.982    549.897    550.335    549.897
 21.870    590.724    551.174     39.550    549.615    550.732    549.615    550.058    549.615
 21.970    496.000    550.931    -54.931    549.331    550.483    549.331    549.779    549.331
 22.070    521.796    550.692    -28.896    549.045    550.238    549.045    549.498    549.045
 22.170    581.000    550.461     30.539    548.757    550.003    548.757    549.216    548.757
 22.270    565.000    550.248     14.752    548.467    549.784    548.467    548.932    548.467
 22.370    585.000    550.023     34.977    548.175    549.553    548.175    548.646    548.175
 22.470    565.000    549.792     15.208    547.882    549.316    547.882    548.358    547.882
 22.570    578.268    549.565     28.703    547.586    549.083    547.586    548.069    547.586
 22.670    571.000    549.344     21.656    547.289    548.855    547.289    547.779    547.289
 22.770    593.000    549.130     43.870    546.990    548.634    546.990    547.486    546.990
 22.870    535.520    548.925    -13.405    546.690    548.422    546.690    547.193    546.690
 22.970    530.000    548.732    -18.732    546.387    548.222    546.387    546.898    546.387
 23.070    563.000    548.560     14.440    546.084    548.043    546.084    546.602    546.084
 23.170    566.000    548.428     17.572    545.778    547.903    545.778    546.304    545.778
 23.270    535.000    548.311    -13.311    545.471    547.777    545.471    546.005    545.471
 23.370    518.000    548.202    -30.202    545.163    547.661    545.163    545.705    545.163
 23.470    508.000    548.130    -40.130    544.853    547.580    544.853    545.404    544.853
 23.570    536.000    548.106    -12.106    544.542    547.547    544.542    545.102    544.542
 23.670    571.759    548.154     23.606    544.229    547.586    544.229    544.799    544.229
 23.770    549.533    548.340      1.193    543.915    547.762    543.915    544.495    543.915
 23.870    589.341    548.619     40.722    543.600    548.032    543.600    544.190    543.600
 23.970    539.000    549.090    -10.090    543.284    548.492    543.284    543.884    543.284
 24.070    546.000    549.935     -3.935    542.966    549.327    542.966    543.578    542.966
 24.170    563.000    551.562     11.438    542.647    550.943    542.647    543.271    542.647
 24.270    547.000    554.860     -7.860    542.327    554.231    542.327    542.963    542.327
 24.370    575.000    561.300     13.700    542.006    560.663    542.006    542.655    542.006
 24.470    587.000    572.652     14.348    541.683    572.010    541.683    542.346    541.683
 24.570    630.000    589.730     40.270    541.360    589.086    541.360    542.037    541.360
 24.670    648.000    610.091     37.909    541.036    609.447    541.036    541.727    541.036
 24.770    657.000    626.009     30.991    540.710    625.361    540.710    541.418    540.710
 24.870    637.000    627.724      9.276    540.384    627.061    540.384    541.108    540.384
 24.970    624.000    613.650     10.350    540.057    612.960    540.057    540.798    540.057
 25.070    549.700    592.764    -43.063    539.728    592.040    539.728    540.489    539.728
 25.170    562.147    574.031    -11.884    539.399    573.274    539.399    540.179    539.399
 25.270    568.933    560.925      8.008    539.070    560.139    539.070    539.870    539.070
 25.370    551.000    553.103     -2.103    538.739    552.289    538.739    539.561    538.739
 25.470    573.551    548.819     24.732    538.408    547.979    538.408    539.253    538.408
 25.570    548.329    546.448      1.881    538.076    545.582    538.076    538.945    538.076
 25.670    499.035    544.995    -45.961    537.743    544.102    537.743    538.639    537.743
 25.770    575.729    543.982     31.747    537.409    543.060    537.409    538.333    537.409
 25.870    532.000    543.207    -11.207    537.075    542.255    537.075    538.029    537.075
 25.970    570.000    542.586     27.414    536.740    541.602    536.740    537.726    536.740
 26.070    523.000    542.077    -19.077    536.405    541.058    536.405    537.425    536.405
 26.170    548.473    541.656      6.817    536.069    540.601    536.069    537.126    536.069
 26.270    581.268    541.310     39.959    535.733    540.215    535.733    536.829    535.733
 26.370    565.000    541.029     23.971    535.396    539.892    535.396    536.534    535.396
 26.470    569.000    540.809     28.191    535.059    539.626    535.059    536.242    535.059
 26.570    542.000    540.649      1.351    534.721    539.417    534.721    535.954    534.721
 26.670    580.000    540.552     39.448    534.383    539.266    534.383    535.669    534.383
 26.770    585.000    540.525     44.475    534.045    539.182    534.045    535.389    534.045
 26.870    574.781    540.579     34.201    533.706    539.173    533.706    535.113    533.706
 26.970    557.347    540.731     16.616    533.367    539.256    533.367    534.842    533.367
 27.070    565.000    541.005     23.995    533.028    539.455    533.028    534.578    533.028
 27.170    570.000    541.434     28.566    532.688    539.801    532.688    534.320    532.688
 27.270    498.772    542.069    -43.298    532.349    540.347    532.349    534.070    532.349
 27.370    585.865    542.991     42.874    532.009    541.170    532.009    533.829    532.009
 27.470    585.000    544.346     40.654    531.668    542.415    531.668    533.598    531.668
 27.570    586.000    546.518     39.482    531.328    544.467    531.328    533.377    531.328
 27.670    527.000    550.832    -23.832    530.988    548.647    530.988    533.170    530.988
 27.770    565.000    561.559      3.441    530.647    559.223    530.647    532.975    530.647
 27.870    611.000    589.058     21.942    530.307    586.551    530.307    532.797    530.307
 27.970    657.000    649.116      7.884    529.966    646.409    529.966    532.636    529.966
 28.070    801.395    749.458     51.937    529.626    746.522    529.626    532.494    529.626
 28.170    844.000    865.753    -21.753    529.285    862.572    529.285    532.373    529.285
 28.270    936.000    934.809      1.191    528.945    931.385    528.945    532.275    528.945
 28.370    826.000    906.644    -80.644    528.604    902.984    528.604    532.201    528.604
 28.470    795.000    812.786    -17.786    528.264    808.867    528.264    532.155    528.264
 28.570    741.504    726.904     14.599    527.924    722.682    527.924    532.135    527.924
 28.670    704.696    697.525      7.171    527.584    692.955    527.584    532.142    527.584
 28.770    718.000    728.454    -10.454    527.244    723.504    527.244    532.175    527.244
 28.870    729.615    787.812    -58.197    526.905    782.464    526.905    532.230    526.905
 28.970    781.150    823.471    -42.321    526.565    817.720    526.565    532.302    526.565
 29.070    743.000    798.501    -55.501    526.226    792.349    526.226    532.380    526.226
 29.170    719.000    728.890     -9.890    525.887    722.338    525.887    532.451    525.887
 29.270    653.497    654.615     -1.118    525.549    647.679    525.549    532.499    525.549
 29.370    555.514    600.461    -44.948    525.211    593.179    525.211    532.503    525.211
 29.470    579.513    569.804      9.709    524.873    562.239    524.873    532.443    524.873
 29.570    577.000    555.173     21.827    524.535    547.413    524.535    532.298    524.535
 29.670    593.000    548.518     44.482    524.198    540.664    524.198    532.054    524.198
 29.770    545.000    545.098     -0.098    523.862    537.257    523.862    531.704    523.862
 29.870    510.361    542.918    -32.556    523.525    535.196    523.525    531.248    523.525
 29.970    637.000    541.300     95.700    523.189    533.793    523.189    530.696    523.189
 30.070    574.000    540.042     33.958    522.854    532.830    522.854    530.067    522.854
 30.170    570.394    539.122     31.272    522.519    532.262    522.519    529.379    522.519
 30.270    558.144    538.668     19.476    522.185    532.198    522.185    528.654    522.185
 30.370    550.000    539.118     10.882    521.851    533.056    521.851    527.912    521.851
 30.470    523.000    541.488    -18.488    521.518    535.833    521.518    527.168    521.518
 30.570    584.000    547.488     36.512    521.186    542.230    521.186    526.433    521.186
 30.670    542.716    558.874    -16.158    520.854    553.990    520.854    525.718    520.854
 30.770    603.071    575.623     27.448    520.523    571.087    520.523    525.027    520.523
 30.870    601.000    593.564      7.436    520.192    589.351    520.192    524.362    520.192
 30.970    623.000    603.760     19.240    519.862    599.849    519.862    523.725    519.862
 31.070    644.721    598.892     45.829    519.533    595.267    519.533    523.116    519.533
 31.170    581.000    582.170     -1.170    519.204    578.811    519.204    522.533    519.204
 31.270    607.952    562.782     45.170    518.876    559.665    518.876    521.976    518.876
 31.370    511.859    547.259    -35.400    518.549    544.357    518.549    521.441    518.549
 31.470    554.000    537.370     16.630    518.223    534.660    518.223    520.927    518.223
 31.570    553.000    531.970     21.030    517.897    529.431    517.897    520.433    517.897
 31.670    538.000    529.208      8.792    517.573    526.822    517.573    519.957    517.573
 31.770    540.000    527.721     12.279    517.249    525.472    517.249    519.496    517.249
 31.870    564.764    526.807     37.957    516.926    524.681    516.926    519.050    516.926
 31.970    530.000    526.179      3.821    516.604    524.165    516.604    518.617    516.604
 32.070    548.000    525.735     22.265    516.282    523.821    516.282    518.196    516.282
 32.170    556.000    525.437     30.563    515.962    523.614    515.962    517.785    515.962
 32.270    531.222    525.272      5.950    515.643    523.531    515.643    517.383    515.643
 32.370    587.000    525.240     61.760    515.324    523.572    515.324    516.991    515.324
 32.470    543.000    525.348     17.652    515.007    523.748    515.007    516.606    515.007
 32.570    546.000    525.616     20.384    514.690    524.077    514.690    516.228    514.690
 32.670    521.000    526.071     -5.071    514.374    524.589    514.374    515.857    514.374
 32.770    522.000    526.758     -4.758    514.060    525.326    514.060    515.491    514.060
 32.870    532.000    527.736      4.264    513.746    526.351    513.746    515.131    513.746
 32.970    519.000    529.101    -10.101    513.434    527.757    513.434    514.776    513.434
 33.070    531.000    530.997      0.003    513.122    529.692    513.122    514.426    513.122
 33.170    527.000    533.700     -6.700    512.812    532.430    512.812    514.080    512.812
 33.270    538.000    537.831      0.169    512.503    536.594    512.503    513.738    512.503
 33.370    585.000    544.940     40.060    512.195    543.731    512.195    513.400    512.195
 33.470    532.000    558.634    -26.634    511.888    557.451    511.888    513.065    511.888
 33.570    612.058    585.910     26.148    511.582    584.747    511.582    512.734    511.582
 33.670    594.871    636.927    -42.057    511.277    635.780    511.277    512.406    511.277
 33.770    727.101    720.535      6.566    510.973    719.397    510.973    512.081    510.973
 33.870    801.000    834.576    -33.576    510.671    833.445    510.671    511.759    510.671
 33.970    987.000    954.123     32.877    510.370    953.005    510.370    511.439    510.370
 34.070   1039.000   1028.393     10.607    510.070   1027.300    510.070    511.123    510.070
 34.170    982.000   1012.897    -30.897    509.771   1011.841    509.771    510.809    509.771
 34.270    921.000    918.359      2.641    509.474    917.336    509.474    510.497    509.474
 34.370    795.000    796.201     -1.201    509.177    795.199    509.177    510.188    509.177
 34.470    675.000    689.731    -14.731    508.882    688.742    508.882    509.881    508.882
 34.570    576.693    615.900    -39.208    508.589    614.919    508.589    509.576    508.589
 34.670    549.000    572.408    -23.408    508.296    571.433    508.296    509.274    508.296
 34.770    519.000    549.355    -30.355    508.005    548.388    508.005    508.973    508.005
 34.870    548.000    537.410     10.590    507.715    536.450    507.715    508.675    507.715
 34.970    561.000    530.713     30.287    507.427    529.761    507.427    508.379    507.427
 35.070    516.000    526.406    -10.406    507.140    525.460    507.140    508.086    507.140
 35.170    554.236    523.289     30.946    506.854    522.350    506.854    507.794    506.854
 35.270    530.000    520.872      9.128    506.569    519.938    506.569    507.504    506.569
 35.370    486.310    518.927    -32.617    506.286    517.997    506.286    507.216    506.286
 35.470    541.000    517.323     23.677    506.005    516.398    506.005    506.930    506.005
 35.570    507.000    515.976     -8.976    505.725    515.054    505.725    506.646    505.725
 35.670    520.624    514.826      5.798    505.446    513.908    505.446    506.364    505.446
 35.770    557.212    513.831     43.381    505.169    512.916    505.169    506.084    505.169
 35.870    514.000    512.959      1.041    504.893    512.046    504.893    505.806    504.893
 35.970    551.000    512.188     38.812    504.618    511.277    504.618    505.530    504.618
 36.070    459.000    511.499    -52.499    504.345    510.589    504.345    505.255    504.345
 36.170    519.000    510.880      8.120    504.074    509.971    504.074    504.983    504.074
 36.270    525.000    510.321     14.679    503.804    509.413    503.804    504.712    503.804
 36.370    486.271    509.815    -23.544    503.535    508.907    503.535    504.444    503.535
 36.470    494.278    509.358    -15.081    503.268    508.450    503.268    504.177    503.268
 36.570    519.000    508.948     10.052    503.003    508.039    503.003    503.912    503.003
 36.670    509.000    508.586      0.414    502.739    507.676    502.739    503.649    502.739
 36.770    484.000    508.279    -24.279    502.476    507.367    502.476    503.388    502.476
 36.870    513.920    508.047      5.873    502.215    507.135    502.215    503.129    502.215
 36.970    496.000    507.940    -11.940    501.956    507.026    501.956    502.871    501.956
 37.070    512.000    508.057      3.943    501.698    507.140    501.698    502.616    501.698
 37.170    487.000    508.568    -21.568    501.442    507.649    501.442    502.362    501.442
 37.270    467.460    509.697    -42.238    501.187    508.776    501.187    502.110    501.187
 37.370    537.000    511.638     25.362    500.934    510.713    500.934    501.860    500.934
 37.470    552.465    514.382     38.083    500.683    513.455    500.683    501.612    500.683
 37.570    535.911    517.509     18.402    500.433    516.580    500.433    501.366    500.433
 37.670    506.000    520.028    -14.028    500.185    519.096    500.185    501.122    500.185
 37.770    501.000    520.727    -19.727    499.939    519.793    499.939    500.880    499.939
 37.870    521.710    519.211      2.499    499.694    518.274    499.694    500.639    499.694
 37.970    505.000    516.314    -11.314    499.450    515.374    499.450    500.401    499.450
 38.070    506.000    513.074     -7.074    499.209    512.130    499.209    500.164    499.209
 38.170    514.000    510.072      3.928    498.969    509.121    498.969    499.930    498.969
 38.270    479.000    507.591    -28.591    498.730    506.633    498.730    499.697    498.730
 38.370    544.292    505.727     38.565    498.494    504.761    498.494    499.466    498.494
 38.470    530.000    504.413     25.587    498.259    503.439    498.259    499.237    498.259
 38.570    506.000    503.509      2.491    498.026    502.527    498.026    499.011    498.026
 38.670    488.000    502.876    -14.876    497.794    501.886    497.794    498.786    497.794
 38.770    482.000    502.406    -20.406    497.564    501.409    497.564    498.563    497.564
 38.870    516.186    502.032     14.154    497.336    501.027    497.336    498.342    497.336
 38.970    473.000    501.711    -28.711    497.109    500.699    497.109    498.123    497.109
 39.070    452.000    501.425    -49.425    496.885    500.404    496.885    497.906    496.885
 39.170    508.942    501.161      7.781    496.662    500.132    496.662    497.692    496.662
 39.270    489.000    500.916    -11.916    496.440    499.878    496.440    497.479    496.440
 39.370    506.000    500.685      5.315    496.221    499.639    496.221    497.268    496.221
 39.470    532.000    500.468     31.532    496.003    499.412    496.003    497.059    496.003
 39.570    505.000    500.262      4.738    495.787    499.197    495.787    496.853    495.787
 39.670    514.264    500.067     14.197    495.573    498.992    495.573    496.648    495.573
 39.770    543.839    499.883     43.956    495.360    498.798    495.360    496.446    495.360
 39.870    488.000    499.709    -11.709    495.150    498.614    495.150    496.245    495.150
 39.970    468.000    499.545    -31.545    494.941    498.439    494.941    496.047    494.941
 40.070    535.724    499.392     36.332    494.733    498.275    494.733    495.851    494.733
 40.170    474.000    499.250    -25.250    494.528    498.122    494.528    495.657    494.528
 40.270    515.000    499.120     15.880    494.324    497.980    494.324    495.465    494.324
 40.370    496.000    499.002     -3.002    494.122    497.850    494.122    495.275    494.122
 40.470    474.000    498.898    -24.898    493.922    497.733    493.922    495.088    493.922
 40.570    497.000    498.809     -1.809    493.724    497.632    493.724    494.902    493.724
 40.670    531.000    498.738     32.262    493.527    497.548    493.527    494.719    493.527
 40.770    519.399    498.687     20.712    493.333    497.483    493.333    494.538    493.333
 40.870    534.522    498.659     35.863    493.140    497.441    493.140    494.360    493.140
 40.970    500.000    498.659      1.341    492.949    497.426    492.949    494.183    492.949
 41.070    516.516    498.692     17.825    492.760    497.443    492.760    494.009    492.760
 41.170    484.000    498.764    -14.764    492.572    497.500    492.572    493.837    492.572
 41.270    505.000    498.886      6.114    492.386    497.607    492.386    493.668    492.386
 41.370    470.301    499.071    -28.770    492.203    497.775    492.203    493.501    492.203
 41.470    509.000    499.337      9.663    492.021    498.024    492.021    493.336    492.021
 41.570    494.258    499.713     -5.455    491.840    498.382    491.840    493.173    491.840
 41.670    508.000    500.252      7.748    491.662    498.903    491.662    493.013    491.662
 41.770    463.000    501.062    -38.062    491.486    499.695    491.486    492.856    491.486
 41.870    476.230    502.384    -26.154    491.311    500.998    491.311    492.701    491.311
 41.970    467.822    504.715    -36.893    491.138    503.309    491.138    492.548    491.138
 42.070    499.000    508.968     -9.968    490.967    507.544    490.967    492.398    490.967
 42.170    516.000    516.528     -0.528    490.798    515.086    490.798    492.251    490.798
 42.270    550.495    528.971     21.524    490.631    527.512    490.631    492.106    490.631
 42.370    578.635    547.278     31.357    490.465    545.805    490.465    491.964    490.465
 42.470    552.000    570.599    -18.599    490.302    569.115    490.302    491.824    490.302
 42.570    582.307    594.958    -12.651    490.140    593.463    490.140    491.687    490.140
 42.670    546.000    612.849    -66.849    489.980    611.340    489.980    491.553    489.980
 42.770    594.000    616.211    -22.211    489.822    614.680    489.822    491.422    489.822
 42.870    583.000    603.093    -20.093    489.666    601.529    489.666    491.293    489.666
 42.970    570.000    579.920     -9.920    489.511    578.315    489.511    491.167    489.511
 43.070    600.000    555.237     44.763    489.359    553.589    489.359    491.045    489.359
 43.170    527.836    534.508     -6.672    489.208    532.816    489.208    490.925    489.208
 43.270    481.000    519.649    -38.649    489.059    517.916    489.059    490.809    489.059
 43.370    525.000    510.215     14.785    488.913    508.442    488.913    490.695    488.913
 43.470    490.000    504.718    -14.718    488.767    502.908    488.767    490.585    488.767
 43.570    500.031    501.630     -1.599    488.624    499.781    488.624    490.478    488.624
 43.670    457.000    499.842    -42.842    488.483    497.954    488.483    490.375    488.483
 43.770    511.166    498.715     12.452    488.343    496.786    488.343    490.274    488.343
 43.870    504.000    497.928      6.072    488.206    495.958    488.206    490.178    488.206
 43.970    468.000    497.338    -29.338    488.070    495.325    488.070    490.085    488.070
 44.070    492.153    496.876     -4.724    487.936    494.818    487.936    489.996    487.936
 44.170    496.000    496.509     -0.509    487.804    494.403    487.804    489.911    487.804
 44.270    510.931    496.214     14.717    487.673    494.059    487.673    489.830    487.673
 44.370    490.000    495.978     -5.978    487.545    493.771    487.545    489.753    487.545
 44.470    506.980    495.790     11.191    487.418    493.529    487.418    489.680    487.418
 44.570    475.000    495.642    -20.642    487.294    493.325    487.294    489.612    487.294
 44.670    524.000    495.531     28.469    487.171    493.154    487.171    489.548    487.171
 44.770    524.635    495.450     29.185    487.050    493.011    487.050    489.490    487.050
 44.870    465.000    495.398    -30.398    486.930    492.893    486.930    489.436    486.930
 44.970    498.000    495.371      2.629    486.813    492.797    486.813    489.388    486.813
 45.070    532.000    495.370     36.630    486.697    492.723    486.697    489.346    486.697
 45.170    504.389    495.393      8.996    486.584    492.668    486.584    489.309    486.584
 45.270    528.478    495.439     33.039    486.472    492.633    486.472    489.278    486.472
 45.370    475.000    495.509    -20.509    486.362    492.617    486.362    489.255    486.362
 45.470    578.000    495.603     82.397    486.254    492.619    486.254    489.238    486.254
 45.570    464.985    495.722    -30.736    486.147    492.641    486.147    489.228    486.147
 45.670    522.000    495.867     26.133    486.043    492.683    486.043    489.227    486.043
 45.770    463.252    496.040    -32.788    485.940    492.747    485.940    489.234    485.940
 45.870    478.320    496.244    -17.923    485.839    492.834    485.839    489.250    485.839
 45.970    461.000    496.481    -35.481    485.740    492.946    485.740    489.275    485.740
 46.070    498.852    496.754      2.098    485.643    493.086    485.643    489.312    485.643
 46.170    500.834    497.069      3.765    485.547    493.257    485.547    489.359    485.547
 46.270    528.000    497.431     30.569    485.454    493.466    485.454    489.419    485.454
 46.370    474.382    497.848    -23.465    485.362    493.717    485.362    489.493    485.362
 46.470    539.772    498.328     41.444    485.272    494.018    485.272    489.581    485.272
 46.570    459.409    498.884    -39.475    485.183    494.382    485.183    489.685    485.183
 46.670    516.000    499.536     16.464    485.097    494.825    485.097    489.808    485.097
 46.770    514.037    500.316     13.721    485.012    495.378    485.012    489.949    485.012
 46.870    504.000    501.286      2.714    484.929    496.102    484.929    490.113    484.929
 46.970    507.000    502.572      4.428    484.848    497.118    484.848    490.301    484.848
 47.070    464.309    504.417    -40.108    484.769    498.668    484.769    490.516    484.769
 47.170    478.000    507.252    -29.252    484.692    501.179    484.692    490.760    484.692
 47.270    510.000    511.730     -1.730    484.616    505.300    484.616    491.038    484.616
 47.370    516.000    518.649     -2.649    484.542    511.826    484.542    491.354    484.542
 47.470    530.707    528.686      2.022    484.470    521.426    484.470    491.710    484.470
 47.570    548.000    541.933      6.067    484.399    534.191    484.399    492.113    484.399
 47.670    557.375    557.349      0.026    484.330    549.074    484.330    492.568    484.330
 47.770    570.000    572.292     -2.292    484.263    563.430    484.263    493.080    484.263
 47.870    561.330    582.681    -21.350    484.198    573.173    484.198    493.655    484.198
 47.970    553.375    584.837    -31.462    484.135    574.622    484.135    494.299    484.135
 48.070    546.454    578.404    -31.950    484.073    567.414    484.073    495.020    484.073
 48.170    560.000    566.757     -6.757    484.013    554.914    484.013    495.823    484.013
 48.270    551.000    554.170     -3.170    483.955    541.386    483.955    496.716    483.955
 48.370    584.000    543.606     40.394    483.898    529.787    483.898    497.702    483.898
 48.470    561.769    536.384     25.385    483.843    521.433    483.843    498.786    483.843
 48.570    516.000    532.606    -16.606    483.790    516.423    483.790    499.969    483.790
 48.670    508.000    531.713    -23.713    483.739    514.203    483.739    501.247    483.739
 48.770    557.000    532.973     24.027    483.689    514.051    483.689    502.610    483.689
 48.870    568.984    535.791     33.193    483.641    515.390    483.641    504.043    483.641
 48.970    507.000    539.838    -32.838    483.594    517.918    483.594    505.515    483.594
 49.070    510.000    545.086    -35.086    483.550    521.649    483.550    506.988    483.550
 49.170    522.000    551.959    -29.959    483.507    527.062    483.507    508.405    483.507
 49.270    570.000    561.824      8.176    483.465    535.589    483.465    509.699    483.465
 49.370    558.000    578.220    -20.220    483.426    550.845    483.426    510.795    483.426
 49.470    602.176    609.073     -6.897    483.388    580.828    483.388    511.617    483.388
 49.570    635.691    669.415    -33.724    483.351    640.631    483.351    512.099    483.351
 49.670    793.000    782.364     10.636    483.316    753.411    483.316    512.201    483.316
 49.770    920.438    974.327    -53.889    483.283    945.590    483.283    511.915    483.283
 49.870   1310.000   1261.296     48.704    483.252   1233.146    483.252    511.265    483.252
 49.970   1675.048   1628.899     46.149    483.222   1601.672    483.222    510.305    483.222
 50.070   1993.000   2016.554    -23.554    483.194   1990.533    483.194    509.107    483.194
 50.170   2322.623   2319.434      3.189    483.167   2294.832    483.167    507.748    483.167
 50.270   2353.437   2424.163    -70.726    483.142   2401.091    483.142    506.302    483.142
 50.370   2285.921   2283.286      2.635    483.119   2261.743    483.119    504.829    483.119
 50.470   1930.000   1959.267    -29.267    483.097   1939.182    483.097    503.378    483.097
 50.570   1576.000   1570.002      5.998    483.077   1551.276    483.077    501.984    483.077
 50.670   1173.000   1215.904    -42.904    483.058   1198.437    483.058    500.668    483.058
 50.770    893.000    950.267    -57.267    483.041    933.965    483.041    499.445    483.041
 50.870    759.898    781.028    -21.129    483.025    765.803    483.025    498.321    483.025
 50.970    642.000    687.938    -45.938    483.011    673.706    483.011    497.296    483.011
 51.070    622.000    642.046    -20.046    482.999    628.721    482.999    496.368    482.999
 51.170    593.737    618.612    -24.875    482.988    606.106    482.988    495.534    482.988
 51.270    650.000    602.366     47.634    482.978    590.594    482.978    494.786    482.978
 51.370    610.000    587.288     22.712    482.971    576.170    482.971    494.120    482.971
 51.470    605.000    572.789     32.211    482.964    562.250    482.964    493.528    482.964
 51.570    569.165    559.892      9.273    482.959    549.866    482.959    493.004    482.959
 51.670    553.000    549.465      3.535    482.956    539.893    482.956    492.543    482.956
 51.770    538.303    541.810     -3.507    482.954    532.638    482.954    492.138    482.954
 51.870    533.000    536.742     -3.742    482.954    527.921    482.954    491.783    482.954
 51.970    581.000    533.817     47.183    482.955    525.303    482.955    491.475    482.955
 52.070    521.000    532.559    -11.559    482.957    524.314    482.957    491.209    482.957
 52.170    521.754    532.621    -10.867    482.961    524.607    482.961    490.981    482.961
 52.270    576.882    533.860     43.022    482.967    526.044    482.967    490.787    482.967
 52.370    578.000    536.407     41.593    482.974    528.760    482.974    490.625    482.974
 52.470    555.000    540.793     14.207    482.982    533.288    482.982    490.491    482.982
 52.570    534.000    548.199    -14.199    482.992    540.810    482.992    490.384    482.992
 52.670    604.000    560.824     43.176    483.003    553.528    483.003    490.302    483.003
 52.770    535.196    582.237    -47.041    483.015    575.013    483.015    490.242    483.015
 52.870    567.698    617.383    -49.685    483.029    610.212    483.029    490.203    483.029
 52.970    692.000    671.793     20.207    483.045    664.655    483.045    490.185    483.045
 53.070    741.015    749.679     -8.664    483.061    742.559    483.061    490.186    483.061
 53.170    790.710    851.102    -60.392    483.079    843.986    483.079    490.205    483.079
 53.270    962.157    968.853     -6.697    483.099    961.729    483.099    490.241    483.099
 53.370   1109.000   1085.883     23.117    483.120   1078.739    483.120    490.295    483.120
 53.470   1243.000   1175.004     67.996    483.142   1167.827    483.142    490.365    483.142
 53.570   1223.629   1206.613     17.016    483.165   1199.386    483.165    490.452    483.165
 53.670   1105.000   1167.873    -62.873    483.190   1160.573    483.190    490.556    483.190
 53.770   1107.294   1074.442     32.852    483.216   1067.046    483.216    490.676    483.216
 53.870    933.000    956.694    -23.694    483.243    949.179    483.243    490.812    483.243
 53.970    897.052    840.934     56.118    483.272    833.283    483.272    490.965    483.272
 54.070    752.000    742.950      9.050    483.302    735.148    483.302    491.136    483.302
 54.170    675.000    668.902      6.098    483.333    660.934    483.333    491.323    483.333
 54.270    567.722    618.047    -50.325    483.366    609.899    483.366    491.530    483.366
 54.370    621.546    585.857     35.689    483.399    577.513    483.399    491.754    483.399
 54.470    601.749    566.778     34.971    483.434    558.222    483.434    491.999    483.434
 54.570    567.000    556.001     10.999    483.470    547.214    483.470    492.264    483.470
 54.670    533.825    550.128    -16.303    483.508    541.091    483.508    492.551    483.508
 54.770    534.000    547.098    -13.098    483.546    537.789    483.546    492.861    483.546
 54.870    502.583    545.803    -43.220    483.586    536.198    483.586    493.196    483.586
 54.970    588.646    545.701     42.944    483.627    535.777    483.627    493.557    483.627
 55.070    598.000    546.559     51.441    483.670    536.288    483.670    493.946    483.670
 55.170    505.108    548.295    -43.187    483.713    537.648    483.713    494.365    483.713
 55.270    597.335    550.921     46.415    483.757    539.866    483.757    494.818    483.757
 55.370    565.359    554.519     10.840    483.803    543.022    483.803    495.306    483.803
 55.470    528.000    559.264    -31.264    483.850    547.286    483.850    495.833    483.850
 55.570    552.000    565.502    -13.502    483.898    553.003    483.898    496.402    483.898
 55.670    558.000    573.934    -15.934    483.947    560.867    483.947    497.019    483.947
 55.770    635.250    585.992     49.259    483.997    572.306    483.997    497.688    483.997
 55.870    575.940    604.512    -28.572    484.049    590.150    484.049    498.414    484.049
 55.970    645.000    634.714     10.286    484.101    619.612    484.101    499.203    484.101
 56.070    704.000    685.259     18.741    484.154    669.344    484.154    500.064    484.154
 56.170    725.084    768.726    -43.642    484.209    751.919    484.209    501.003    484.209
 56.270    820.000    900.424    -80.424    484.264    882.638    484.264    502.029    484.264
 56.370   1008.000   1094.517    -86.517    484.321   1075.657    484.321    503.154    484.321
 56.470   1303.837   1357.335    -53.498    484.379   1337.301    484.379    504.387    484.379
 56.570   1629.000   1679.287    -50.287    484.437   1657.976    484.437    505.742    484.437
 56.670   1964.000   2027.912    -63.912    484.497   2005.213    484.497    507.232    484.497
 56.770   2340.121   2345.167     -5.045    484.558   2320.956    484.558    508.872    484.558
 56.870   2476.000   2555.359    -79.359    484.619   2529.490    484.619    510.679    484.619
 56.970   2571.000   2593.797    -22.797    484.682   2566.083    484.682    512.669    484.682
 57.070   2409.000   2447.447    -38.447    484.745   2417.651    484.745    514.862    484.745
 57.170   2097.928   2165.633    -67.705    484.810   2133.490    484.810    517.276    484.810
 57.270   1834.000   1825.427      8.573    484.875   1790.659    484.875    519.932    484.875
 57.370   1504.000   1493.773     10.227    484.942   1456.100    484.942    522.850    484.942
 57.470   1271.685   1212.797     58.888    485.009   1171.935    485.009    526.048    485.009
 57.570   1004.806   1000.014      4.792    485.077    955.671    485.077    529.545    485.077
 57.670    844.000    854.259    -10.259    485.147    806.137    485.147    533.354    485.147
 57.770    755.000    763.795     -8.795    485.217    711.585    485.217    537.483    485.217
 57.870    685.871    713.972    -28.101    485.287    657.365    485.287    541.932    485.287
 57.970    674.575    692.448    -17.873    485.359    631.145    485.359    546.688    485.359
 58.070    679.000    691.412    -12.412    485.432    625.140    485.432    551.719    485.432
 58.170    730.000    707.462     22.538    485.505    636.003    485.505    556.973    485.505
 58.270    756.000    740.153     15.847    485.579    663.368    485.579    562.363    485.579
 58.370    821.481    790.027     31.454    485.654    707.899    485.654    567.771    485.654
 58.470    810.000    856.699    -46.699    485.730    769.369    485.730    573.040    485.730
 58.570    882.180    937.296    -55.116    485.807    845.099    485.807    577.977    485.807
 58.670   1013.000   1025.532    -12.532    485.884    929.030    485.884    582.360    485.884
 58.770   1068.263   1112.329    -44.066    485.963   1012.312    485.963    585.961    485.963
 58.870   1209.000   1188.662     20.338    486.042   1086.134    486.042    588.567    486.042
 58.970   1318.099   1247.670     70.429    486.121   1143.801    486.121    590.009    486.121
 59.070   1367.000   1283.142     83.858    486.202   1179.191    486.202    590.194    486.202
 59.170   1382.000   1289.371     92.629    486.283   1186.597    486.283    589.113    486.283
 59.270   1316.000   1266.440     49.560    486.365   1166.014    486.365    586.851    486.365
 59.370   1256.000   1224.053     31.947    486.447   1126.981    486.447    583.567    486.447
 59.470   1226.274   1177.096     49.177    486.530   1084.181    486.530    579.469    486.530
 59.570   1219.000   1139.605     79.395    486.614   1051.421    486.614    574.786    486.614
 59.670   1182.000   1123.421     58.579    486.699   1040.323    486.699    569.743    486.699
 59.770   1188.000   1138.404     49.596    486.784   1060.552    486.784    564.536    486.784
 59.870   1174.418   1189.772    -15.354    486.870   1117.165    486.870    559.329    486.870
 59.970   1311.000   1273.789     37.211    486.956   1206.307    486.956    554.247    486.956
 60.070   1382.000   1375.337      6.663    487.043   1312.778    487.043    549.378    487.043
 60.170   1509.000   1468.761     40.239    487.131   1410.874    487.131    544.781    487.131
 60.270   1581.000   1523.110     57.890    487.219   1469.615    487.219    540.491    487.219
 60.370   1507.000   1513.706     -6.706    487.308   1464.307    487.308    536.521    487.308
 60.470   1503.000   1435.669     67.331    487.397   1390.053    487.397    532.876    487.397
 60.570   1307.000   1306.365      0.635    487.487   1264.215    487.487    529.546    487.487
 60.670   1161.000   1153.886      7.114    487.578   1114.890    487.578    526.520    487.578
 60.770   1053.000   1004.237     48.763    487.669    968.098    487.669    523.780    487.669
 60.870    928.121    875.285     52.836    487.760    841.726    487.760    521.307    487.760
 60.970    792.000    775.849     16.151    487.852    744.616    487.852    519.080    487.852
 61.070    678.041    707.423    -29.381    487.944    678.284    487.944    517.078    487.944
 61.170    725.000    667.262     57.738    488.037    640.010    488.037    515.281    488.037
 61.270    678.000    651.678     26.322    488.131    626.125    488.131    513.669    488.131
 61.370    701.000    658.458     42.542    488.225    634.435    488.225    512.222    488.225
 61.470    684.000    687.822     -3.822    488.319    665.178    488.319    510.921    488.319
 61.570    745.000    741.805      3.195    488.413    720.408    488.413    509.750    488.413
 61.670    846.000    822.340     23.660    488.508    802.074    488.508    508.692    488.508
 61.770    950.336    928.596     21.740    488.604    909.362    488.604    507.732    488.604
 61.870   1053.000   1054.359     -1.359    488.700   1036.075    488.700    506.856    488.700
 61.970   1120.886   1186.268    -65.382    488.796   1168.871    488.796    506.054    488.796
 62.070   1376.388   1303.672     72.716    488.893   1287.112    488.893    505.317    488.893
 62.170   1313.965   1381.585    -67.620    488.989   1365.821    488.989    504.636    488.989
 62.270   1305.000   1398.939    -93.939    489.087   1383.935    489.087    504.005    489.087
 62.370   1355.688   1349.955      5.733    489.184   1335.668    489.184    503.421    489.184
 62.470   1163.000   1248.158    -85.158    489.282   1234.540    489.282    502.879    489.282
 62.570   1042.000   1117.862    -75.862    489.380   1104.864    489.380    502.378    489.380
 62.670    961.508    982.852    -21.344    489.479    970.427    489.479    501.914    489.479
 62.770    810.000    860.524    -50.524    489.577    848.629    489.577    501.487    489.577
 62.870    753.000    760.572     -7.572    489.676    749.168    489.676    501.093    489.676
 62.970    681.918    685.832     -3.914    489.775    674.885    489.775    500.732    489.775
 63.070    579.000    634.233    -55.233    489.875    623.712    489.875    500.402    489.875
 63.170    567.000    601.154    -34.154    489.974    591.031    489.974    500.100    489.974
 63.270    625.000    581.489     43.511    490.074    571.739    490.074    499.825    490.074
 63.370    554.000    570.987    -16.987    490.174    561.583    490.174    499.576    490.174
 63.470    585.964    566.837     19.127    490.275    557.757    490.275    499.350    490.275
 63.570    581.268    567.746     13.522    490.375    558.967    490.375    499.147    490.375
 63.670    569.000    573.756     -4.756    490.475    565.257    490.475    498.964    490.475
 63.770    558.113    585.963    -27.850    490.576    577.723    490.576    498.800    490.576
 63.870    648.740    606.163     42.577    490.677    598.161    490.677    498.655    490.677
 63.970    604.753    636.346    -31.593    490.778    628.562    490.778    498.526    490.778
 64.070    636.000    678.017    -42.017    490.879    670.434    490.879    498.413    490.879
 64.170    747.000    731.364     15.636    490.980    723.966    490.980    498.315    490.980
 64.270    848.993    794.401     54.591    491.081    787.173    491.081    498.230    491.081
 64.370    809.673    862.268    -52.595    491.182    855.200    491.182    498.158    491.182
 64.470    887.491    926.981    -39.490    491.283    920.066    491.283    498.099    491.283
 64.570    977.000    978.333     -1.333    491.384    971.568    491.384    498.050    491.384
 64.670    985.000   1006.768    -21.768    491.486   1000.151    491.486    498.012    491.486
 64.770   1027.000   1007.307     19.693    491.587   1000.836    491.587    497.984    491.587
 64.870    935.986    981.468    -45.482    491.688    975.138    491.688    497.966    491.688
 64.970    922.000    935.917    -13.917    491.790    929.721    491.790    497.956    491.790
 65.070    932.000    879.702     52.298    491.891    873.631    491.891    497.955    491.891
 65.170    859.000    821.431     37.569    491.992    815.472    491.992    497.962    491.992
 65.270    798.066    767.227     30.839    492.093    761.368    492.093    497.977    492.093
 65.370    687.000    720.155    -33.155    492.194    714.383    492.194    497.999    492.194
 65.470    712.000    680.912     31.088    492.295    675.215    492.295    498.028    492.295
 65.570    634.000    649.021    -15.021    492.396    643.388    492.396    498.063    492.396
 65.670    584.000    623.679    -39.679    492.497    618.100    492.497    498.105    492.497
 65.770    651.448    604.023     47.425    492.598    598.491    492.598    498.154    492.598
 65.870    569.000    589.169    -20.169    492.698    583.677    492.698    498.208    492.698
 65.970    599.971    578.283     21.688    492.799    572.826    492.799    498.269    492.799
 66.070    541.000    570.657    -29.657    492.899    565.230    492.899    498.335    492.899
 66.170    607.591    565.730     41.860    492.999    560.329    492.999    498.407    492.999
 66.270    555.000    563.073     -8.073    493.099    557.694    493.099    498.484    493.099
 66.370    520.902    562.370    -41.469    493.198    557.007    493.198    498.567    493.198
 66.470    528.529    563.432    -34.903    493.298    558.079    493.298    498.656    493.298
 66.570    551.000    566.252    -15.252    493.397    560.905    493.397    498.750    493.397
 66.670    594.359    571.118     23.241    493.496    565.772    493.496    498.849    493.496
 66.770    596.000    578.789     17.211    493.595    573.437    493.595    498.954    493.595
 66.870    554.918    590.765    -35.847    493.693    585.402    493.693    499.065    493.693
 66.970    625.000    609.651     15.349    493.791    604.271    493.791    499.181    493.791
 67.070    661.908    639.537     22.371    493.889    634.133    493.889    499.303    493.889
 67.170    635.356    686.238    -50.882    493.987    680.805    493.987    499.431    493.987
 67.270    757.000    757.137     -0.137    494.084    751.670    494.084    499.565    494.084
 67.370    885.000    860.322     24.678    494.181    854.817    494.181    499.705    494.181
 67.470    955.000   1002.846    -47.846    494.278    997.301    494.278    499.851    494.278
 67.570   1122.000   1188.189    -66.189    494.374   1182.602    494.374    500.004    494.374
 67.670   1338.000   1413.383    -75.383    494.470   1407.756    494.470    500.164    494.470
 67.770   1673.000   1666.501      6.499    494.566   1660.838    494.566    500.332    494.566
 67.870   1929.000   1925.132      3.868    494.661   1919.438    494.661    500.507    494.661
 67.970   2158.774   2156.459      2.315    494.756   2150.735    494.756    500.689    494.756
 68.070   2243.634   2320.802    -77.168    494.850   2315.046    494.850    500.881    494.850
 68.170   2461.000   2382.287     78.713    494.944   2376.487    494.944    501.081    494.944
 68.270   2352.000   2325.550     26.450    495.037   2319.679    495.037    501.290    495.037
 68.370   2225.000   2164.995     60.005    495.130   2159.017    495.130    501.510    495.130
 68.470   1982.000   1936.028     45.972    495.223   1929.900    495.223    501.741    495.223
 68.570   1783.000   1678.382    104.618    495.315   1672.067    495.315    501.983    495.315
 68.670   1442.000   1425.202     16.798    495.407   1418.673    495.407    502.238    495.407
 68.770   1162.000   1199.297    -37.297    495.498   1192.532    495.498    502.506    495.498
 68.870   1021.557   1012.962      8.595    495.588   1005.949    495.588    502.789    495.588
 68.970    890.379    869.459     20.920    495.679    862.189    495.679    503.088    495.679
 69.070    800.000    765.501     34.499    495.768    757.964    495.768    503.404    495.768
 69.170    723.000    694.120     28.880    495.857    686.307    495.857    503.740    495.857
 69.270    689.000    647.228     41.772    495.945    639.125    495.945    504.096    495.945
 69.370    628.000    617.387     10.613    496.033    608.979    496.033    504.476    496.033
 69.470    592.000    598.700     -6.700    496.121    589.963    496.121    504.881    496.121
 69.570    595.000    586.979      8.021    496.207    577.889    496.207    505.316    496.207
 69.670    614.000    579.514     34.486    496.293    570.040    496.293    505.782    496.293
 69.770    540.000    574.679    -34.679    496.379    564.785    496.379    506.285    496.379
 69.870    575.000    571.559      3.441    496.463    561.205    496.463    506.828    496.463
 69.970    535.000    569.668    -34.668    496.548    558.807    496.548    507.418    496.548
 70.070    588.939    568.764     20.175    496.631    557.343    496.631    508.060    496.631
 70.170    580.979    568.748     12.231    496.714    556.707    496.714    508.762    496.714
 70.270    576.000    569.622      6.378    496.796    556.892    496.796    509.532    496.796
 70.370    577.340    571.486      5.854    496.877    557.990    496.877    510.379    496.877
 70.470    592.000    574.581     17.419    496.958    560.229    496.958    511.314    496.958
 70.570    523.000    579.367    -56.367    497.038    564.059    497.038    512.349    497.038
 70.670    555.000    586.654    -31.654    497.117    570.276    497.117    513.497    497.117
 70.770    621.000    597.776     23.224    497.196    580.196    497.196    514.774    497.196
 70.870    628.634    614.781     13.853    497.274    595.853    497.274    516.195    497.274
 70.970    625.000    640.593    -15.593    497.351    620.153    497.351    517.779    497.351
 71.070    658.357    679.034    -20.677    497.427    656.896    497.427    519.544    497.427
 71.170    708.000    734.579    -26.579    497.502    710.540    497.502    521.510    497.502
 71.270    842.496    811.750     30.746    497.577    785.584    497.577    523.696    497.577
 71.370    868.000    914.095    -46.095    497.651    885.559    497.651    526.122    497.651
 71.470    974.000   1042.862    -68.862    497.724   1011.694    497.724    528.806    497.724
 71.570   1196.000   1195.593      0.407    497.796   1161.520    497.796    531.765    497.796
 71.670   1368.551   1364.950      3.601    497.868   1327.686    497.868    535.012    497.868
 71.770   1517.122   1538.000    -20.879    497.938   1497.257    497.938    538.552    497.938
 71.870   1587.000   1696.294   -109.294    498.008   1651.789    498.008    542.385    498.008
 71.970   1891.000   1817.571     73.429    498.076   1769.039    498.076    546.496    498.076
 72.070   1847.000   1880.624    -33.624    498.144   1827.830    498.144    550.854    498.144
 72.170   1929.000   1873.153     55.847    498.211   1815.913    498.211    555.404    498.211
 72.270   1827.000   1797.702     29.298    498.277   1735.905    498.277    560.063    498.277
 72.370   1753.000   1670.204     82.796    498.342   1603.854    498.342    564.712    498.342
 72.470   1519.000   1512.679      6.321    498.406   1441.933    498.406    569.193    498.406
 72.570   1322.747   1346.206    -23.460    498.470   1271.415    498.470    573.313    498.470
 72.670   1128.076   1187.266    -59.190    498.532   1109.003    498.532    576.850    498.532
 72.770   1012.394   1046.700    -34.306    498.593    965.765    498.593    579.582    498.593
 72.870    907.000    929.964    -22.964    498.654    847.355    498.654    581.312    498.654
 72.970    803.000    838.051    -35.051    498.713    754.902    498.713    581.904    498.713
 73.070    768.000    768.808     -0.808    498.771    686.300    498.771    581.314    498.771
 73.170    705.000    718.346    -13.346    498.829    637.610    498.829    579.595    498.829
 73.270    693.033    682.275     10.758    498.885    604.298    498.885    576.888    498.885
 73.370    621.000    656.554    -35.554    498.940    582.122    498.940    573.393    498.940
 73.470    670.545    637.935     32.610    498.994    567.614    498.994    569.336    498.994
 73.570    674.000    624.086     49.914    499.047    558.218    499.047    564.935    499.047
 73.670    616.861    613.482      3.379    499.100    552.220    499.100    560.381    499.100
 73.770    647.403    605.207     42.195    499.151    548.549    499.151    555.828    499.151
 73.870    562.000    598.750    -36.750    499.201    546.579    499.201    551.393    499.201
 73.970    611.000    593.824     17.176    499.249    545.942    499.249    547.156    499.249
 74.070    593.000    590.235      2.765    499.297    546.392    499.297    543.168    499.297
 74.170    577.311    587.784    -10.474    499.344    547.700    499.344    539.461    499.344
 74.270    583.000    586.216     -3.216    499.389    549.598    499.389    536.045    499.389
 74.370    572.419    585.182    -12.764    499.434    551.736    499.434    532.923    499.434
 74.470    542.681    584.247    -41.566    499.477    553.684    499.477    530.088    499.477
 74.570    672.000    582.918     89.082    499.519    554.964    499.519    527.525    499.519
 74.670    612.719    580.758     31.961    499.560    555.152    499.560    525.218    499.560
 74.770    582.706    577.541      5.166    499.600    554.043    499.600    523.149    499.600
 74.870    613.164    573.356     39.808    499.638    551.744    499.638    521.299    499.638
 74.970    549.243    568.570    -19.327    499.676    548.643    499.676    519.646    499.676
 75.070    597.000    563.688     33.312    499.712    545.265    499.712    518.172    499.712
 75.170    513.381    559.243    -45.862    499.747    542.161    499.747    516.859    499.747
 75.270    589.957    555.749     34.209    499.780    539.865    499.780    515.688    499.780
 75.370    583.000    553.701     29.299    499.813    538.888    499.813    514.643    499.813
 75.470    595.000    553.588     41.412    499.844    539.733    499.844    513.709    499.844
 75.570    579.023    555.893     23.130    499.874    542.898    499.874    512.874    499.874
 75.670    573.000    561.083     11.917    499.903    548.858    499.903    512.125    499.903
 75.770    560.000    569.549     -9.549    499.930    558.019    499.930    511.451    499.930
 75.870    563.844    581.528    -17.684    499.957    570.625    499.957    510.843    499.957
 75.970    620.000    596.984     23.016    499.982    586.648    499.982    510.293    499.982
 76.070    645.000    615.487     29.513    500.005    605.667    500.005    509.794    500.005
 76.170    603.000    636.114    -33.114    500.028    626.764    500.028    509.339    500.028
 76.270    682.813    657.385     25.428    500.049    648.464    500.049    508.924    500.049
 76.370    682.000    677.263      4.737    500.068    668.738    500.068    508.543    500.068
 76.470    702.000    693.294      8.706    500.087    685.135    500.087    508.193    500.087
 76.570    703.000    702.989      0.011    500.104    695.171    500.104    507.870    500.104
 76.670    681.790    704.533    -22.743    500.119    697.032    500.119    507.572    500.119
 76.770    723.384    697.508     25.876    500.134    690.304    500.134    507.295    500.134
 76.870    659.018    683.100    -24.082    500.147    676.173    500.147    507.037    500.147
 76.970    633.968    663.561    -29.593    500.158    656.892    500.158    506.797    500.158
 77.070    698.000    641.420     56.580    500.168    634.993    500.168    506.573    500.168
 77.170    593.000    618.919    -25.919    500.177    612.716    500.177    506.363    500.177
 77.270    601.000    597.767      3.233    500.185    591.773    500.185    506.166    500.185
 77.370    600.000    579.090     20.910    500.191    573.292    500.191    505.981    500.191
 77.470    516.000    563.465    -47.465    500.195    557.849    500.195    505.806    500.195
 77.570    574.000    551.008     22.992    500.199    545.562    500.199    505.641    500.199
 77.670    545.947    541.494      4.453    500.200    536.207    500.200    505.486    500.200
 77.770    494.000    534.495    -40.495    500.201    529.356    500.201    505.338    500.201
 77.870    489.273    529.501    -40.228    500.199    524.502    500.199    505.198    500.199
 77.970    502.000    526.014    -24.014    500.197    521.147    500.197    505.064    500.197
 78.070    478.000    523.607    -45.607    500.193    518.863    500.193    504.937    500.193
 78.170    536.000    521.943     14.057    500.187    517.314    500.187    504.816    500.187
 78.270    497.000    520.778    -23.778    500.180    516.258    500.180    504.700    500.180
 78.370    508.000    519.947    -11.947    500.172    515.529    500.172    504.590    500.172
 78.470    478.196    519.346    -41.150    500.162    515.025    500.162    504.483    500.162
 78.570    522.945    518.917      4.028    500.151    514.686    500.151    504.381    500.151
 78.670    531.768    518.627     13.140    500.138    514.483    500.138    504.283    500.138
 78.770    540.228    518.469     21.758    500.123    514.405    500.123    504.189    500.123
 78.870    481.421    518.447    -37.026    500.107    514.457    500.107    504.098    500.107
 78.970    535.222    518.574     16.648    500.090    514.655    500.090    504.010    500.090
 79.070    489.575    518.872    -29.297    500.071    515.018    500.071    503.925    500.071
 79.170    496.457    519.359    -22.903    500.050    515.568    500.050    503.842    500.050
 79.270    579.000    520.042     58.958    500.028    516.308    500.028    503.762    500.028
 79.370    522.803    521.020      1.783    500.005    517.340    500.005    503.684    500.005
 79.470    485.669    522.301    -36.632    499.980    518.671    499.980    503.608    499.980
 79.570    532.911    523.928      8.983    499.953    520.345    499.953    503.534    499.953
 79.670    506.000    525.972    -19.972    499.925    522.432    499.925    503.462    499.925
 79.770    483.000    528.528    -45.528    499.895    525.029    499.895    503.391    499.895
 79.870    541.000    531.738      9.262    499.863    528.277    499.863    503.321    499.863
 79.970    513.980    535.796    -21.816    499.830    532.371    499.830    503.251    499.830
 80.070    513.845    540.967    -27.122    499.796    537.577    499.796    503.183    499.796
 80.170    545.000    547.595     -2.595    499.760    544.238    499.760    503.114    499.760
 80.270    600.648    556.083     44.565    499.722    552.759    499.722    503.045    499.722
 80.370    538.074    566.840    -28.766    499.683    563.549    499.683    502.976    499.683
 80.470    540.000    580.183    -40.183    499.642    576.924    499.642    502.905    499.642
 80.570    553.000    596.231    -43.231    499.599    593.005    499.599    502.834    499.599
 80.670    654.467    614.816     39.652    499.555    611.624    499.555    502.760    499.555
 80.770    655.601    635.423     20.178    499.509    632.266    499.509    502.685    499.509
 80.870    661.000    657.177      3.823    499.461    654.056    499.461    502.608    499.461
 80.970    665.000    678.904    -13.904    499.412    675.820    499.412    502.529    499.412
 81.070    676.000    699.272    -23.272    499.362    696.225    499.362    502.447    499.362
 81.170    729.000    716.991     12.009    499.309    713.982    499.309    502.364    499.309
 81.270    663.000    730.962    -67.962    499.255    727.990    499.255    502.279    499.255
 81.370    718.145    740.364    -22.219    499.199    737.429    499.199    502.193    499.199
 81.470    746.000    744.708      1.292    499.142    741.809    499.142    502.105    499.142
 81.570    785.572    743.869     41.703    499.083    741.005    499.083    502.016    499.083
 81.670    789.000    738.051     50.949    499.022    735.219    499.022    501.926    499.022
 81.770    737.000    727.740      9.260    498.960    724.938    498.960    501.836    498.960
 81.870    766.561    713.728     52.832    498.896    710.954    498.896    501.745    498.896
 81.970    717.000    697.104     19.896    498.830    694.354    498.830    501.654    498.830
 82.070    707.000    679.079     27.921    498.763    676.351    498.763    501.562    498.763
 82.170    692.460    660.734     31.726    498.694    658.026    498.694    501.471    498.694
 82.270    624.000    642.839    -18.839    498.623    640.148    498.623    501.379    498.623
 82.370    629.443    625.842      3.601    498.551    623.166    498.551    501.286    498.551
 82.470    562.000    609.987    -47.987    498.477    607.324    498.477    501.193    498.477
 82.570    562.000    595.454    -33.454    498.401    592.802    498.401    501.101    498.401
 82.670    546.639    582.432    -35.793    498.323    579.789    498.323    501.007    498.323
 82.770    598.955    571.124     27.830    498.244    568.488    498.244    500.914    498.244
 82.870    566.000    561.711      4.289    498.163    559.081    498.163    500.820    498.163
 82.970    555.000    554.327      0.673    498.080    551.701    498.080    500.725    498.080
 83.070    516.000    549.047    -33.047    497.996    546.424    497.996    500.630    497.996
 83.170    551.000    545.879      5.121    497.910    543.257    497.910    500.535    497.910
 83.270    515.000    544.751    -29.751    497.822    542.130    497.822    500.439    497.822
 83.370    588.792    545.500     43.293    497.733    542.877    497.733    500.343    497.733
 83.470    529.000    547.855    -18.855    497.642    545.230    497.642    500.245    497.642
 83.570    545.000    551.440     -6.440    497.549    548.813    497.549    500.148    497.549
 83.670    568.000    555.773     12.227    497.454    553.144    497.454    500.049    497.454
 83.770    556.000    560.287     -4.287    497.358    557.655    497.358    499.950    497.358
 83.870    553.000    564.356    -11.356    497.259    561.721    497.259    499.850    497.259
 83.970    536.000    567.354    -31.354    497.160    564.717    497.160    499.750    497.160
 84.070    550.941    568.747    -17.806    497.058    566.109    497.058    499.648    497.058
 84.170    552.000    568.217    -16.217    496.955    565.579    496.955    499.546    496.955
 84.270    528.000    565.737    -37.737    496.850    563.101    496.850    499.443    496.850
 84.370    549.000    561.572    -12.572    496.743    558.937    496.743    499.339    496.743
 84.470    511.000    556.174    -45.174    496.634    553.540    496.634    499.235    496.634
 84.570    541.000    550.065     -9.065    496.524    547.431    496.524    499.129    496.524
 84.670    542.000    543.740     -1.740    496.412    541.106    496.412    499.023    496.412
 84.770    573.841    537.614     36.226    496.298    534.978    496.298    498.916    496.298
 84.870    488.814    532.001    -43.187    496.183    529.361    496.183    498.808    496.183
 84.970    520.468    527.103     -6.635    496.066    524.458    496.066    498.699    496.066
 85.070    492.905    523.020    -30.115    495.947    520.369    495.947    498.589    495.947
 85.170    525.000    519.767      5.233    495.826    517.108    495.826    498.478    495.826
 85.270    496.914    517.296    -20.382    495.704    514.627    495.704    498.367    495.704
 85.370    487.762    515.523    -27.760    495.580    512.843    495.580    498.255    495.580
 85.470    542.000    514.350     27.650    495.454    511.657    495.454    498.142    495.454
 85.570    539.000    513.688     25.312    495.326    510.982    495.326    498.028    495.326
 85.670    499.000    513.471    -14.471    495.197    510.750    495.197    497.913    495.197
 85.770    472.400    513.663    -41.264    495.066    510.926    495.066    497.797    495.066
 85.870    534.000    514.270     19.730    494.933    511.514    494.933    497.681    494.933
 85.970    486.874    515.333    -28.458    494.798    512.558    494.798    497.564    494.798
 86.070    515.000    516.935     -1.935    494.662    514.140    494.662    497.446    494.662
 86.170    509.000    519.193    -10.193    494.524    516.375    494.524    497.328    494.524
 86.270    566.000    522.249     43.751    494.384    519.407    494.384    497.209    494.384
 86.370    549.000    526.259     22.741    494.243    523.390    494.243    497.089    494.243
 86.470    516.000    531.366    -15.366    494.099    528.469    494.099    496.969    494.099
 86.570    568.000    537.686     30.314    493.954    534.757    493.954    496.848    493.954
 86.670    596.000    545.269     50.731    493.808    542.306    493.808    496.726    493.808
 86.770    508.438    554.070    -45.632    493.659    551.071    493.659    496.605    493.659
 86.870    596.000    563.922     32.078    493.509    560.885    493.509    496.482    493.509
 86.970    545.000    574.507    -29.507    493.357    571.430    493.357    496.360    493.357
 87.070    538.091    585.351    -47.261    493.204    582.234    493.204    496.237    493.204
 87.170    582.343    595.822    -13.478    493.048    592.663    493.048    496.113    493.048
 87.270    633.415    605.154     28.261    492.891    601.955    492.891    495.990    492.891
 87.370    589.000    612.530    -23.530    492.733    609.292    492.733    495.866    492.733
 87.470    642.216    617.203     25.013    492.572    613.928    492.572    495.742    492.572
 87.570    564.000    618.685    -54.685    492.410    615.374    492.410    495.619    492.410
 87.670    653.000    616.887     36.113    492.246    613.543    492.246    495.495    492.246
 87.770    608.000    612.152     -4.152    492.081    608.775    492.081    495.372    492.081
 87.870    638.000    605.148     32.852    491.914    601.738    491.914    495.249    491.914
 87.970    604.000    596.711      7.289    491.745    593.268    491.745    495.126    491.745
 88.070    606.104    587.716     18.388    491.574    584.237    491.574    495.004    491.574
 88.170    599.000    578.985     20.015    491.402    575.466    491.402    494.882    491.402
 88.270    583.000    571.227     11.773    491.228    567.667    491.228    494.762    491.228
 88.370    590.338    565.006     25.331    491.052    561.400    491.052    494.642    491.052
 88.470    555.000    560.710     -5.710    490.875    557.054    490.875    494.524    490.875
 88.570    583.000    558.541     24.459    490.696    554.832    490.696    494.407    490.696
 88.670    533.059    558.518    -25.459    490.515    554.752    490.515    494.292    490.515
 88.770    591.195    560.487     30.708    490.333    556.660    490.333    494.178    490.333
 88.870    582.000    564.131     17.869    490.149    560.240    490.149    494.067    490.149
 88.970    579.000    569.000     10.000    489.964    565.040    489.964    493.958    489.964
 89.070    593.000    574.527     18.473    489.776    570.493    489.776    493.852    489.776
 89.170    589.000    580.062      8.938    489.588    575.949    489.588    493.749    489.588
 89.270    603.000    584.913     18.087    489.397    580.716    489.397    493.649    489.397
 89.370    549.229    588.412    -39.184    489.205    584.124    489.205    493.554    489.205
 89.470    610.110    590.011     20.099    489.011    585.624    489.011    493.462    489.011
 89.570    636.316    589.388     46.928    488.816    584.895    488.816    493.376    488.816
 89.670    583.000    586.524     -3.524    488.619    581.915    488.619    493.295    488.619
 89.770    594.000    581.683     12.317    488.420    576.947    488.420    493.219    488.420
 89.870    599.384    575.325     24.059    488.220    570.454    488.220    493.151    488.220
 89.970    580.000    567.997     12.003    488.019    562.980    488.019    493.090    488.019
 90.070    515.282    560.234    -44.951    487.815    555.061    487.815    493.036    487.815
 90.170    550.000    552.509     -2.509    487.610    547.170    487.610    492.991    487.610
 90.270    553.000    545.201      7.799    487.404    539.684    487.404    492.956    487.404
 90.370    500.000    538.573    -38.573    487.196    532.867    487.196    492.931    487.196
 90.470    503.000    532.841    -29.841    486.986    526.933    486.986    492.917    486.986
 90.570    497.000    528.070    -31.070    486.775    521.949    486.775    492.915    486.775
 90.670    564.151    524.266     39.885    486.562    517.917    486.562    492.926    486.562
 90.770    529.000    521.378      7.622    486.348    514.787    486.348    492.950    486.348
 90.870    516.000    519.322     -3.322    486.132    512.473    486.132    492.989    486.132
 90.970    561.704    517.999     43.704    485.915    510.876    485.915    493.044    485.915
 91.070    536.000    517.318     18.682    485.696    509.902    485.696    493.116    485.696
 91.170    521.729    517.204      4.525    485.476    509.478    485.476    493.205    485.476
 91.270    516.000    517.614     -1.614    485.254    509.558    485.254    493.312    485.254
 91.370    485.963    518.541    -32.578    485.031    510.135    485.031    493.438    485.031
 91.470    505.000    520.020    -15.020    484.807    511.241    484.807    493.584    484.807
 91.570    533.000    522.124     10.876    484.580    512.952    484.580    493.749    484.580
 91.670    519.393    524.969     -5.576    484.353    515.382    484.353    493.936    484.353
 91.770    536.000    528.705      7.295    484.124    518.680    484.124    494.143    484.124
 91.870    556.067    533.509     22.558    483.893    523.024    483.893    494.370    483.893
 91.970    546.000    539.574      6.426    483.661    528.607    483.661    494.617    483.661
 92.070    569.000    547.093     21.907    483.428    535.624    483.428    494.882    483.428
 92.170    544.000    556.238    -12.238    483.193    544.248    483.193    495.164    483.193
 92.270    583.000    567.143     15.857    482.957    554.616    482.957    495.459    482.957
 92.370    572.500    579.875     -7.375    482.719    566.798    482.719    495.766    482.719
 92.470    611.000    594.417     16.583    482.480    580.783    482.480    496.079    482.480
 92.570    577.000    610.649    -33.649    482.240    596.455    482.240    496.393    482.240
 92.670    678.000    628.332     49.668    481.999    613.582    481.999    496.701    481.999
 92.770    670.000    647.095     22.905    481.756    631.802    481.756    496.995    481.756
 92.870    697.184    666.454     30.731    481.511    650.639    481.511    497.267    481.511
 92.970    735.000    685.811     49.189    481.266    669.508    481.266    497.506    481.266
 93.070    734.006    704.530     29.476    481.019    687.780    481.019    497.703    481.019
 93.170    717.000    722.029     -5.029    480.770    704.885    480.770    497.848    480.770
 93.270    752.000    737.900     14.100    480.521    720.424    480.521    497.930    480.521
 93.370    738.000    751.983    -13.983    480.270    734.245    480.270    497.942    480.270
 93.470    756.698    764.356     -7.659    480.018    746.433    480.018    497.877    480.018
 93.570    786.000    775.237     10.763    479.765    757.209    479.765    497.731    479.765
 93.670    764.000    784.909    -20.909    479.510    766.858    479.510    497.502    479.510
 93.770    791.581    793.696     -2.114    479.254    775.700    479.254    497.194    479.254
 93.870    821.000    801.806     19.194    478.997    783.941    478.997    496.809    478.997
 93.970    799.025    809.518    -10.494    478.739    791.852    478.739    496.356    478.739
 94.070    810.143    817.181     -7.038    478.480    799.772    478.480    495.842    478.480
 94.170    803.992    825.163    -21.171    478.219    808.060    478.219    495.277    478.219
 94.270    781.209    833.725    -52.516    477.957    816.967    477.957    494.673    477.957
 94.370    890.098    842.875     47.223    477.695    826.491    477.695    494.039    477.695
 94.470    804.838    852.260    -47.421    477.431    836.268    477.431    493.386    477.431
 94.570    874.000    861.141     12.859    477.165    845.551    477.165    492.722    477.165
 94.670    806.568    868.478    -61.909    476.899    853.293    476.899    492.056    476.899
 94.770    914.000    873.005     40.995    476.632    858.220    476.632    491.394    476.632
 94.870    980.000    873.468    106.532    476.364    859.074    476.364    490.742    476.364
 94.970    832.584    868.880    -36.296    476.094    854.861    476.094    490.105    476.094
 95.070    877.000    858.778     18.222    475.824    845.115    475.824    489.486    475.824
 95.170    835.019    843.372     -8.353    475.552    830.043    475.552    488.888    475.552
 95.270    839.000    823.524     15.476    475.280    810.502    475.280    488.314    475.280
 95.370    836.597    800.582     36.014    475.006    787.841    475.006    487.765    475.006
 95.470    794.000    776.172     17.828    474.732    763.682    474.732    487.241    474.732
 95.570    783.000    752.018     30.982    474.456    739.750    474.456    486.744    474.456
 95.670    689.005    729.823    -40.818    474.180    717.747    474.180    486.275    474.180
 95.770    731.000    711.192     19.808    473.902    699.279    473.902    485.832    473.902
 95.870    669.000    697.590    -28.590    473.624    685.809    473.624    485.418    473.624
 95.970    728.000    690.309     37.691    473.345    678.631    473.345    485.031    473.345
 96.070    710.000    690.453     19.547    473.065    678.848    473.065    484.671    473.065
 96.170    679.678    698.922    -19.244    472.784    687.361    472.784    484.339    472.784
 96.270    733.659    716.402     17.257    472.502    704.856    472.502    484.035    472.502
 96.370    692.000    743.337    -51.337    472.219    731.777    472.219    483.759    472.219
 96.470    783.738    779.888      3.850    471.936    768.285    471.936    483.510    471.936
 96.570    798.000    825.877    -27.877    471.652    814.203    471.652    483.290    471.652
 96.670    903.017    880.720     22.297    471.367    868.946    471.367    483.098    471.367
 96.770    932.000    943.354    -11.354    471.081    931.452    471.081    482.936    471.081
 96.870    963.430   1012.181    -48.751    470.794   1000.122    470.794    482.803    470.794
 96.970   1087.000   1085.028      1.972    470.507   1072.782    470.507    482.701    470.507
 97.070   1172.065   1159.142     12.924    470.219   1146.681    470.219    482.631    470.219
 97.170   1212.000   1231.222    -19.222    469.931   1218.514    469.931    482.594    469.931
 97.270   1313.000   1297.522     15.478    469.641   1284.538    469.641    482.591    469.641
 97.370   1331.000   1354.073    -23.073    469.351   1340.777    469.351    482.624    469.351
 97.470   1444.652   1397.051     47.601    469.061   1383.410    469.061    482.695    469.061
 97.570   1356.437   1423.346    -66.909    468.770   1409.322    468.770    482.806    468.770
 97.670   1509.679   1431.127     78.552    468.478   1416.678    468.478    482.959    468.478
 97.770   1465.000   1420.168     44.832    468.185   1405.248    468.185    483.157    468.185
 97.870   1335.000   1391.891    -56.891    467.893   1376.450    467.893    483.402    467.893
 97.970   1394.903   1349.001     45.902    467.599   1332.986    467.599    483.696    467.599
 98.070   1288.000   1294.975     -6.975    467.305   1278.328    467.305    484.043    467.305
 98.170   1297.000   1233.585     63.415    467.011   1216.246    467.011    484.446    467.011
 98.270   1234.895   1168.567     66.328    466.716   1150.473    466.716    484.908    466.716
 98.370   1121.000   1103.412     17.588    466.421   1084.495    466.421    485.432    466.421
 98.470   1093.065   1041.248     51.816    466.125   1021.442    466.125    486.022    466.125
 98.570   1005.000    984.794     20.206    465.829    964.026    465.829    486.680    465.829
 98.670    942.032    936.334      5.697    465.532    914.530    465.532    487.409    465.532
 98.770    909.000    897.729     11.271    465.235    874.814    465.235    488.214    465.235
 98.870    854.000    870.438    -16.438    464.938    846.334    464.938    489.096    464.938
 98.970    809.000    855.553    -46.553    464.640    830.179    464.640    490.058    464.640
 99.070    808.000    853.834    -45.834    464.343    827.109    464.343    491.102    464.343
 99.170    888.000    865.749     22.251    464.045    837.591    464.045    492.230    464.045
 99.270    867.033    891.495    -24.462    463.746    861.820    463.746    493.442    463.746
 99.370    952.000    930.998     21.002    463.448    899.724    463.448    494.740    463.448
 99.470   1000.000    983.897     16.103    463.149    950.943    463.149    496.121    463.149
 99.570   1059.784   1049.498     10.285    462.850   1014.786    462.850    497.583    462.850
 99.670   1125.008   1126.725     -1.716    462.551   1090.180    462.551    499.123    462.551
 99.770   1230.000   1214.051     15.949    462.252   1175.607    462.252    500.733    462.252
 99.870   1263.000   1309.450    -46.450    461.952   1269.048    461.952    502.406    461.952
 99.970   1422.000   1410.354     11.646    461.653   1367.947    461.653    504.130    461.653
100.070   1503.000   1513.663    -10.663    461.354   1469.218    461.354    505.891    461.354
100.170   1546.230   1615.817    -69.588    461.054   1569.321    461.054    507.669    461.054
100.270   1626.000   1713.000    -87.000    460.755   1664.460    460.755    509.443    460.755
100.370   1775.900   1801.407    -25.507    460.455   1750.856    460.455    511.185    460.455
100.470   1868.000   1877.572     -9.572    460.156   1825.073    460.156    512.865    460.156
100.570   2023.439   1938.630     84.809    459.857   1884.280    459.857    514.449    459.857
100.670   2063.182   1982.405     80.776    459.557   1926.334    459.557    515.897    459.557
100.770   2030.000   2007.362     22.638    459.258   1949.742    459.258    517.172    459.258
100.870   2047.000   2012.564     34.436    458.959   1953.602    458.959    518.235    458.959
100.970   2063.806   1997.762     66.044    458.661   1937.701    458.661    519.048    458.661
101.070   1932.339   1963.644    -31.305    458.362   1902.761    458.362    519.580    458.362
101.170   1897.000   1912.094    -15.094    458.064   1850.688    458.064    519.805    458.064
101.270   1894.000   1846.225     47.775    457.766   1784.612    457.766    519.709    457.766
101.370   1820.788   1770.100     50.688    457.468   1708.602    457.468    519.284    457.468
101.470   1668.600   1688.221    -19.621    457.171   1627.157    457.171    518.537    457.171
101.570   1591.000   1605.011    -14.011    456.874   1544.685    456.874    517.482    456.874
101.670   1465.000   1524.311    -59.311    456.577   1465.005    456.577    516.145    456.577
101.770   1427.000   1449.184    -22.184    456.281   1391.148    456.281    514.557    456.281
101.870   1405.000   1381.785     23.215    455.985   1325.235    455.985    512.755    455.985
101.970   1383.000   1323.352     59.648    455.690   1268.465    455.690    510.778    455.690
102.070   1313.000   1274.239     38.761    455.395   1221.153    455.395    508.664    455.395
102.170   1214.258   1233.988    -19.731    455.100   1182.806    455.100    506.452    455.100
102.270   1216.097   1201.436     14.662    454.806   1152.223    454.806    504.177    454.806
102.370   1161.000   1174.845    -13.845    454.513   1127.639    454.513    501.869    454.513
102.470   1186.000   1152.089     33.911    454.221   1106.898    454.221    499.556    454.221
102.570   1065.000   1130.882    -65.882    453.929   1087.691    453.929    497.260    453.929
102.670   1138.000   1109.058     28.942    453.637   1067.832    453.637    495.001    453.637
102.770   1078.000   1084.854     -6.854    453.347   1045.544    453.347    492.793    453.347
102.870   1081.000   1057.136     23.864    453.057   1019.680    453.057    490.647    453.057
102.970   1045.748   1025.480     20.268    452.768    989.805    452.768    488.573    452.768
103.070   1048.531    990.110     58.421    452.479    956.139    452.479    486.577    452.479
103.170    997.087    951.728     45.359    452.192    919.378    452.192    484.663    452.192
103.270    881.000    911.313    -30.313    451.905    880.500    451.905    482.833    451.905
103.370    886.000    869.950     16.050    451.620    840.587    451.620    481.089    451.620
103.470    876.000    828.709     47.291    451.335    800.711    451.335    479.431    451.335
103.570    862.000    788.568     73.432    451.051    761.850    451.051    477.857    451.051
103.670    734.056    750.364    -16.308    450.768    724.845    450.768    476.366    450.768
103.770    691.000    714.770    -23.770    450.486    690.369    450.486    474.956    450.486
103.870    675.000    682.272     -7.272    450.205    658.913    450.205    473.625    450.205
103.970    684.000    653.173     30.827    449.926    630.782    449.926    472.370    449.926
104.070    638.254    627.604     10.650    449.647    606.109    449.647    471.187    449.647
104.170    635.000    605.538     29.462    449.370    584.873    449.370    470.073    449.370
104.270    563.000    586.828    -23.828    449.093    566.928    449.093    469.026    449.093
104.370    557.000    571.231    -14.231    448.818    552.035    448.818    468.041    448.818
104.470    620.000    558.447     61.553    448.545    539.898    448.545    467.115    448.545
104.570    569.000    548.146     20.854    448.272    530.190    448.272    466.246    448.272
104.670    558.000    539.998     18.002    448.001    522.585    448.001    465.429    448.001
104.770    560.000    533.692     26.308    447.731    516.773    447.731    464.661    447.731
104.870    561.000    528.951     32.049    447.463    512.483    447.463    463.941    447.463
104.970    559.000    525.543     33.457    447.196    509.483    447.196    463.264    447.196
105.070    562.043    523.284     38.760    446.931    507.592    446.931    462.627    446.931
105.170    519.215    522.036     -2.821    446.667    506.677    446.667    462.030    446.667
105.270    542.000    521.714     20.286    446.405    506.652    446.405    461.468    446.405
105.370    544.248    522.270     21.978    446.144    507.474    446.144    460.939    446.144
105.470    493.792    523.698    -29.906    445.885    509.137    445.885    460.443    445.885
105.570    554.000    526.021     27.979    445.627    511.668    445.627    459.976    445.627
105.670    568.000    529.287     38.713    445.371    515.116    445.371    459.536    445.371
105.770    524.570    533.560     -8.990    445.117    519.545    445.117    459.124    445.117
105.870    528.794    538.905    -10.111    444.865    525.024    444.865    458.735    444.865
105.970    544.553    545.381     -0.828    444.614    531.611    444.614    458.371    444.614
106.070    569.000    553.022     15.978    444.366    539.342    444.366    458.029    444.366
106.170    546.000    561.829    -15.829    444.119    548.221    444.119    457.708    444.119
106.270    615.500    571.760     43.740    443.874    558.204    443.874    457.408    443.874
106.370    626.144    582.719     43.425    443.631    569.198    443.631    457.127    443.631
106.470    650.000    594.552     55.448    443.390    581.049    443.390    456.865    443.390
106.570    606.000    607.046     -1.046    443.152    593.544    443.152    456.622    443.152
106.670    610.000    619.940     -9.940    442.915    606.424    442.915    456.397    442.915
106.770    592.172    632.912    -40.740    442.680    619.367    442.680    456.189    442.680
106.870    633.000    645.598    -12.598    442.448    632.009    442.448    455.999    442.448
106.970    654.000    657.607     -3.607    442.218    643.960    442.218    455.826    442.218
107.070    638.045    668.540    -30.495    441.990    654.822    441.990    455.670    441.990
107.170    693.580    678.024     15.556    441.764    664.221    441.764    455.531    441.764
107.270    682.000    685.761     -3.761    441.541    671.859    441.541    455.409    441.541
107.370    649.772    691.584    -41.813    441.320    677.568    441.320    455.304    441.320
107.470    691.000    695.465     -4.465    441.101    681.322    441.101    455.216    441.101
107.570    645.000    697.548    -52.548    440.885    683.263    440.885    455.146    440.885
107.670    733.752    698.125     35.627    440.671    683.683    440.671    455.094    440.671
107.770    676.000    697.583    -21.583    440.460    682.969    440.460    455.060    440.460
107.870    663.000    696.347    -33.347    440.252    681.544    440.252    455.045    440.252
107.970    688.093    694.825     -6.732    440.046    679.817    440.046    455.050    440.046
108.070    709.233    693.365     15.868    439.843    678.135    439.843    455.074    439.843
108.170    663.000    692.230    -29.230    439.643    676.759    439.643    455.119    439.643
108.270    647.000    691.575    -44.575    439.445    675.845    439.445    455.185    439.445
108.370    646.000    691.443    -45.443    439.250    675.434    439.250    455.274    439.250
108.470    655.000    691.762    -36.762    439.058    675.454    439.058    455.386    439.058
108.570    713.179    692.350     20.828    438.869    675.721    438.869    455.522    438.869
108.670    678.693    692.927    -14.234    438.683    675.953    438.683    455.684    438.683
108.770    691.000    693.140     -2.140    438.500    675.797    438.500    455.872    438.500
108.870    702.000    692.598      9.402    438.319    674.861    438.319    456.089    438.319
108.970    681.000    690.922     -9.922    438.142    672.765    438.142    456.336    438.142
109.070    714.623    687.804     26.819    437.968    669.196    437.968    456.614    437.968
109.170    672.000    683.047    -11.047    437.798    663.959    437.798    456.926    437.798
109.270    700.000    676.603     23.397    437.630    657.001    437.630    457.273    437.630
109.370    626.000    668.569    -42.569    437.466    648.420    437.466    457.657    437.466
109.470    704.000    659.166     44.834    437.305    638.431    437.305    458.080    437.305
109.570    630.000    648.692    -18.692    437.147    627.333    437.147    458.546    437.147
109.670    639.000    637.492      1.508    436.993    615.467    436.993    459.056    436.993
109.770    636.000    625.914     10.086    436.842    603.179    436.842    459.613    436.842
109.870    613.000    614.292     -1.292    436.695    590.800    436.695    460.220    436.695
109.970    579.348    602.928    -23.580    436.551    578.630    436.551    460.880    436.551
110.070    621.821    592.088     29.734    436.411    566.930    436.411    461.597    436.411
110.170    606.000    581.988     24.012    436.275    555.914    436.275    462.373    436.275
110.270    544.000    572.801    -28.801    436.142    545.752    436.142    463.213    436.142
110.370    593.000    564.651     28.349    436.013    536.564    436.013    464.120    436.013
110.470    554.000    557.618     -3.618    435.888    528.426    435.888    465.097    435.888
110.570    597.701    551.738     45.963    435.767    521.370    435.767    466.149    435.767
110.670    523.071    547.008    -23.937    435.649    515.389    435.649    467.280    435.649
110.770    557.938    543.395     14.543    435.536    510.447    435.536    468.494    435.536
110.870    617.000    540.843     76.157    435.426    506.483    435.426    469.795    435.426
110.970    528.000    539.277    -11.277    435.321    503.417    435.321    471.187    435.321
111.070    570.625    538.610     32.015    435.220    501.159    435.220    472.675    435.220
111.170    541.519    538.752      2.767    435.123    499.615    435.123    474.263    435.123
111.270    535.000    539.613     -4.613    435.030    498.689    435.030    475.956    435.030
111.370    601.000    541.105     59.895    434.941    498.291    434.941    477.757    434.941
111.470    577.368    543.149     34.219    434.857    498.336    434.857    479.671    434.857
111.570    527.000    545.672    -18.672    434.777    498.749    434.777    481.700    434.777
111.670    507.743    548.613    -40.870    434.701    499.463    434.701    483.850    434.701
111.770    533.000    551.919    -18.919    434.630    500.425    434.630    486.124    434.630
111.870    586.552    555.550     31.002    434.564    501.590    434.564    488.523    434.564
111.970    577.312    559.476     17.836    434.502    502.925    434.502    491.051    434.502
112.070    575.549    563.677     11.872    434.445    504.411    434.445    493.709    434.445
112.170    555.000    568.146    -13.146    434.392    506.039    434.392    496.498    434.392
112.270    527.623    572.887    -45.264    434.344    507.812    434.344    499.419    434.344
112.370    575.000    577.913     -2.913    434.301    509.743    434.301    502.470    434.301
112.470    545.000    583.246    -38.246    434.263    511.859    434.263    505.650    434.263
112.570    562.000    588.914    -26.914    434.230    514.189    434.230    508.954    434.230
112.670    572.000    594.919    -22.919    434.201    516.742    434.201    512.378    434.201
112.770    551.000    601.406    -50.406    434.178    519.671    434.178    515.913    434.178
112.870    585.000    608.409    -23.409    434.160    523.017    434.160    519.552    434.160
112.970    658.925    616.013     42.912    434.147    526.879    434.147    523.281    434.147
113.070    613.246    624.339    -11.092    434.139    531.392    434.139    527.086    434.139
113.170    655.229    633.543     21.686    434.137    536.731    434.137    530.947    434.137
113.270    685.540    643.832     41.708    434.140    543.125    434.140    534.844    434.140
113.370    594.000    655.471    -61.471    434.148    550.864    434.148    538.751    434.148
113.470    623.000    668.807    -45.807    434.161    560.326    434.161    542.638    434.161
113.570    697.000    684.282     12.718    434.180    571.984    434.180    546.471    434.180
113.670    659.495    702.454    -42.959    434.205    586.437    434.205    550.212    434.205
113.770    696.000    724.025    -28.025    434.235    604.426    434.235    553.819    434.235
113.870    700.094    749.854    -49.761    434.271    626.856    434.271    557.250    434.271
113.970    786.941    780.987      5.954    434.313    654.818    434.313    560.455    434.313
114.070    775.330    818.669    -43.339    434.360    689.605    434.360    563.389    434.360
114.170    832.492    864.358    -31.866    434.414    732.722    434.414    566.003    434.414
114.270    921.000    919.727      1.273    434.473    785.888    434.473    568.253    434.473
114.370   1001.000    986.655     14.345    434.538    851.022    434.538    570.097    434.538
114.470   1028.000   1067.204    -39.204    434.609    930.220    434.609    571.500    434.609
114.570   1161.776   1163.573     -1.796    434.687   1025.709    434.687    572.436    434.687
114.670   1227.177   1278.036    -50.859    434.770   1139.782    434.770    572.885    434.770
114.770   1451.000   1412.856     38.144    434.860   1274.710    434.860    572.841    434.860
114.870   1594.000   1570.179     23.821    434.956   1432.634    434.956    572.306    434.956
114.970   1801.000   1751.899     49.101    435.058   1615.439    435.058    571.292    435.058
115.070   2046.000   1959.523     86.477    435.167   1824.607    435.167    569.824    435.167
115.170   2096.942   2194.012    -97.070    435.282   2061.070    435.282    567.932    435.282
115.270   2536.000   2455.627     80.373    435.404   2325.051    435.404    565.654    435.404
115.370   2734.945   2743.778     -8.834    435.533   2615.919    435.533    563.035    435.533
115.470   3189.000   3056.900    132.100    435.668   2932.062    435.668    560.121    435.668
115.570   3308.000   3392.341    -84.341    435.809   3270.784    435.809    556.959    435.809
115.670   3809.000   3746.304     62.696    435.958   3628.240    435.958    553.597    435.958
115.770   4163.000   4113.813     49.187    436.114   3999.412    436.114    550.081    436.114
115.870   4563.900   4488.742     75.157    436.276   4378.132    436.276    546.454    436.276
115.970   4759.000   4863.880   -104.880    436.445   4757.149    436.445    542.756    436.445
116.070   5178.000   5231.055    -53.055    436.622   5128.257    436.622    539.022    436.622
116.170   5639.927   5581.315     58.612    436.805   5482.474    436.805    535.286    436.805
116.270   5894.000   5905.178    -11.178    436.996   5810.290    436.996    531.574    436.996
116.370   6129.000   6192.976    -63.976    437.194   6102.012    437.194    527.911    437.194
116.470   6671.000   6435.301    235.699    437.400   6348.212    437.400    524.316    437.400
116.570   6770.000   6623.566    146.434    437.612   6540.285    437.612    520.807    437.612
116.670   6550.000   6750.653   -200.653    437.833   6671.097    437.833    517.397    437.833
116.770   6994.000   6811.554    182.446    438.061   6735.625    438.061    514.097    438.061
116.870   6894.544   6803.886     90.658    438.296   6731.473    438.296    510.916    438.296
116.970   6767.872   6728.153     39.718    438.539   6659.134    438.539    507.860    438.539
117.070   6498.064   6587.679    -89.616    438.790   6521.925    438.790    504.933    438.790
117.170   6363.000   6388.234    -25.234    439.048   6325.608    439.048    502.139    439.048
117.270   6111.000   6137.451    -26.451    439.315   6077.813    439.315    499.479    439.315
117.370   5691.000   5844.171   -153.171    439.589   5787.379    439.589    496.954    439.589
117.470   5315.000   5517.823   -202.823    439.872   5463.735    439.872    494.563    439.872
117.570   5022.000   5167.907   -145.907    440.162   5116.384    440.162    492.304    440.162
117.670   4716.000   4803.587    -87.587    440.461   4754.491    440.461    490.177    440.461
117.770   4466.000   4433.391     32.609    440.768   4386.590    440.768    488.178    440.768
117.870   4115.000   4064.995     50.005    441.084   4020.360    441.084    486.305    441.084
117.970   3675.271   3705.064    -29.793    441.407   3662.473    441.407    484.554    441.407
118.070   3454.454   3359.171     95.284    441.739   3318.506    441.739    482.922    441.739
118.170   3039.000   3031.750      7.250    442.080   2992.900    442.080    481.404    442.080
118.270   2785.000   2726.118     58.882    442.429   2688.977    442.429    479.998    442.429
118.370   2430.000   2444.520    -14.520    442.787   2408.989    442.787    478.698    442.787
118.470   2199.000   2188.227     10.773    443.154   2154.213    443.154    477.501    443.154
118.570   1921.000   1957.645    -36.645    443.529   1925.060    443.529    476.402    443.529
118.670   1718.195   1752.444    -34.249    443.914   1721.205    443.914    475.398    443.914
118.770   1548.000   1571.691    -23.691    444.307   1541.719    444.307    474.484    444.307
118.870   1474.496   1413.988     60.508    444.710   1385.212    444.710    473.656    444.710
118.970   1293.895   1277.606     16.289    445.121   1249.955    445.121    472.910    445.121
119.070   1174.000   1160.605     13.395    445.542   1134.016    445.542    472.242    445.542
119.170   1073.018   1060.947     12.070    445.972   1035.358    445.972    471.649    445.972
119.270    959.979    976.591    -16.612    446.412    951.945    446.412    471.127    446.412
119.370    918.848    905.562     13.286    446.860    881.804    446.860    470.672    446.860
119.470    786.681    846.012    -59.330    447.319    823.091    447.319    470.281    447.319
119.570    791.270    796.251     -4.981    447.787    774.119    447.787    469.950    447.787
119.670    744.000    754.771    -10.771    448.264    733.382    448.264    469.678    448.264
119.770    731.079    720.252     10.827    448.751    699.562    448.751    469.461    448.751
119.870    692.000    691.554      0.446    449.249    671.522    449.249    469.295    449.249
119.970    703.351    667.691     35.660    449.756    648.280    449.756    469.180    449.756
120.070    610.803    647.891    -37.088    450.273    629.063    450.273    469.112    450.273
120.170    584.000    631.489    -47.489    450.800    613.210    450.800    469.088    450.800
120.270    574.000    617.926    -43.926    451.337    600.164    451.337    469.108    451.337
120.370    612.439    606.756      5.682    451.884    589.481    451.884    469.169    451.884
120.470    600.000    597.622      2.378    452.442    580.805    452.442    469.269    452.442
120.570    570.000    590.235    -20.235    453.010    573.849    453.010    469.406    453.010
120.670    593.000    584.364      8.636    453.589    568.383    453.589    469.579    453.589
120.770    630.000    579.823     50.177    454.178    564.225    454.178    469.786    454.178
120.870    571.000    576.464     -5.464    454.777    561.226    454.777    470.026    454.777
120.970    505.000    574.165    -69.165    455.388    559.266    455.388    470.298    455.388
121.070    620.043    572.825     47.218    456.009    558.246    456.009    470.600    456.009
121.170    561.000    572.361    -11.361    456.641    558.084    456.641    470.932    456.641
121.270    604.969    572.697     32.271    457.284    558.705    457.284    471.291    457.284
121.370    594.000    573.767     20.233    457.938    560.043    457.938    471.678    457.938
121.470    554.000    575.505    -21.505    458.603    562.036    458.603    472.091    458.603
121.570    577.000    577.848     -0.848    459.280    564.619    459.280    472.529    459.280
121.670    577.000    580.729     -3.729    459.967    567.728    459.967    472.991    459.967
121.770    601.465    584.077     17.388    460.666    571.292    460.666    473.477    460.666
121.870    572.137    587.818    -15.681    461.377    575.238    461.377    473.984    461.377
121.970    584.000    591.869     -7.869    462.099    579.484    462.099    474.514    462.099
122.070    565.000    596.143    -31.143    462.833    583.944    462.833    475.064    462.833
122.170    617.000    600.544     16.456    463.578    588.524    463.578    475.634    463.578
122.270    608.046    604.972      3.074    464.335    593.123    464.335    476.223    464.335
122.370    606.698    609.321     -2.623    465.104    597.637    465.104    476.830    465.104
122.470    615.000    613.482      1.518    465.885    601.958    465.885    477.453    465.885
122.570    604.000    617.344    -13.344    466.678    605.975    466.678    478.094    466.678
122.670    605.000    620.801    -15.801    467.484    609.585    467.484    478.749    467.484
122.770    623.000    623.754     -0.754    468.301    612.687    468.301    479.420    468.301
122.870    659.572    626.114     33.458    469.131    615.195    469.131    480.104    469.131
122.970    603.000    627.813    -24.813    469.973    617.040    469.973    480.801    469.973
123.070    597.503    628.804    -31.301    470.828    618.177    470.828    481.511    470.828
123.170    647.000    629.063     17.937    471.695    618.582    471.695    482.232    471.695
123.270    665.000    628.593     36.407    472.575    618.260    472.575    482.965    472.575
123.370    649.000    627.420     21.580    473.468    617.235    473.468    483.709    473.468
123.470    599.301    625.589    -26.287    474.374    615.553    474.374    484.464    474.374
123.570    629.000    623.160      5.840    475.292    613.277    475.292    485.229    475.292
123.670    646.702    620.205     26.496    476.224    610.476    476.224    486.005    476.224
123.770    597.000    616.802    -19.802    477.169    607.229    477.169    486.791    477.169
123.870    620.000    613.030      6.970    478.127    603.615    478.127    487.588    478.127
123.970    626.000    608.971     17.029    479.098    599.717    479.098    488.397    479.098
124.070    637.719    604.703     33.016    480.083    595.611    480.083    489.216    480.083
124.170    563.713    600.301    -36.588    481.081    591.372    481.081    490.048    481.081
124.270    574.000    595.833    -21.833    482.093    587.069    482.093    490.892    482.093
124.370    641.979    591.362     50.617    483.119    582.763    483.119    491.748    483.119
124.470    611.000    586.941     24.059    484.158    578.509    484.158    492.619    484.158
124.570    545.170    582.618    -37.448    485.212    574.352    485.212    493.503    485.212
124.670    566.449    578.430    -11.981    486.279    570.330    486.279    494.401    486.279
124.770    585.872    574.409     11.463    487.360    566.474    487.360    495.315    487.360
124.870    559.335    570.578    -11.243    488.456    562.807    488.456    496.244    488.456
124.970    614.000    566.955     47.045    489.566    559.347    489.566    497.189    489.566
