neutron_powder_diffraction_0096
R_wp: 4.063
Temperature (K): 870.085
Counts: 83396.00
Wavelength (Ã…): 2.52098
COMMENTS
Test file for demonstrating the .xyy file format in Reel1.0
END OF HEADER
   tth       Y_obs     Y_calc      Y_res    Background    Phase_1_Nuc    Phase_1_Mag    Phase_2_Nuc    Phase_2_Mag
  9.970    627.000    547.505     79.495    546.189    547.186    546.189    546.508    546.189
 10.070    621.000    548.177     72.823    546.776    547.857    546.776    547.096    546.776
 10.170    572.000    548.850     23.150    547.352    548.528    547.352    547.673    547.352
 10.270    547.000    549.526     -2.526    547.916    549.202    547.916    548.238    547.916
 10.370    523.000    550.207    -27.207    548.468    549.883    548.468    548.792    548.468
 10.470    582.000    550.898     31.102    549.009    550.573    549.009    549.334    549.009
 10.570    573.000    551.607     21.393    549.538    551.280    549.538    549.865    549.538
 10.670    622.000    552.337     69.663    550.056    552.009    550.056    550.384    550.056
 10.770    508.066    553.096    -45.029    550.563    552.766    550.563    550.893    550.563
 10.870    529.430    553.896    -24.466    551.059    553.564    551.059    551.390    551.059
 10.970    556.000    554.755      1.245    551.544    554.421    551.544    551.876    551.544
 11.070    607.000    555.695     51.305    552.018    555.360    552.018    552.351    552.018
 11.170    596.000    556.749     39.251    552.481    556.412    552.481    552.816    552.481
 11.270    586.000    557.969     28.031    552.933    557.630    552.933    553.270    552.933
 11.370    639.000    559.440     79.560    553.375    559.100    553.375    553.713    553.375
 11.470    606.000    561.347     44.653    553.806    561.004    553.806    554.145    553.806
 11.570    573.000    564.112      8.888    554.227    563.767    554.227    554.567    554.227
 11.670    556.000    568.720    -12.720    554.637    568.370    554.637    554.979    554.637
 11.770    628.000    577.084     50.916    555.037    576.728    555.037    555.380    555.037
 11.870    593.000    591.986      1.014    555.427    591.620    555.427    555.772    555.427
 11.970    627.000    615.731     11.269    555.806    615.351    555.806    556.153    555.806
 12.070    696.300    647.076     49.224    556.176    646.677    556.176    556.524    556.176
 12.170    647.096    677.140    -30.044    556.535    676.722    556.535    556.885    556.535
 12.270    721.967    689.111     32.857    556.885    688.685    556.885    557.236    556.885
 12.370    625.000    673.483    -48.483    557.225    673.065    557.225    557.577    557.225
 12.470    648.058    642.535      5.523    557.555    642.133    557.555    557.909    557.555
 12.570    572.059    612.719    -40.660    557.875    612.333    557.875    558.231    557.875
 12.670    600.991    591.317      9.674    558.186    590.941    558.186    558.544    558.186
 12.770    614.000    578.561     35.439    558.488    578.191    558.488    558.847    558.488
 12.870    553.007    571.829    -18.822    558.780    571.461    558.780    559.140    558.780
 12.970    552.627    568.414    -15.787    559.063    568.046    559.063    559.425    559.063
 13.070    532.387    566.583    -34.197    559.336    566.216    559.336    559.700    559.336
 13.170    574.000    565.495      8.505    559.601    565.126    559.601    559.966    559.601
 13.270    573.000    564.790      8.210    559.856    564.420    559.856    560.223    559.856
 13.370    578.000    564.315     13.685    560.102    563.944    560.102    560.471    560.102
 13.470    524.000    563.995    -39.995    560.340    563.622    560.340    560.711    560.340
 13.570    528.000    563.784    -35.784    560.568    563.410    560.568    560.941    560.568
 13.670    559.122    563.651     -4.529    560.788    563.275    560.788    561.163    560.788
 13.770    545.613    563.575    -17.962    561.000    563.198    561.000    561.376    561.000
 13.870    536.124    563.542    -27.418    561.202    563.162    561.202    561.580    561.202
 13.970    582.000    563.539     18.461    561.396    563.158    561.396    561.776    561.396
 14.070    524.702    563.560    -38.858    561.582    563.177    561.582    561.964    561.582
 14.170    600.722    563.598     37.124    561.760    563.213    561.760    562.143    561.760
 14.270    536.186    563.648    -27.462    561.929    563.261    561.929    562.314    561.929
 14.370    530.580    563.707    -33.126    562.090    563.318    562.090    562.477    562.090
 14.470    540.382    563.771    -23.389    562.242    563.381    562.242    562.632    562.242
 14.570    514.000    563.839    -49.839    562.387    563.447    562.387    562.779    562.387
 14.670    534.000    563.909    -29.909    562.524    563.515    562.524    562.918    562.524
 14.770    562.230    563.979     -1.750    562.653    563.583    562.653    563.049    562.653
 14.870    568.000    564.049      3.951    562.774    563.651    562.774    563.172    562.774
 14.970    531.000    564.116    -33.116    562.887    563.716    562.887    563.287    562.887
 15.070    507.000    564.182    -57.182    562.993    563.780    562.993    563.395    562.993
 15.170    624.000    564.244     59.756    563.091    563.840    563.091    563.495    563.091
 15.270    551.000    564.303    -13.303    563.182    563.897    563.182    563.588    563.182
 15.370    557.000    564.362     -7.362    563.265    563.954    563.265    563.673    563.265
 15.470    581.470    564.442     17.028    563.341    564.031    563.341    563.751    563.341
 15.570    575.000    564.587     10.413    563.409    564.174    563.409    563.822    563.409
 15.670    529.000    564.641    -35.641    563.471    564.226    563.471    563.886    563.471
 15.770    609.887    564.703     45.185    563.525    564.285    563.525    563.942    563.525
 15.870    547.000    564.737    -17.737    563.572    564.317    563.572    563.991    563.572
 15.970    596.655    564.764     31.892    563.612    564.341    563.612    564.034    563.612
 16.070    558.000    564.785     -6.785    563.645    564.360    563.645    564.069    563.645
 16.170    564.000    564.800     -0.800    563.671    564.374    563.671    564.098    563.671
 16.270    584.334    564.811     19.523    563.690    564.382    563.690    564.120    563.690
 16.370    570.000    564.820      5.180    563.703    564.388    563.703    564.135    563.703
 16.470    589.514    564.820     24.693    563.709    564.386    563.709    564.143    563.709
 16.570    583.000    564.814     18.186    563.709    564.377    563.709    564.145    563.709
 16.670    549.000    564.802    -15.802    563.701    564.363    563.701    564.141    563.701
 16.770    580.000    564.785     15.215    563.688    564.342    563.688    564.130    563.688
 16.870    583.257    564.762     18.495    563.668    564.317    563.668    564.113    563.668
 16.970    532.213    564.733    -32.519    563.642    564.285    563.642    564.089    563.642
 17.070    556.000    564.699     -8.699    563.609    564.249    563.609    564.059    563.609
 17.170    602.091    564.659     37.431    563.571    564.206    563.571    564.024    563.571
 17.270    558.698    564.614     -5.916    563.526    564.158    563.526    563.982    563.526
 17.370    519.000    564.564    -45.564    563.475    564.105    563.475    563.934    563.475
 17.470    542.396    564.508    -22.112    563.418    564.046    563.418    563.880    563.418
 17.570    529.000    564.447    -35.447    563.356    563.982    563.356    563.820    563.356
 17.670    547.000    564.380    -17.380    563.287    563.913    563.287    563.755    563.287
 17.770    520.000    564.308    -44.308    563.213    563.838    563.213    563.683    563.213
 17.870    550.000    564.232    -14.232    563.133    563.758    563.133    563.606    563.133
 17.970    528.000    564.149    -36.149    563.047    563.672    563.047    563.524    563.047
 18.070    583.878    564.062     19.815    562.956    563.582    562.956    563.436    562.956
 18.170    543.000    563.974    -20.974    562.859    563.490    562.859    563.342    562.859
 18.270    595.000    563.882     31.118    562.756    563.395    562.756    563.243    562.756
 18.370    527.304    563.783    -36.479    562.649    563.293    562.649    563.139    562.649
 18.470    571.000    563.677      7.323    562.536    563.183    562.536    563.029    562.536
 18.570    569.000    563.567      5.433    562.417    563.070    562.417    562.914    562.417
 18.670    586.000    563.481     22.519    562.294    562.980    562.294    562.795    562.294
 18.770    539.000    563.402    -24.402    562.165    562.898    562.165    562.670    562.165
 18.870    600.909    563.281     37.629    562.031    562.773    562.031    562.539    562.031
 18.970    509.000    563.151    -54.151    561.893    562.639    561.893    562.404    561.893
 19.070    545.000    563.016    -18.016    561.749    562.501    561.749    562.265    561.749
 19.170    543.000    562.877    -19.877    561.600    562.358    561.600    562.120    561.600
 19.270    588.150    562.734     25.416    561.447    562.211    561.447    561.970    561.447
 19.370    528.000    562.587    -34.587    561.288    562.059    561.288    561.816    561.288
 19.470    535.559    562.435    -26.877    561.125    561.904    561.125    561.657    561.125
 19.570    551.000    562.280    -11.280    560.958    561.744    560.958    561.494    560.958
 19.670    556.127    562.120     -5.993    560.786    561.580    560.786    561.326    560.786
 19.770    533.005    561.957    -28.952    560.609    561.412    560.609    561.154    560.609
 19.870    532.846    561.789    -28.943    560.427    561.240    560.427    560.977    560.427
 19.970    545.000    561.619    -16.619    560.242    561.065    560.242    560.796    560.242
 20.070    577.117    561.458     15.659    560.052    560.899    560.052    560.610    560.052
 20.170    546.000    561.300    -15.300    559.857    560.737    559.857    560.421    559.857
 20.270    531.425    561.150    -29.725    559.658    560.582    559.658    560.227    559.658
 20.370    558.467    560.971     -2.504    559.456    560.398    559.456    560.029    559.456
 20.470    520.000    560.793    -40.793    559.249    560.214    559.249    559.827    559.249
 20.570    579.129    560.604     18.525    559.037    560.020    559.037    559.621    559.037
 20.670    537.000    560.426    -23.426    558.822    559.836    558.822    559.412    558.822
 20.770    574.772    560.239     14.533    558.603    559.644    558.603    559.198    558.603
 20.870    541.137    560.040    -18.903    558.380    559.440    558.380    558.981    558.380
 20.970    542.647    559.838    -17.191    558.153    559.231    558.153    558.760    558.153
 21.070    572.000    559.633     12.367    557.922    559.021    557.922    558.535    557.922
 21.170    547.000    559.427    -12.427    557.688    558.809    557.688    558.307    557.688
 21.270    586.096    559.218     26.878    557.450    558.593    557.450    558.075    557.450
 21.370    522.000    559.007    -37.007    557.208    558.376    557.208    557.839    557.208
 21.470    541.000    558.802    -17.802    556.963    558.164    556.963    557.600    556.963
 21.570    567.600    558.606      8.993    556.714    557.962    556.714    557.358    556.714
 21.670    510.000    558.398    -48.398    556.461    557.746    556.461    557.113    556.461
 21.770    577.000    558.195     18.805    556.205    557.536    556.205    556.864    556.205
 21.870    579.000    557.993     21.007    555.946    557.327    555.946    556.612    555.946
 21.970    572.000    557.781     14.219    555.683    557.108    555.683    556.357    555.683
 22.070    523.329    557.611    -34.282    555.417    556.930    555.417    556.099    555.417
 22.170    530.000    557.423    -27.423    555.148    556.733    555.148    555.838    555.148
 22.270    545.000    557.219    -12.219    554.876    556.521    554.876    555.574    554.876
 22.370    539.000    557.008    -18.008    554.601    556.302    554.601    555.307    554.601
 22.470    560.000    556.818      3.182    554.322    556.103    554.322    555.038    554.322
 22.570    533.000    556.650    -23.650    554.041    555.925    554.041    554.765    554.041
 22.670    572.000    556.455     15.545    553.756    555.721    553.756    554.490    553.756
 22.770    558.328    556.268      2.061    553.469    555.524    553.469    554.213    553.469
 22.870    566.000    556.089      9.911    553.178    555.335    553.178    553.933    553.178
 22.970    568.000    555.912     12.088    552.885    555.148    552.885    553.650    552.885
 23.070    574.000    555.752     18.248    552.589    554.978    552.589    553.365    552.589
 23.170    547.000    555.605     -8.605    552.291    554.819    552.291    553.077    552.291
 23.270    540.251    555.478    -15.227    551.989    554.680    551.989    552.788    551.989
 23.370    611.000    555.379     55.621    551.685    554.569    551.685    552.496    551.685
 23.470    522.000    555.316    -33.316    551.379    554.495    551.379    552.202    551.379
 23.570    589.352    555.298     34.054    551.070    554.464    551.070    551.906    551.070
 23.670    532.000    555.342    -23.342    550.758    554.494    550.758    551.607    550.758
 23.770    553.000    555.461     -2.461    550.444    554.599    550.444    551.307    550.444
 23.870    564.565    555.694      8.872    550.127    554.818    550.127    551.006    550.127
 23.970    599.801    556.095     43.706    549.809    555.204    549.809    550.702    549.809
 24.070    544.000    556.777    -12.777    549.487    555.871    549.487    550.397    549.487
 24.170    573.000    558.002     14.998    549.164    557.080    549.164    550.090    549.164
 24.270    598.000    560.368     37.632    548.838    559.431    548.838    549.782    548.838
 24.370    558.000    565.047     -7.047    548.511    564.095    548.511    549.472    548.511
 24.470    602.000    573.778     28.222    548.181    572.814    548.181    549.161    548.181
 24.570    601.000    588.136     12.864    547.849    587.162    547.849    548.849    547.849
 24.670    642.000    607.780     34.220    547.515    606.800    547.515    548.536    547.515
 24.770    657.000    627.927     29.073    547.179    626.940    547.179    548.221    547.179
 24.870    615.959    638.188    -22.229    546.841    637.185    546.841    547.906    546.841
 24.970    649.000    630.816     18.184    546.501    629.784    546.501    547.590    546.501
 25.070    571.749    611.447    -39.698    546.159    610.377    546.159    547.274    546.159
 25.170    583.000    590.700     -7.700    545.815    589.588    545.815    546.957    545.815
 25.270    565.980    574.564     -8.584    545.470    573.412    545.470    546.640    545.470
 25.370    601.334    564.167     37.167    545.123    562.979    545.123    546.322    545.123
 25.470    570.629    558.214     12.416    544.774    556.990    544.774    546.005    544.774
 25.570    566.000    554.931     11.069    544.424    553.672    544.424    545.687    544.424
 25.670    556.000    553.014      2.986    544.071    551.719    544.071    545.370    544.071
 25.770    566.000    551.755     14.245    543.718    550.422    543.718    545.053    543.718
 25.870    553.000    550.836      2.164    543.363    549.463    543.363    544.738    543.363
 25.970    511.461    550.122    -38.660    543.006    548.707    543.006    544.423    543.006
 26.070    562.708    549.548     13.160    542.648    548.088    542.648    544.109    542.648
 26.170    530.000    549.081    -19.081    542.288    547.574    542.288    543.797    542.288
 26.270    586.000    548.704     37.296    541.927    547.146    541.927    543.486    541.927
 26.370    620.000    548.403     71.597    541.565    546.790    541.565    543.178    541.565
 26.470    545.000    548.172     -3.172    541.201    546.502    541.201    542.872    541.201
 26.570    637.000    548.012     88.988    540.836    546.280    540.836    542.569    540.836
 26.670    584.000    547.923     36.077    540.470    546.125    540.470    542.269    540.470
 26.770    520.000    547.915    -27.915    540.103    546.046    540.103    541.972    540.103
 26.870    546.895    547.995     -1.101    539.735    546.050    539.735    541.680    539.735
 26.970    563.000    548.183     14.817    539.365    546.156    539.365    541.392    539.365
 27.070    566.569    548.503     18.066    538.995    546.387    538.995    541.110    538.995
 27.170    603.000    548.991     54.009    538.623    546.780    538.623    540.833    538.623
 27.270    581.733    549.700     32.033    538.250    547.387    538.250    540.562    538.250
 27.370    572.000    550.712     21.288    537.877    548.289    537.877    540.299    537.877
 27.470    549.000    552.172     -3.172    537.502    549.631    537.502    540.043    537.502
 27.570    590.000    554.431     35.569    537.127    551.761    537.127    539.795    537.127
 27.670    523.725    558.560    -34.834    536.751    555.751    536.751    539.556    536.751
 27.770    520.576    567.774    -47.198    536.374    564.813    536.374    539.328    536.374
 27.870    614.000    589.753     24.247    535.996    586.624    535.996    539.110    535.996
 27.970    656.000    637.001     18.999    535.618    633.683    535.618    538.903    535.618
 28.070    680.000    719.168    -39.168    535.238    715.642    535.238    538.708    535.238
 28.170    762.000    825.658    -63.658    534.858    821.912    534.858    538.526    534.858
 28.270    931.000    912.647     18.353    534.478    908.687    534.478    538.356    534.478
 28.370    950.352    925.967     24.385    534.097    921.802    534.097    538.198    534.097
 28.470    896.000    860.766     35.234    533.715    856.391    533.715    538.053    533.715
 28.570    777.000    773.592      3.408    533.333    768.985    533.333    537.919    533.333
 28.670    750.000    722.118     27.882    532.950    717.256    532.950    537.795    532.950
 28.770    687.482    726.834    -39.352    532.567    721.703    532.567    537.678    532.567
 28.870    721.594    771.475    -49.880    532.183    766.072    532.183    537.564    532.183
 28.970    778.000    815.275    -37.275    531.799    809.611    531.799    537.450    531.799
 29.070    765.000    816.222    -51.222    531.414    810.307    531.414    537.330    531.414
 29.170    742.000    766.185    -24.185    531.029    760.028    531.029    537.197    531.029
 29.270    702.000    694.777      7.223    530.644    688.390    530.644    537.043    530.644
 29.370    680.000    632.643     47.357    530.259    626.049    530.259    536.862    530.259
 29.470    558.746    591.631    -32.884    529.873    584.864    529.873    536.645    529.873
 29.570    546.161    569.310    -23.149    529.487    562.415    529.487    536.384    529.487
 29.670    585.000    558.430     26.570    529.101    551.456    529.101    536.076    529.101
 29.770    575.000    553.041     21.959    528.715    546.041    528.715    535.715    528.715
 29.870    584.000    549.963     34.037    528.329    542.990    528.329    535.302    528.329
 29.970    565.601    547.898     17.703    527.942    541.004    527.942    534.837    527.942
 30.070    614.000    546.397     67.603    527.556    539.628    527.556    534.324    527.556
 30.170    576.000    545.331     30.669    527.169    538.729    527.169    533.770    527.169
 30.270    588.000    544.745     43.255    526.783    538.344    526.783    533.182    526.783
 30.370    591.143    544.920     46.222    526.396    538.746    526.396    532.567    526.396
 30.470    609.000    546.553     62.447    526.010    540.624    526.010    531.934    526.010
 30.570    593.000    550.885     42.115    525.623    545.209    525.623    531.290    525.623
 30.670    511.000    559.410    -48.410    525.237    553.990    525.237    530.641    525.237
 30.770    571.000    572.794     -1.794    524.851    567.626    524.851    529.993    524.851
 30.870    640.000    589.098     50.902    524.465    584.177    524.465    529.350    524.465
 30.970    601.000    602.401     -1.401    524.079    597.721    524.079    528.715    524.079
 31.070    568.893    604.855    -35.962    523.693    600.415    523.693    528.091    523.693
 31.170    627.000    594.109     32.891    523.308    589.904    523.308    527.479    523.308
 31.270    537.338    576.601    -39.264    522.923    572.621    522.923    526.880    522.923
 31.370    593.113    559.965     33.148    522.538    556.193    522.538    526.295    522.538
 31.470    534.000    547.828    -13.828    522.154    544.249    522.154    525.723    522.154
 31.570    498.391    540.393    -42.002    521.769    536.993    521.769    525.165    521.769
 31.670    558.154    536.301     21.852    521.386    533.064    521.386    524.620    521.386
 31.770    594.000    534.084     59.916    521.002    530.998    521.002    524.087    521.002
 31.870    574.000    532.781     41.219    520.619    529.833    520.619    523.566    520.619
 31.970    525.000    531.919     -6.919    520.237    529.099    520.237    523.055    520.237
 32.070    545.000    531.309     13.691    519.855    528.607    519.855    522.555    519.855
 32.170    547.000    530.879     16.121    519.474    528.286    519.474    522.065    519.474
 32.270    550.000    530.603     19.397    519.093    528.111    519.093    521.584    519.093
 32.370    553.000    530.477     22.523    518.712    528.077    518.712    521.111    518.712
 32.470    605.000    530.504     74.496    518.332    528.190    518.332    520.646    518.332
 32.570    513.000    530.701    -17.701    517.953    528.465    517.953    520.188    517.953
 32.670    536.255    531.094      5.161    517.574    528.930    517.574    519.737    517.574
 32.770    527.592    531.723     -4.131    517.197    529.626    517.197    519.293    517.197
 32.870    545.000    532.647     12.353    516.819    530.611    516.819    518.854    516.819
 32.970    510.000    533.951    -23.951    516.443    531.972    516.443    518.420    516.443
 33.070    518.673    535.766    -17.093    516.067    533.839    516.067    517.992    516.067
 33.170    495.249    538.321    -43.071    515.692    536.442    515.692    517.569    515.692
 33.270    586.905    542.080     44.825    515.317    540.245    515.317    517.149    515.317
 33.370    524.027    548.119    -24.093    514.944    546.325    514.944    516.735    514.944
 33.470    561.364    558.899      2.465    514.571    557.140    514.571    516.324    514.571
 33.570    532.168    579.358    -47.190    514.199    577.629    514.199    515.916    514.199
 33.670    574.000    617.432    -43.432    513.828    615.728    513.828    515.513    513.828
 33.770    728.000    682.095     45.905    513.457    680.411    513.457    515.112    513.457
 33.870    788.000    777.308     10.692    513.088    775.641    513.088    514.715    513.088
 33.970    849.392    892.627    -43.235    512.719    890.979    512.719    514.321    512.719
 34.070   1010.000    994.402     15.598    512.352    992.783    512.352    513.930    512.352
 34.170   1067.887   1031.391     36.496    511.985   1029.810    511.985    513.542    511.985
 34.270    992.519    977.967     14.552    511.620    976.421    511.620    513.156    511.620
 34.370    866.000    868.363     -2.363    511.255    866.845    511.255    512.773    511.255
 34.470    691.000    753.758    -62.758    510.891    752.260    510.891    512.392    510.891
 34.570    621.973    663.238    -41.266    510.529    661.756    510.529    512.014    510.529
 34.670    650.728    603.546     47.182    510.167    602.076    510.167    511.638    510.167
 34.770    562.000    568.958     -6.958    509.807    567.501    509.807    511.264    509.807
 34.870    584.000    550.255     33.745    509.447    548.809    509.447    510.893    509.447
 34.970    536.912    539.976     -3.065    509.089    538.541    509.089    510.524    509.089
 35.070    541.000    533.743      7.257    508.732    532.317    508.732    510.157    508.732
 35.170    509.000    529.464    -20.464    508.375    528.047    508.375    509.792    508.375
 35.270    557.115    526.243     30.871    508.021    524.835    508.021    509.429    508.021
 35.370    514.046    523.689     -9.642    507.667    522.287    507.667    509.068    507.667
 35.470    530.000    521.600      8.400    507.314    520.204    507.314    508.709    507.314
 35.570    492.834    519.855    -27.021    506.963    518.465    506.963    508.353    506.963
 35.670    573.000    518.371     54.629    506.613    516.986    506.613    507.998    506.613
 35.770    509.000    517.091     -8.091    506.264    515.711    506.264    507.645    506.264
 35.870    468.000    515.972    -47.972    505.916    514.595    505.916    507.294    505.916
 35.970    522.000    514.982      7.018    505.570    513.607    505.570    506.945    505.570
 36.070    531.000    514.098     16.902    505.225    512.725    505.225    506.598    505.225
 36.170    534.000    513.302     20.698    504.881    511.930    504.881    506.253    504.881
 36.270    546.980    512.580     34.400    504.539    511.209    504.539    505.910    504.539
 36.370    515.000    511.922      3.078    504.198    510.552    504.198    505.568    504.198
 36.470    450.000    511.322    -61.322    503.858    509.951    503.858    505.229    503.858
 36.570    481.685    510.774    -29.089    503.520    509.403    503.520    504.891    503.520
 36.670    543.240    510.278     32.962    503.183    508.906    503.183    504.555    503.183
 36.770    525.000    509.835     15.165    502.847    508.461    502.847    504.222    502.847
 36.870    536.102    509.455     26.647    502.513    508.078    502.513    503.890    502.513
 36.970    547.035    509.162     37.873    502.180    507.783    502.180    503.560    502.180
 37.070    518.000    509.015      8.985    501.849    507.632    501.849    503.232    501.849
 37.170    475.000    509.127    -34.127    501.519    507.741    501.519    502.905    501.519
 37.270    474.457    509.682    -35.225    501.191    508.292    501.191    502.581    501.191
 37.370    483.000    510.905    -27.905    500.864    509.511    500.864    502.259    500.864
 37.470    507.000    512.961     -5.961    500.538    511.563    500.538    501.938    500.538
 37.570    490.000    515.773    -25.773    500.214    514.370    500.214    501.620    500.214
 37.670    494.504    518.799    -24.295    499.892    517.392    499.892    501.303    499.892
 37.770    509.000    520.938    -11.938    499.571    519.526    499.571    500.989    499.571
 37.870    487.000    521.079    -34.079    499.252    519.663    499.252    500.676    499.252
 37.970    516.000    519.130     -3.130    498.934    517.709    498.934    500.365    498.934
 38.070    537.000    516.027     20.973    498.618    514.600    498.618    500.057    498.618
 38.170    525.499    512.713     12.786    498.304    511.278    498.304    499.750    498.304
 38.270    469.842    509.704    -39.862    497.991    508.259    497.991    499.445    497.991
 38.370    508.534    507.253      1.281    497.679    505.797    497.679    499.142    497.679
 38.470    499.000    505.427     -6.427    497.370    503.960    497.370    498.842    497.370
 38.570    457.000    504.125    -47.125    497.061    502.647    497.061    498.543    497.061
 38.670    527.000    503.201     23.799    496.755    501.712    496.755    498.246    496.755
 38.770    473.000    502.523    -29.523    496.450    501.023    496.450    497.952    496.450
 38.870    494.893    501.994     -7.101    496.147    500.483    496.147    497.659    496.147
 38.970    505.000    501.553      3.447    495.846    500.030    495.846    497.369    495.846
 39.070    468.000    501.164    -33.164    495.546    499.630    495.546    497.081    495.546
 39.170    511.000    500.809     10.191    495.248    499.262    495.248    496.795    495.248
 39.270    486.000    500.477    -14.477    494.951    498.919    494.951    496.511    494.951
 39.370    492.000    500.165     -8.165    494.657    498.593    494.657    496.229    494.657
 39.470    533.000    499.868     33.132    494.364    498.283    494.364    495.949    494.364
 39.570    478.733    499.585    -20.852    494.072    497.987    494.072    495.671    494.072
 39.670    456.620    499.315    -42.696    493.783    497.703    493.783    495.396    493.783
 39.770    496.511    499.057     -2.546    493.495    497.430    493.495    495.123    493.495
 39.870    493.794    498.811     -5.017    493.209    497.169    493.209    494.852    493.209
 39.970    502.000    498.577      3.423    492.925    496.919    492.925    494.584    492.925
 40.070    513.506    498.354     15.152    492.643    496.680    492.643    494.317    492.643
 40.170    486.000    498.143    -12.143    492.362    496.452    492.362    494.053    492.362
 40.270    524.000    497.944     26.056    492.083    496.237    492.083    493.792    492.083
 40.370    476.000    497.759    -21.759    491.806    496.034    491.806    493.532    491.806
 40.470    480.000    497.589    -17.589    491.531    495.846    491.531    493.275    491.531
 40.570    534.219    497.435     36.784    491.258    495.673    491.258    493.021    491.258
 40.670    480.990    497.299    -16.309    490.986    495.517    490.986    492.769    490.986
 40.770    455.204    497.184    -41.980    490.716    495.382    490.716    492.519    490.716
 40.870    465.724    497.092    -31.368    490.448    495.270    490.448    492.272    490.448
 40.970    514.186    497.028     17.158    490.182    495.185    490.182    492.027    490.182
 41.070    476.000    496.997    -20.997    489.918    495.132    489.918    491.784    489.918
 41.170    522.000    497.005     24.995    489.656    495.118    489.656    491.545    489.656
 41.270    489.000    497.062     -8.062    489.395    495.152    489.395    491.308    489.395
 41.370    477.298    497.179    -19.881    489.137    495.245    489.137    491.073    489.137
 41.470    479.000    497.372    -18.372    488.880    495.413    488.880    490.841    488.880
 41.570    467.574    497.666    -30.092    488.625    495.681    488.625    490.612    488.625
 41.670    485.000    498.098    -13.098    488.372    496.088    488.372    490.385    488.372
 41.770    528.414    498.745     29.669    488.121    496.708    488.121    490.162    488.121
 41.870    508.000    499.760      8.240    487.872    497.695    487.872    489.941    487.872
 41.970    495.853    501.464     -5.610    487.625    499.370    487.625    489.723    487.625
 42.070    522.000    504.467     17.533    487.379    502.344    487.379    489.507    487.379
 42.170    467.000    509.779    -42.779    487.136    507.628    487.136    489.295    487.136
 42.270    486.000    518.754    -32.754    486.895    516.575    486.895    489.086    486.895
 42.370    505.778    532.691    -26.913    486.655    530.486    486.655    488.879    486.655
 42.470    546.000    552.026     -6.026    486.417    549.796    486.417    488.676    486.417
 42.570    505.000    575.224    -70.224    486.182    572.970    486.182    488.476    486.182
 42.670    627.593    597.670     29.922    485.948    595.393    485.948    488.279    485.948
 42.770    580.000    611.775    -31.775    485.716    609.469    485.716    488.085    485.716
 42.870    612.000    610.964      1.036    485.486    608.621    485.486    487.895    485.486
 42.970    551.000    595.608    -44.608    485.258    593.219    485.258    487.707    485.258
 43.070    569.261    572.592     -3.332    485.032    570.149    485.032    487.524    485.032
 43.170    546.321    549.314     -2.994    484.808    546.814    484.808    487.344    484.808
 43.270    515.000    530.110    -15.110    484.586    527.553    484.586    487.167    484.586
 43.370    518.000    516.319      1.681    484.366    513.707    484.366    486.994    484.366
 43.470    501.000    507.403     -6.403    484.148    504.736    484.148    486.825    484.148
 43.570    534.034    502.035     31.998    483.932    499.314    483.932    486.660    483.932
 43.670    466.134    498.885    -32.751    483.718    496.109    483.718    486.499    483.718
 43.770    472.000    496.977    -24.977    483.506    494.144    483.506    486.342    483.506
 43.870    513.000    495.727     17.273    483.296    492.836    483.296    486.189    483.296
 43.970    500.000    494.833      5.167    483.087    491.882    483.087    486.041    483.087
 44.070    471.000    494.149    -23.149    482.881    491.135    482.881    485.897    482.881
 44.170    511.000    493.605     17.395    482.677    490.526    482.677    485.758    482.677
 44.270    502.000    493.164      8.836    482.475    490.017    482.475    485.624    482.475
 44.370    463.886    492.803    -28.917    482.274    489.584    482.274    485.494    482.274
 44.470    532.709    492.506     40.203    482.076    489.214    482.076    485.370    482.076
 44.570    541.000    492.263     48.737    481.880    488.893    481.880    485.251    481.880
 44.670    521.000    492.066     28.934    481.686    488.615    481.686    485.138    481.686
 44.770    493.000    491.909      1.091    481.493    488.373    481.493    485.031    481.493
 44.870    519.000    491.788     27.212    481.303    488.162    481.303    484.930    481.303
 44.970    530.875    491.699     39.176    481.115    487.979    481.115    484.835    481.115
 45.070    435.000    491.641    -56.641    480.928    487.822    480.928    484.747    480.928
 45.170    455.400    491.611    -36.210    480.744    487.689    480.744    484.667    480.744
 45.270    534.823    491.609     43.214    480.562    487.578    480.562    484.593    480.562
 45.370    485.000    491.635     -6.635    480.381    487.489    480.381    484.528    480.381
 45.470    456.126    491.689    -35.563    480.203    487.422    480.203    484.471    480.203
 45.570    487.965    491.771     -3.806    480.027    487.376    480.027    484.422    480.027
 45.670    505.354    491.883     13.472    479.852    487.352    479.852    484.383    479.852
 45.770    530.437    492.026     38.411    479.680    487.352    479.680    484.354    479.680
 45.870    525.000    492.202     32.798    479.509    487.377    479.509    484.336    479.509
 45.970    504.400    492.415     11.985    479.341    487.428    479.341    484.329    479.341
 46.070    489.000    492.667     -3.667    479.175    487.508    479.175    484.334    479.175
 46.170    481.000    492.962    -11.962    479.010    487.621    479.010    484.352    479.010
 46.270    463.224    493.306    -30.082    478.848    487.771    478.848    484.384    478.848
 46.370    532.000    493.706     38.294    478.687    487.963    478.687    484.430    478.687
 46.470    528.276    494.169     34.108    478.529    488.205    478.529    484.493    478.529
 46.570    509.354    494.706     14.648    478.373    488.505    478.373    484.573    478.373
 46.670    519.326    495.333     23.993    478.218    488.879    478.218    484.672    478.218
 46.770    481.765    496.073    -14.308    478.066    489.347    478.066    484.791    478.066
 46.870    494.000    496.964     -2.964    477.915    489.947    477.915    484.932    477.915
 46.970    512.000    498.084     13.916    477.767    490.754    477.767    485.096    477.767
 47.070    500.000    499.579      0.421    477.620    491.911    477.620    485.286    477.620
 47.170    496.000    501.721     -5.721    477.476    493.690    477.476    485.503    477.476
 47.270    465.000    504.962    -39.962    477.333    496.541    477.333    485.749    477.333
 47.370    523.671    509.945     13.726    477.192    501.101    477.192    486.028    477.192
 47.470    484.871    517.397    -32.527    477.054    508.097    477.054    486.340    477.054
 47.570    501.515    527.861    -26.346    476.917    518.067    476.917    486.690    476.917
 47.670    555.000    541.270     13.730    476.782    530.944    476.782    487.079    476.782
 47.770    573.000    556.461     16.539    476.649    545.561    476.649    487.510    476.649
 47.870    585.000    570.751     14.249    476.519    559.237    476.519    487.985    476.519
 47.970    580.000    580.183     -0.183    476.390    568.013    476.390    488.508    476.390
 48.070    551.000    581.484    -30.484    476.263    568.617    476.263    489.079    476.263
 48.170    583.000    574.755      8.245    476.138    561.148    476.138    489.701    476.138
 48.270    595.000    563.384     31.616    476.015    548.991    476.015    490.374    476.015
 48.370    542.000    551.339     -9.339    475.894    536.111    475.894    491.098    475.894
 48.470    518.000    541.283    -23.283    475.775    525.170    475.775    491.872    475.775
 48.570    552.000    534.380     17.620    475.657    517.337    475.657    492.691    475.657
 48.670    544.364    530.723     13.641    475.542    512.709    475.542    493.551    475.542
 48.770    522.000    529.826     -7.826    475.429    510.811    475.429    494.441    475.429
 48.870    495.641    531.054    -35.413    475.317    511.020    475.317    495.350    475.317
 48.970    493.104    533.897    -40.794    475.208    512.844    475.208    496.261    475.208
 49.070    514.566    538.121    -23.555    475.100    516.069    475.100    497.153    475.100
 49.170    556.000    543.875     12.125    474.994    520.869    474.994    498.000    474.994
 49.270    535.000    551.987    -16.987    474.890    528.101    474.890    498.776    474.890
 49.370    609.184    564.697     44.486    474.788    540.034    474.788    499.449    474.788
 49.470    542.134    587.093    -44.958    474.688    561.784    474.688    499.989    474.688
 49.570    648.000    629.227     18.773    474.590    603.429    474.590    500.370    474.590
 49.670    715.000    707.795      7.205    474.494    681.682    474.494    500.570    474.494
 49.770    822.000    844.876    -22.876    474.400    818.635    474.400    500.576    474.400
 49.870   1071.000   1060.724     10.276    474.307   1034.549    474.307    500.386    474.307
 49.970   1292.000   1359.962    -67.962    474.216   1334.050    474.216    500.009    474.216
 50.070   1730.000   1715.617     14.383    474.127   1690.164    474.127    499.461    474.127
 50.170   1985.616   2059.846    -74.230    474.040   2035.040    474.040    498.767    474.040
 50.270   2261.748   2293.272    -31.524    473.955   2269.273    473.955    497.957    473.955
 50.370   2255.000   2327.586    -72.586    473.872   2304.500    473.872    497.062    473.872
 50.470   2152.553   2147.780      4.773    473.790   2125.637    473.790    496.110    473.790
 50.570   1895.424   1826.348     69.076    473.711   1805.131    473.711    495.129    473.711
 50.670   1433.000   1467.254    -34.254    473.633   1446.929    473.633    494.141    473.633
 50.770   1107.701   1150.964    -43.263    473.557   1131.502    473.557    493.166    473.557
 50.870    898.000    916.580    -18.580    473.483    897.951    473.483    492.217    473.483
 50.970    798.000    766.975     31.025    473.410    749.154    473.410    491.306    473.410
 51.070    672.000    683.574    -11.574    473.340    666.530    473.340    490.441    473.340
 51.170    610.000    641.458    -31.458    473.271    625.151    473.271    489.624    473.271
 51.270    662.000    619.186     42.814    473.204    603.571    473.204    488.861    473.204
 51.370    596.000    603.164     -7.164    473.138    588.189    473.138    488.150    473.138
 51.470    578.440    587.893     -9.453    473.075    573.507    473.075    487.493    473.075
 51.570    612.000    572.946     39.054    473.013    559.097    473.013    486.888    473.013
 51.670    579.129    559.491     19.638    472.953    546.131    472.953    486.333    472.953
 51.770    545.000    548.506     -3.506    472.895    535.589    472.895    485.827    472.895
 51.870    530.439    540.360     -9.920    472.838    527.842    472.838    485.367    472.838
 51.970    511.000    534.905    -23.905    472.783    522.746    472.783    484.951    472.783
 52.070    540.000    531.710      8.290    472.730    519.872    472.730    484.576    472.730
 52.170    500.923    530.297    -29.373    472.679    518.742    472.679    484.240    472.679
 52.270    537.000    530.307      6.693    472.629    519.001    472.629    483.941    472.629
 52.370    549.000    531.589     17.411    472.581    520.499    472.581    483.677    472.581
 52.470    554.000    534.282     19.718    472.535    523.377    472.535    483.445    472.535
 52.570    578.000    538.939     39.061    472.490    528.189    472.490    483.245    472.490
 52.670    555.000    546.740      8.260    472.448    536.118    472.448    483.074    472.448
 52.770    577.000    559.843     17.157    472.406    549.321    472.406    482.931    472.406
 52.870    561.870    581.664    -19.794    472.367    571.218    472.367    482.815    472.367
 52.970    637.000    616.836     20.164    472.329    606.442    472.329    482.724    472.329
 53.070    689.000    670.441     18.559    472.292    660.078    472.292    482.658    472.292
 53.170    786.000    746.297     39.703    472.258    735.943    472.258    482.615    472.258
 53.270    886.000    844.432     41.568    472.225    834.068    472.225    482.596    472.225
 53.370    971.000    958.298     12.702    472.193    947.907    472.193    482.598    472.193
 53.470   1073.057   1072.232      0.826    472.163   1061.797    472.163    482.623    472.163
 53.570   1178.000   1160.609     17.391    472.135   1150.114    472.135    482.670    472.135
 53.670   1256.298   1194.499     61.798    472.108   1183.922    472.108    482.738    472.108
 53.770   1215.550   1160.264     55.286    472.083   1149.579    472.083    482.827    472.083
 53.870   1019.991   1071.991    -52.000    472.060   1061.170    472.060    482.939    472.060
 53.970    966.000    958.735      7.265    472.038    947.751    472.038    483.072    472.038
 54.070    883.333    845.987     37.346    472.017    834.817    472.017    483.227    472.017
 54.170    717.000    749.218    -32.218    471.998    737.842    471.998    483.405    471.998
 54.270    659.000    674.821    -15.821    471.981    663.218    471.981    483.606    471.981
 54.370    613.840    622.667     -8.827    471.965    610.816    471.965    483.831    471.965
 54.470    634.000    588.895     45.105    471.951    576.776    471.951    484.081    471.951
 54.570    618.000    568.420     49.580    471.938    556.009    471.938    484.357    471.938
 54.670    555.000    556.633     -1.633    471.926    543.906    471.926    484.661    471.926
 54.770    565.000    550.147     14.853    471.916    537.077    471.916    484.993    471.916
 54.870    540.000    546.822     -6.822    471.908    533.381    471.908    485.355    471.908
 54.970    584.000    545.464     38.536    471.901    531.622    471.901    485.749    471.901
 55.070    586.682    545.473     41.210    471.896    531.196    471.896    486.177    471.896
 55.170    566.000    546.578     19.422    471.892    531.834    471.892    486.642    471.892
 55.270    587.000    548.690     38.310    471.889    533.440    471.889    487.145    471.889
 55.370    583.000    551.824     31.176    471.888    536.028    471.888    487.689    471.888
 55.470    578.995    556.084     22.911    471.888    539.699    471.888    488.278    471.888
 55.570    564.782    561.695      3.087    471.889    544.675    471.889    488.915    471.889
 55.670    570.000    569.102      0.898    471.892    551.396    471.892    489.604    471.892
 55.770    543.718    579.186    -35.468    471.897    560.741    471.897    490.348    471.897
 55.870    600.000    593.679      6.321    471.902    574.435    471.902    491.151    471.902
 55.970    636.000    615.823     20.177    471.909    595.716    471.909    492.020    471.909
 56.070    609.000    651.229    -42.229    471.918    630.189    471.918    492.958    471.918
 56.170    696.000    708.638    -12.638    471.928    686.589    471.928    493.971    471.928
 56.270    730.000    799.929    -69.929    471.939    776.789    471.939    495.066    471.939
 56.370    973.584    938.531     35.053    471.951    914.215    471.951    496.248    471.951
 56.470   1077.000   1135.601    -58.601    471.965   1110.018    471.965    497.525    471.965
 56.570   1311.000   1394.173    -83.173    471.980   1367.231    471.980    498.903    471.980
 56.670   1612.000   1702.548    -90.548    471.996   1674.154    471.996    500.390    471.996
 56.770   1965.000   2028.694    -63.694    472.013   1998.753    472.013    501.994    472.013
 56.870   2342.792   2318.104     24.688    472.032   2286.515    472.032    503.722    472.032
 56.970   2500.000   2501.824     -1.824    472.052   2468.473    472.052    505.584    472.052
 57.070   2560.006   2524.050     35.956    472.073   2488.792    472.073    507.586    472.073
 57.170   2367.966   2377.835     -9.869    472.096   2340.492    472.096    509.737    472.096
 57.270   2182.000   2110.774     71.226    472.119   2071.151    472.119    512.043    472.119
 57.370   1762.000   1792.565    -30.565    472.144   1750.470    472.144    514.510    472.144
 57.470   1459.000   1482.444    -23.444    472.170   1437.696    472.170    517.142    472.170
 57.570   1175.000   1217.477    -42.477    472.197   1169.904    472.197    519.941    472.197
 57.670    995.000   1013.525    -18.525    472.226    962.968    472.226    522.906    472.226
 57.770    870.000    870.486     -0.486    472.255    816.797    472.255    526.029    472.255
 57.870    766.152    778.960    -12.808    472.286    722.002    472.286    529.300    472.286
 57.970    755.000    726.576     28.424    472.317    666.230    472.317    532.700    472.317
 58.070    648.513    702.498    -53.985    472.350    638.670    472.350    536.200    472.350
 58.170    684.953    699.542    -14.589    472.384    632.174    472.384    539.764    472.384
 58.270    731.000    714.260     16.740    472.419    643.340    472.419    543.341    472.419
 58.370    793.152    745.760     47.391    472.455    671.338    472.455    546.871    472.455
 58.470    836.856    793.993     42.863    472.493    716.190    472.493    550.281    472.493
 58.570    806.000    858.021    -52.021    472.531    777.044    472.531    553.487    472.531
 58.670    966.100    934.577     31.523    472.570    850.725    472.570    556.400    472.570
 58.770   1001.000   1017.287    -16.287    472.610    930.953    472.610    558.927    472.610
 58.870   1106.000   1097.506      8.494    472.652   1009.171    472.652    560.979    472.652
 58.970   1218.761   1167.081     51.680    472.694   1077.302    472.694    562.479    472.694
 59.070   1285.000   1219.999     65.001    472.737   1129.392    472.737    563.366    472.737
 59.170   1281.757   1250.893     30.864    472.781   1160.107    472.781    563.605    472.781
 59.270   1329.000   1255.403     73.597    472.827   1165.088    472.827    563.189    472.827
 59.370   1262.000   1235.095     26.905    472.873   1145.877    472.873    562.138    472.873
 59.470   1238.000   1200.131     37.869    472.920   1112.586    472.920    560.499    472.920
 59.570   1232.004   1164.610     67.394    472.968   1079.244    472.968    558.343    472.968
 59.670   1209.000   1140.850     68.150    473.017   1058.089    473.017    555.751    473.017
 59.770   1165.290   1138.125     27.165    473.067   1058.307    473.067    552.817    473.067
 59.870   1190.000   1163.450     26.550    473.118   1086.823    473.118    549.633    473.118
 59.970   1294.000   1220.102     73.898    473.169   1146.828    473.169    546.285    473.169
 60.070   1380.000   1303.858     76.142    473.222   1234.027    473.222    542.854    473.222
 60.170   1431.000   1400.323     30.677    473.275   1333.964    473.275    539.406    473.275
 60.270   1547.587   1485.421     62.165    473.329   1422.516    473.329    535.997    473.329
 60.370   1532.000   1530.524      1.476    473.384   1471.016    473.384    532.670    473.384
 60.470   1488.329   1513.857    -25.528    473.440   1457.653    473.440    529.460    473.440
 60.570   1433.343   1432.799      0.544    473.496   1379.770    473.496    526.389    473.496
 60.670   1350.322   1304.896     45.426    473.554   1254.887    473.554    523.472    473.554
 60.770   1194.752   1156.558     38.194    473.612   1109.398    473.612    520.718    473.612
 60.870   1008.000   1011.599     -3.599    473.671    967.110    473.671    518.131    473.671
 60.970    851.000    886.250    -35.250    473.730    844.256    473.730    515.710    473.730
 61.070    761.000    788.692    -27.692    473.791    749.024    473.791    513.452    473.791
 61.170    709.141    720.685    -11.544    473.852    683.179    473.852    511.351    473.852
 61.270    655.000    680.203    -25.203    473.913    644.707    473.913    509.400    473.913
 61.370    682.603    664.226     18.377    473.976    630.594    473.976    507.590    473.976
 61.470    663.000    670.801     -7.801    474.039    638.898    474.039    505.914    474.039
 61.570    735.979    699.853     36.126    474.103    669.552    474.103    504.361    474.103
 61.670    725.618    752.638    -27.019    474.167    723.821    474.167    502.923    474.167
 61.770    788.762    830.094    -41.332    474.232    802.653    474.232    501.591    474.232
 61.870    965.000    930.622     34.378    474.298    904.460    474.298    500.356    474.298
 61.970    963.000   1047.930    -84.930    474.364   1022.963    474.364    499.210    474.364
 62.070   1145.019   1169.555    -24.536    474.431   1145.709    474.431    498.145    474.431
 62.170   1246.920   1276.717    -29.797    474.499   1253.932    474.499    497.155    474.499
 62.270   1235.000   1346.827   -111.827    474.567   1325.049    474.567    496.234    474.567
 62.370   1299.000   1361.052    -62.052    474.635   1340.230    474.635    495.376    474.635
 62.470   1312.000   1314.522     -2.522    474.704   1294.600    474.704    494.576    474.704
 62.570   1269.857   1219.695     50.162    474.774   1200.616    474.774    493.831    474.774
 62.670   1118.041   1098.567     19.474    474.844   1080.272    474.844    493.136    474.844
 62.770    936.233    972.520    -36.287    474.915    954.954    474.915    492.489    474.915
 62.870    809.973    857.204    -47.231    474.986    840.316    474.986    491.886    474.986
 62.970    822.000    761.554     60.446    475.057    745.299    475.057    491.324    475.057
 63.070    686.000    688.570     -2.570    475.129    672.907    475.129    490.801    475.129
 63.170    639.000    636.911      2.089    475.202    621.803    475.202    490.316    475.202
 63.270    593.000    602.827     -9.827    475.275    588.240    475.275    489.865    475.275
 63.370    618.000    581.910     36.090    475.348    567.811    475.348    489.447    475.348
 63.470    560.000    570.322    -10.322    475.422    556.682    475.422    489.059    475.422
 63.570    570.000    565.416      4.584    475.496    552.206    475.496    488.700    475.496
 63.670    582.000    565.889     16.111    475.570    553.083    475.570    488.369    475.570
 63.770    593.236    571.680     21.556    475.645    559.250    475.645    488.063    475.645
 63.870    608.000    583.726     24.274    475.720    571.647    475.720    487.781    475.720
 63.970    606.000    603.629      2.371    475.796    591.877    475.796    487.522    475.796
 64.070    624.000    633.190     -9.190    475.872    621.741    475.872    487.284    475.872
 64.170    704.000    673.786     30.214    475.948    662.618    475.948    487.066    475.948
 64.270    745.255    725.628     19.627    476.024    714.719    476.024    486.867    476.024
 64.370    760.293    786.985    -26.692    476.101    776.319    476.101    486.686    476.101
 64.470    910.000    853.522     56.478    476.178    843.084    476.178    486.522    476.178
 64.570    910.000    917.936     -7.936    476.255    907.715    476.255    486.374    476.255
 64.670    914.241    970.526    -56.284    476.333    960.515    476.333    486.240    476.333
 64.770   1029.199   1001.621     27.577    476.410    991.814    476.410    486.121    476.410
 64.870    948.282   1005.548    -57.266    476.488    995.939    476.488    486.016    476.488
 64.970   1039.720    983.101     56.620    476.566    973.683    476.566    485.923    476.566
 65.070    938.000    940.520     -2.520    476.644    931.283    476.644    485.843    476.644
 65.170    874.000    886.620    -12.620    476.723    877.553    476.723    485.775    476.723
 65.270    853.000    829.937     23.063    476.801    821.024    476.801    485.718    476.801
 65.370    810.610    776.689     33.920    476.880    767.917    476.880    485.671    476.880
 65.470    722.000    730.048     -8.048    476.959    721.400    476.959    485.635    476.959
 65.570    692.483    690.644      1.840    477.037    682.106    477.037    485.609    477.037
 65.670    657.000    657.845     -0.845    477.116    649.403    477.116    485.593    477.116
 65.770    608.000    630.901    -22.901    477.195    622.542    477.195    485.586    477.195
 65.870    674.000    609.246     64.754    477.275    600.959    477.275    485.588    477.275
 65.970    593.000    592.337      0.663    477.354    584.112    477.354    485.599    477.354
 66.070    565.000    579.582    -14.582    477.433    571.411    477.433    485.618    477.433
 66.170    599.000    570.400     28.600    477.512    562.276    477.512    485.646    477.512
 66.270    543.831    564.276    -20.445    477.591    556.192    477.591    485.683    477.591
 66.370    521.000    560.782    -39.782    477.671    552.731    477.671    485.727    477.671
 66.470    567.000    559.586      7.414    477.750    551.561    477.750    485.780    477.750
 66.570    557.825    560.475     -2.650    477.829    552.469    477.829    485.841    477.829
 66.670    564.000    563.431      0.569    477.908    555.435    477.908    485.910    477.908
 66.770    513.000    568.745    -55.745    477.987    560.752    477.987    485.986    477.987
 66.870    551.000    577.194    -26.194    478.066    569.195    478.066    486.071    478.066
 66.970    638.000    590.292     47.708    478.145    582.280    478.145    486.165    478.145
 67.070    635.488    610.594     24.894    478.224    602.560    478.224    486.266    478.224
 67.170    579.000    641.996    -62.996    478.302    633.932    478.302    486.376    478.302
 67.270    667.572    689.885    -22.313    478.381    681.782    478.381    486.494    478.381
 67.370    746.965    760.928    -13.963    478.459    752.778    478.459    486.621    478.459
 67.470    815.530    862.271    -46.741    478.537    854.067    478.537    486.757    478.537
 67.570    994.000   1000.030     -6.030    478.615    991.767    478.615    486.902    478.615
 67.670   1142.000   1177.164    -35.164    478.693   1168.838    478.693    487.057    478.693
 67.770   1343.813   1391.082    -47.268    478.771   1382.691    478.771    487.221    478.771
 67.870   1597.000   1631.487    -34.487    478.848   1623.032    478.848    487.396    478.848
 67.970   1909.343   1878.874     30.469    478.925   1870.355    478.925    487.582    478.925
 68.070   2065.000   2104.198    -39.198    479.002   2095.615    479.002    487.779    479.002
 68.170   2299.000   2271.437     27.563    479.079   2262.784    479.079    487.987    479.079
 68.270   2366.995   2346.411     20.584    479.156   2337.674    479.156    488.209    479.156
 68.370   2392.000   2311.490     80.510    479.232   2302.643    479.232    488.443    479.232
 68.470   2169.000   2175.434     -6.434    479.308   2166.437    479.308    488.692    479.308
 68.570   1990.000   1968.085     21.915    479.383   1958.892    479.383    488.956    479.383
 68.670   1647.601   1725.961    -78.360    479.458   1716.532    479.458    489.236    479.458
 68.770   1502.000   1481.089     20.911    479.533   1471.391    479.533    489.534    479.533
 68.870   1188.337   1256.532    -68.195    479.608   1246.537    479.608    489.850    479.608
 68.970   1042.000   1065.867    -23.867    479.682   1055.558    479.682    490.186    479.682
 69.070    937.893    914.321     23.571    479.755    903.680    479.755    490.544    479.755
 69.170    811.000    800.725     10.275    479.829    789.735    479.829    490.926    479.829
 69.270    755.665    719.878     35.788    479.902    708.523    479.902    491.333    479.902
 69.370    687.481    664.818     22.663    479.974    653.077    479.974    491.769    479.974
 69.470    638.000    628.579      9.421    480.046    616.429    480.046    492.235    480.046
 69.570    583.038    605.241    -22.203    480.118    592.651    480.118    492.735    480.118
 69.670    591.000    590.324      0.676    480.189    577.262    480.189    493.272    480.189
 69.770    541.589    580.747    -39.158    480.260    567.174    480.260    493.850    480.260
 69.870    568.000    574.546     -6.546    480.330    560.418    480.330    494.472    480.330
 69.970    533.000    570.552    -37.552    480.400    555.820    480.400    495.142    480.400
 70.070    606.190    568.108     38.082    480.469    552.719    480.469    495.867    480.469
 70.170    588.893    566.869     22.024    480.538    550.764    480.538    496.651    480.538
 70.270    602.803    566.679     36.125    480.606    549.792    480.606    497.500    480.606
 70.370    589.000    567.507     21.493    480.673    549.766    480.673    498.420    480.673
 70.470    596.000    569.437     26.563    480.740    550.764    480.740    499.418    480.740
 70.570    553.000    572.699    -19.699    480.807    553.007    480.807    500.502    480.807
 70.670    604.866    577.735     27.131    480.872    556.929    480.872    501.679    480.872
 70.770    627.000    585.312     41.688    480.938    563.291    480.938    502.958    480.938
 70.870    581.000    596.676    -15.676    481.002    573.328    481.002    504.347    481.002
 70.970    605.000    613.711     -8.711    481.066    588.915    481.066    505.854    481.066
 71.070    635.000    639.072     -4.072    481.129    612.697    481.129    507.490    481.129
 71.170    633.000    676.200    -43.200    481.192    648.106    481.192    509.262    481.192
 71.270    722.716    729.118     -6.403    481.254    699.157    481.254    511.179    481.254
 71.370    751.152    801.933    -50.781    481.315    769.947    481.315    513.250    481.315
 71.470    869.523    897.983    -28.460    481.376    863.809    481.376    515.480    481.376
 71.570   1015.000   1018.734     -3.734    481.436    982.205    481.436    517.875    481.436
 71.670   1142.000   1162.562    -20.562    481.495   1123.512    481.495    520.436    481.495
 71.770   1329.000   1323.671      5.329    481.553   1281.935    481.553    523.164    481.553
 71.870   1520.569   1491.310     29.260    481.611   1446.735    481.611    526.050    481.611
 71.970   1604.000   1649.530    -45.530    481.668   1601.979    481.668    529.083    481.668
 72.070   1850.051   1778.132     71.920    481.724   1727.490    481.724    532.242    481.724
 72.170   1897.508   1856.176     41.332    481.779   1802.363    481.779    535.494    481.779
 72.270   1882.000   1868.713     13.287    481.833   1811.685    481.833    538.797    481.833
 72.370   1760.000   1813.584    -53.584    481.887   1753.349    481.887    542.091    481.887
 72.470   1739.000   1702.570     36.430    481.940   1639.203    481.940    545.305    481.940
 72.570   1498.457   1555.673    -57.216    481.992   1489.334    481.992    548.351    481.992
 72.670   1487.000   1393.736     93.264    482.043   1324.682    482.043    551.129    482.043
 72.770   1217.371   1233.933    -16.562    482.093   1162.529    482.093    553.536    482.093
 72.870   1157.000   1088.311     68.689    482.143   1015.027    482.143    555.466    482.143
 72.970    989.000    963.840     25.160    482.191    889.239    482.191    556.829    482.191
 73.070    836.000    863.099    -27.099    482.239    787.816    482.239    557.554    482.239
 73.170    791.000    785.309      5.691    482.286    710.018    482.286    557.604    482.286
 73.270    733.000    727.541      5.459    482.332    652.916    482.332    556.979    482.332
 73.370    650.000    685.866    -35.866    482.376    612.548    482.376    555.714    482.376
 73.470    650.000    656.282     -6.282    482.420    584.842    482.420    553.877    482.420
 73.570    587.985    635.299    -47.313    482.463    566.217    482.463    551.560    482.463
 73.670    640.000    620.202     19.798    482.505    553.857    482.505    548.865    482.505
 73.770    543.000    609.082    -66.082    482.546    545.744    482.546    545.899    482.546
 73.870    601.510    600.699      0.810    482.586    540.541    482.586    542.760    482.586
 73.970    580.495    594.314    -13.819    482.625    537.420    482.625    539.537    482.625
 74.070    624.000    589.501     34.499    482.663    535.882    482.663    536.303    482.663
 74.170    545.533    585.999    -40.466    482.700    535.608    482.700    533.116    482.700
 74.270    592.000    583.602      8.398    482.736    536.347    482.736    530.021    482.736
 74.370    552.000    582.082    -30.082    482.771    537.838    482.771    527.049    482.771
 74.470    586.000    581.143      4.857    482.805    539.764    482.805    524.223    482.805
 74.570    564.000    580.402    -16.402    482.837    541.729    482.837    521.555    482.837
 74.670    612.000    579.402     32.598    482.869    543.268    482.869    519.052    482.869
 74.770    590.000    577.681     12.319    482.900    543.917    482.900    516.716    482.900
 74.870    651.000    574.910     76.090    482.929    543.348    482.929    514.543    482.929
 74.970    619.412    571.036     48.375    482.957    541.515    482.957    512.529    482.957
 75.070    651.000    566.321     84.679    482.984    538.683    482.984    510.669    482.984
 75.170    621.000    561.242     59.758    483.010    535.340    483.010    508.952    483.010
 75.270    536.070    556.355    -20.285    483.035    532.052    483.035    507.373    483.035
 75.370    571.923    552.208     19.715    483.059    529.375    483.059    505.920    483.059
 75.470    519.863    549.325    -29.462    483.082    527.841    483.082    504.586    483.082
 75.570    522.488    548.212    -25.724    483.103    527.967    483.103    503.361    483.103
 75.670    566.946    549.362     17.584    483.123    530.254    483.123    502.237    483.123
 75.770    589.000    553.242     35.758    483.142    535.179    483.142    501.206    483.142
 75.870    545.000    560.259    -15.259    483.160    543.153    483.160    500.259    483.160
 75.970    582.000    570.685     11.315    483.176    554.458    483.176    499.389    483.176
 76.070    601.000    584.571     16.429    483.191    569.152    483.191    498.590    483.191
 76.170    573.000    601.638    -28.638    483.205    586.959    483.205    497.854    483.205
 76.270    585.000    621.178    -36.178    483.218    607.182    483.218    497.177    483.218
 76.370    595.096    641.984    -46.889    483.230    628.617    483.230    496.552    483.230
 76.470    621.952    662.311    -40.359    483.240    649.525    483.240    495.975    483.240
 76.570    659.913    679.920    -20.007    483.249    667.673    483.249    495.441    483.249
 76.670    667.751    692.320    -24.569    483.257    680.573    483.257    494.946    483.257
 76.770    702.000    697.336      4.664    483.263    686.058    483.263    494.486    483.263
 76.870    666.074    693.899    -27.824    483.268    683.057    483.268    494.059    483.268
 76.970    730.000    682.516     47.484    483.272    672.083    483.272    493.660    483.272
 77.070    700.409    665.024     35.385    483.274    654.974    483.274    493.288    483.274
 77.170    680.589    643.846     36.742    483.275    634.153    483.275    492.940    483.275
 77.270    626.000    621.317      4.683    483.275    611.957    483.275    492.613    483.275
 77.370    563.000    599.329    -36.329    483.273    590.279    483.273    492.307    483.273
 77.470    589.047    579.230      9.817    483.270    570.471    483.270    492.018    483.270
 77.570    527.046    561.832    -34.786    483.265    553.344    483.265    491.746    483.265
 77.670    514.772    547.472    -32.700    483.259    539.238    483.259    491.489    483.259
 77.770    540.000    536.113      3.887    483.252    528.117    483.252    491.246    483.252
 77.870    511.000    527.459    -16.459    483.243    519.686    483.243    491.015    483.243
 77.970    523.730    521.070      2.659    483.233    513.506    483.233    490.796    483.233
 78.070    482.000    516.467    -34.467    483.222    509.101    483.222    490.588    483.222
 78.170    526.000    513.201     12.799    483.209    506.020    483.209    490.390    483.209
 78.270    480.000    510.894    -30.894    483.195    503.888    483.195    490.201    483.195
 78.370    517.000    509.253      7.747    483.179    502.412    483.179    490.020    483.179
 78.470    504.000    508.068     -4.068    483.161    501.383    483.161    489.847    483.161
 78.570    510.000    507.198      2.802    483.143    500.660    483.143    489.681    483.143
 78.670    503.000    506.552     -3.552    483.122    500.153    483.122    489.522    483.122
 78.770    478.000    506.080    -28.080    483.101    499.812    483.101    489.368    483.101
 78.870    539.002    505.755     33.247    483.077    499.612    483.077    489.221    483.077
 78.970    528.000    505.572     22.428    483.053    499.546    483.053    489.079    483.053
 79.070    496.000    505.537     -9.537    483.027    499.622    483.027    488.942    483.027
 79.170    522.000    505.667     16.333    482.999    499.857    482.999    488.809    482.999
 79.270    479.000    505.986    -26.986    482.970    500.275    482.970    488.680    482.970
 79.370    520.000    506.528     13.472    482.939    500.911    482.939    488.555    482.939
 79.470    462.366    507.332    -44.965    482.906    501.803    482.906    488.434    482.906
 79.570    520.000    508.447     11.553    482.873    503.003    482.873    488.316    482.873
 79.670    463.000    509.937    -46.937    482.837    504.572    482.837    488.201    482.837
 79.770    500.000    511.886    -11.886    482.800    506.595    482.800    488.089    482.800
 79.870    500.000    514.404    -14.404    482.762    509.184    482.762    487.979    482.762
 79.970    481.000    517.643    -36.643    482.721    512.490    482.721    487.871    482.721
 80.070    537.000    521.796     15.204    482.680    516.708    482.680    487.765    482.680
 80.170    517.000    527.107    -10.107    482.636    522.080    482.636    487.660    482.636
 80.270    494.000    533.873    -39.873    482.592    528.905    482.592    487.557    482.592
 80.370    572.608    542.436     30.172    482.545    537.525    482.545    487.455    482.545
 80.470    537.000    553.142    -16.142    482.497    548.286    482.497    487.354    482.497
 80.570    610.000    566.306     43.694    482.447    561.503    482.447    487.253    482.447
 80.670    561.418    582.127    -20.709    482.396    577.377    482.396    487.152    482.396
 80.770    599.000    600.491     -1.491    482.343    595.792    482.343    487.052    482.343
 80.870    608.000    620.986    -12.986    482.288    616.338    482.288    486.951    482.288
 80.970    655.000    642.853     12.147    482.232    638.257    482.232    486.850    482.232
 81.070    675.000    665.018      9.982    482.174    660.472    482.174    486.749    482.174
 81.170    660.000    686.211    -26.211    482.115    681.713    482.115    486.647    482.115
 81.270    736.184    705.147     31.037    482.054    700.698    482.054    486.545    482.054
 81.370    743.000    720.701     22.299    481.991    716.299    481.991    486.442    481.991
 81.470    764.936    731.997     32.939    481.926    727.641    481.926    486.339    481.926
 81.570    720.000    738.473    -18.473    481.860    734.161    481.860    486.235    481.860
 81.670    765.000    739.924     25.076    481.792    735.655    481.792    486.131    481.792
 81.770    684.000    736.475    -52.475    481.723    732.245    481.723    486.026    481.723
 81.870    715.810    728.489    -12.679    481.652    724.296    481.652    485.921    481.652
 81.970    681.000    716.541    -35.541    481.579    712.382    481.579    485.815    481.579
 82.070    694.000    701.454     -7.454    481.504    697.326    481.504    485.710    481.504
 82.170    702.000    684.270     17.730    481.428    680.170    481.428    485.604    481.428
 82.270    628.000    666.069    -38.069    481.350    661.994    481.350    485.498    481.350
 82.370    679.000    647.740     31.260    481.270    643.688    481.270    485.392    481.270
 82.470    608.156    629.878    -21.722    481.189    625.846    481.189    485.285    481.189
 82.570    592.000    612.835    -20.835    481.106    608.821    481.106    485.179    481.106
 82.670    618.538    596.866     21.672    481.021    592.868    481.021    485.072    481.021
 82.770    569.000    582.230    -13.230    480.934    578.245    480.934    484.965    480.934
 82.870    593.025    569.209     23.816    480.846    565.235    480.846    484.858    480.846
 82.970    535.000    558.067    -23.067    480.756    554.103    480.756    484.751    480.756
 83.070    575.330    549.011     26.319    480.664    545.054    480.664    484.643    480.664
 83.170    538.000    542.165     -4.165    480.571    538.214    480.571    484.536    480.571
 83.270    523.000    537.573    -14.573    480.476    533.627    480.476    484.428    480.476
 83.370    514.000    535.192    -21.192    480.379    531.249    480.379    484.320    480.379
 83.470    531.000    534.883     -3.883    480.280    530.941    480.280    484.211    480.280
 83.570    533.000    536.403     -3.403    480.179    532.462    480.179    484.102    480.179
 83.670    538.000    539.401     -1.401    480.077    535.459    480.077    483.993    480.077
 83.770    532.000    543.423    -11.423    479.973    539.480    479.973    483.883    479.973
 83.870    533.000    547.919    -14.919    479.867    543.975    479.867    483.773    479.867
 83.970    564.302    552.268     12.034    479.760    548.322    479.760    483.662    479.760
 84.070    550.000    555.815     -5.815    479.651    551.867    479.651    483.551    479.651
 84.170    564.000    557.947      6.053    479.540    553.998    479.540    483.440    479.540
 84.270    558.000    558.216     -0.216    479.427    554.268    479.427    483.328    479.427
 84.370    571.000    556.450     14.550    479.312    552.501    479.312    483.215    479.312
 84.470    574.000    552.795     21.205    479.196    548.847    479.196    483.102    479.196
 84.570    584.000    547.648     36.352    479.078    543.700    479.078    482.989    479.078
 84.670    590.000    541.528     48.472    478.958    537.579    478.958    482.875    478.958
 84.770    568.000    534.961     33.039    478.836    531.010    478.836    482.760    478.836
 84.870    511.650    528.405    -16.755    478.713    524.451    478.713    482.645    478.713
 84.970    517.459    522.227     -4.768    478.588    518.268    478.588    482.529    478.588
 85.070    550.000    516.685     33.315    478.461    512.718    478.461    482.413    478.461
 85.170    489.845    511.931    -22.086    478.332    507.955    478.332    482.296    478.332
 85.270    509.000    508.026      0.974    478.201    504.039    478.201    482.179    478.201
 85.370    475.000    504.958    -29.958    478.069    500.958    478.069    482.061    478.069
 85.470    485.856    502.663    -16.806    477.935    498.648    477.935    481.943    477.935
 85.570    500.853    501.050     -0.197    477.799    497.020    477.799    481.824    477.799
 85.670    518.000    500.026     17.974    477.662    495.977    477.662    481.705    477.662
 85.770    494.000    499.508     -5.508    477.522    495.440    477.522    481.585    477.522
 85.870    494.000    499.439     -5.439    477.381    495.348    477.381    481.465    477.381
 85.970    518.000    499.792     18.208    477.238    495.679    477.238    481.344    477.238
 86.070    533.000    500.579     32.421    477.093    496.441    477.093    481.223    477.093
 86.170    464.439    501.849    -37.410    476.947    497.683    476.947    481.102    476.947
 86.270    503.945    503.683      0.262    476.798    499.489    476.798    480.980    476.798
 86.370    513.000    506.195      6.805    476.648    501.969    476.648    480.858    476.648
 86.470    565.000    509.515     55.485    476.496    505.255    476.496    480.736    476.496
 86.570    496.607    513.782    -17.175    476.343    509.486    476.343    480.613    476.343
 86.670    531.000    519.122     11.878    476.187    514.787    476.187    480.490    476.187
 86.770    494.000    525.625    -31.625    476.030    521.248    476.030    480.368    476.030
 86.870    517.000    533.320    -16.320    475.871    528.898    475.871    480.245    475.871
 86.970    547.621    542.142      5.480    475.710    537.672    475.710    480.122    475.710
 87.070    584.820    551.909     32.911    475.548    547.389    475.548    479.999    475.548
 87.170    571.000    562.299      8.701    475.383    557.728    475.383    479.876    475.383
 87.270    535.411    572.841    -37.429    475.217    568.216    475.217    479.753    475.217
 87.370    596.982    582.918     14.065    475.050    578.239    475.050    479.631    475.050
 87.470    573.000    591.791    -18.791    474.880    587.058    474.880    479.509    474.880
 87.570    662.000    598.679     63.321    474.709    593.893    474.709    479.388    474.709
 87.670    654.000    602.901     51.099    474.536    598.062    474.536    479.267    474.536
 87.770    603.630    604.044     -0.414    474.361    599.155    474.361    479.146    474.361
 87.870    593.000    602.095     -9.095    474.184    597.157    474.184    479.027    474.184
 87.970    630.646    597.441     33.205    474.006    592.453    474.006    478.908    474.006
 88.070    555.000    590.750    -35.750    473.826    585.711    473.826    478.791    473.826
 88.170    624.000    582.829     41.171    473.644    577.738    473.644    478.674    473.644
 88.270    617.000    574.506     42.494    473.461    569.359    473.461    478.559    473.461
 88.370    567.000    566.549      0.451    473.276    561.342    473.276    478.446    473.276
 88.470    581.000    559.622     21.378    473.089    554.352    473.089    478.334    473.089
 88.570    592.000    554.245     37.755    472.900    548.906    472.900    478.224    472.900
 88.670    578.000    550.765     27.235    472.710    545.354    472.710    478.116    472.710
 88.770    526.116    549.351    -23.235    472.517    543.863    472.517    478.010    472.517
 88.870    562.555    549.990     12.565    472.324    544.419    472.324    477.907    472.324
 88.970    543.000    552.495     -9.495    472.128    546.838    472.128    477.806    472.128
 89.070    542.932    556.526    -13.594    471.931    550.777    471.931    477.709    471.931
 89.170    600.000    561.605     38.395    471.732    555.759    471.732    477.615    471.732
 89.270    562.000    567.143     -5.143    471.531    561.195    471.531    477.524    471.531
 89.370    571.000    572.472     -1.472    471.329    566.416    471.329    477.437    471.329
 89.470    622.000    576.892     45.108    471.125    570.720    471.125    477.354    471.125
 89.570    615.000    579.746     35.254    470.920    573.452    470.920    477.276    470.920
 89.670    558.000    580.536    -22.536    470.712    574.111    470.712    477.202    470.712
 89.770    575.000    579.032     -4.032    470.504    572.467    470.504    477.134    470.504
 89.870    529.818    575.314    -45.496    470.293    568.602    470.293    477.071    470.293
 89.970    564.000    569.737     -5.737    470.081    562.867    470.081    477.014    470.081
 90.070    568.000    562.809      5.191    469.867    555.771    469.867    476.963    469.867
 90.170    563.553    555.084      8.468    469.651    547.870    469.651    476.919    469.651
 90.270    550.000    547.082      2.918    469.434    539.681    469.434    476.882    469.434
 90.370    526.683    539.243    -12.560    469.216    531.647    469.216    476.853    469.216
 90.470    540.000    531.914      8.086    468.995    524.113    468.995    476.831    468.995
 90.570    529.646    525.342      4.303    468.773    517.326    468.773    476.818    468.773
 90.670    493.000    519.677    -26.677    468.550    511.436    468.550    476.814    468.550
 90.770    550.000    514.984     35.016    468.325    506.508    468.325    476.818    468.325
 90.870    482.483    511.258    -28.775    468.098    502.537    468.098    476.833    468.098
 90.970    504.894    508.447     -3.553    467.870    499.469    467.870    476.857    467.870
 91.070    525.337    506.466     18.871    467.640    497.221    467.640    476.892    467.640
 91.170    493.269    505.224    -11.955    467.409    495.700    467.409    476.938    467.409
 91.270    499.588    504.635     -5.047    467.176    494.820    467.176    476.994    467.176
 91.370    505.000    504.637      0.363    466.941    494.517    466.941    477.062    466.941
 91.470    518.000    505.195     12.805    466.705    494.759    466.705    477.141    466.705
 91.570    452.000    506.310    -54.310    466.468    495.545    466.468    477.232    466.468
 91.670    506.000    508.006     -2.006    466.229    496.898    466.229    477.334    466.229
 91.770    496.000    510.406    -14.406    465.988    498.944    465.988    477.447    465.988
 91.870    549.227    513.611     35.616    465.746    501.781    465.746    477.570    465.746
 91.970    478.784    517.764    -38.980    465.503    505.555    465.503    477.704    465.503
 92.070    531.080    523.035      8.044    465.258    510.436    465.258    477.846    465.258
 92.170    567.000    529.604     37.396    465.012    516.604    465.012    477.997    465.012
 92.270    484.000    537.640    -53.640    464.764    524.232    464.764    478.154    464.764
 92.370    506.000    547.292    -41.292    464.515    533.468    464.515    478.315    464.515
 92.470    559.000    558.661      0.339    464.264    544.418    464.264    478.479    464.264
 92.570    551.000    571.787    -20.787    464.012    557.122    464.012    478.643    464.012
 92.670    547.499    586.627    -39.128    463.759    571.542    463.759    478.803    463.759
 92.770    598.000    603.040     -5.040    463.504    587.540    463.504    478.957    463.504
 92.870    646.000    620.777     25.223    463.247    604.872    463.247    479.099    463.247
 92.970    626.000    639.471    -13.471    462.990    623.175    462.990    479.227    462.990
 93.070    634.410    658.643    -24.232    462.731    641.974    462.731    479.336    462.731
 93.170    661.000    677.726    -16.726    462.471    660.708    462.471    479.421    462.471
 93.270    670.374    696.136    -25.763    462.209    678.797    462.209    479.478    462.209
 93.370    713.000    713.370     -0.370    461.946    695.741    461.946    479.502    461.946
 93.470    728.000    729.114     -1.114    461.682    711.233    461.682    479.490    461.682
 93.570    689.000    743.304    -54.304    461.416    725.210    461.416    479.439    461.416
 93.670    770.000    756.088     13.912    461.149    737.822    461.149    479.345    461.149
 93.770    714.000    767.721    -53.721    460.881    749.325    460.881    479.209    460.881
 93.870    766.000    778.449    -12.449    460.612    759.967    460.612    479.028    460.612
 93.970    802.000    788.445     13.555    460.341    769.920    460.341    478.804    460.341
 94.070    786.000    797.821    -11.821    460.070    779.293    460.070    478.538    460.070
 94.170    829.000    806.692     22.308    459.797    788.201    459.797    478.232    459.797
 94.270    843.000    815.245     27.755    459.522    796.825    459.522    477.890    459.522
 94.370    841.000    823.693     17.307    459.247    805.376    459.247    477.516    459.247
 94.470    827.298    832.190     -4.892    458.971    814.002    458.971    477.113    458.971
 94.570    862.753    840.685     22.067    458.693    822.650    458.693    476.688    458.693
 94.670    833.000    848.827    -15.827    458.414    830.962    458.414    476.244    458.414
 94.770    844.502    855.930    -11.427    458.134    838.248    458.134    475.786    458.134
 94.870    869.024    861.030      7.994    457.853    843.540    457.853    475.320    457.853
 94.970    831.235    863.016    -31.781    457.571    845.722    457.571    474.849    457.571
 95.070    872.000    860.835     11.165    457.288    843.737    457.288    474.378    457.288
 95.170    937.000    853.750     83.250    457.004    836.844    457.004    473.910    457.004
 95.270    852.000    841.558     10.442    456.718    824.835    456.718    473.449    456.718
 95.370    810.219    824.673    -14.453    456.432    808.120    456.432    472.997    456.432
 95.470    805.609    804.109      1.499    456.145    787.713    456.145    472.558    456.145
 95.570    811.000    781.304     29.696    455.856    765.047    455.856    472.133    455.856
 95.670    824.000    757.794     66.206    455.567    741.658    455.567    471.724    455.567
 95.770    777.000    735.182     41.818    455.277    719.145    455.277    471.333    455.277
 95.870    739.000    715.016     23.984    454.986    699.058    454.986    470.961    454.986
 95.970    703.325    698.736      4.589    454.694    682.834    454.694    470.609    454.694
 96.070    690.000    687.635      2.365    454.401    671.765    454.401    470.279    454.401
 96.170    705.000    682.864     22.136    454.107    667.003    454.107    469.971    454.107
 96.270    711.000    685.373     25.627    453.812    669.495    453.812    469.687    453.812
 96.370    707.006    695.928     11.078    453.517    680.009    453.517    469.426    453.517
 96.470    723.000    715.091      7.909    453.220    699.103    453.220    469.191    453.220
 96.570    700.000    743.193    -43.193    452.923    727.111    452.923    468.981    452.923
 96.670    739.744    780.300    -40.556    452.625    764.097    452.625    468.797    452.625
 96.770    825.000    826.167     -1.167    452.326    809.815    452.326    468.640    452.326
 96.870    842.166    880.176    -38.010    452.027    863.648    452.027    468.510    452.027
 96.970    989.306    941.277     48.029    451.727    924.546    451.727    468.409    451.727
 97.070   1005.134   1007.941     -2.807    451.426    990.977    451.426    468.338    451.426
 97.170   1047.000   1078.116    -31.116    451.124   1060.892    451.124    468.296    451.124
 97.270   1163.000   1149.223     13.777    450.822   1131.708    450.822    468.286    450.822
 97.370   1222.000   1218.176      3.824    450.519   1200.341    450.519    468.308    450.519
 97.470   1259.153   1281.473    -22.320    450.216   1263.289    450.216    468.362    450.216
 97.570   1313.082   1335.400    -22.318    449.912   1316.836    449.912    468.451    449.912
 97.670   1394.000   1376.394     17.606    449.607   1357.415    449.607    468.576    449.607
 97.770   1362.745   1401.545    -38.801    449.302   1382.119    449.302    468.737    449.302
 97.870   1425.000   1409.141     15.859    448.996   1389.228    448.996    468.935    448.996
 97.970   1468.887   1399.002     69.885    448.689   1378.564    448.689    469.173    448.689
 98.070   1353.000   1372.492    -19.492    448.383   1351.485    448.383    469.450    448.383
 98.170   1264.901   1332.175    -67.274    448.075   1310.555    448.075    469.770    448.075
 98.270   1274.000   1281.342     -7.342    447.768   1259.061    447.768    470.132    447.768
 98.370   1226.000   1223.555      2.445    447.460   1200.565    447.460    470.538    447.460
 98.470   1169.000   1162.329      6.671    447.151   1138.580    447.151    470.990    447.151
 98.570   1089.873   1100.932    -11.059    446.842   1076.374    446.842    471.489    446.842
 98.670   1045.000   1042.286      2.714    446.533   1016.867    446.533    472.036    446.533
 98.770   1009.000    988.922     20.078    446.223    962.590    446.223    472.631    446.223
 98.870    951.000    942.977      8.023    445.913    915.683    445.913    473.276    445.913
 98.970    924.542    906.214     18.329    445.603    877.904    445.603    473.971    445.603
 99.070    866.737    880.025    -13.288    445.293    850.650    445.293    474.718    445.293
 99.170    840.794    865.491    -24.698    444.982    835.000    444.982    475.515    444.982
 99.270    876.467    863.381     13.086    444.671    831.723    444.671    476.362    444.671
 99.370    829.000    874.144    -45.144    444.360    841.271    444.360    477.260    444.360
 99.470    936.000    897.963     38.037    444.049    863.829    444.049    478.206    444.049
 99.570    940.000    934.754      5.246    443.738    899.313    443.738    479.198    443.738
 99.670    960.000    984.147    -24.147    443.427    947.359    443.427    480.234    443.427
 99.770   1138.000   1045.469     92.531    443.115   1007.297    443.115    481.309    443.115
 99.870   1156.283   1117.694     38.589    442.804   1078.108    442.804    482.418    442.804
 99.970   1135.000   1199.402    -64.402    442.492   1158.376    442.492    483.556    442.492
100.070   1287.000   1288.731     -1.731    442.180   1246.248    442.180    484.714    442.180
100.170   1347.000   1383.342    -36.342    441.869   1339.394    441.869    485.884    441.869
100.270   1442.000   1480.426    -38.426    441.558   1435.017    441.558    487.054    441.558
100.370   1658.000   1576.781     81.219    441.246   1529.926    441.246    488.213    441.246
100.470   1711.000   1668.984     42.016    440.935   1620.712    440.935    489.345    440.935
100.570   1757.000   1753.654      3.346    440.624   1704.007    440.624    490.436    440.624
100.670   1787.000   1827.738    -40.738    440.313   1776.777    440.313    491.468    440.313
100.770   1984.000   1888.724     95.276    440.002   1836.524    440.002    492.423    440.002
100.870   1895.437   1934.681    -39.245    439.692   1881.336    439.692    493.284    439.692
100.970   1960.000   1964.173     -4.173    439.382   1909.793    439.382    494.030    439.382
101.070   1993.000   1976.166     16.834    439.072   1920.879    439.072    494.644    439.072
101.170   2013.527   1970.074     43.453    438.762   1914.026    438.762    495.110    438.762
101.270   1905.000   1946.004    -41.004    438.453   1889.353    438.453    495.412    438.453
101.370   1907.076   1905.059      2.016    438.144   1847.975    438.144    495.539    438.144
101.470   1806.000   1849.503    -43.503    437.836   1792.165    437.836    495.483    437.836
101.570   1791.869   1782.660      9.209    437.528   1725.250    437.528    495.239    437.528
101.670   1690.000   1708.515    -18.515    437.220   1651.218    437.220    494.807    437.220
101.770   1587.000   1631.197    -44.197    436.913   1574.195    436.913    494.189    436.913
101.870   1512.323   1554.511    -42.188    436.607   1497.979    436.607    493.395    436.607
101.970   1535.926   1481.617     54.309    436.301   1425.720    436.301    492.435    436.301
102.070   1367.107   1414.872    -47.765    435.995   1359.762    435.995    491.323    435.995
102.170   1325.290   1355.775    -30.485    435.691   1301.589    435.691    490.076    435.691
102.270   1255.000   1304.989    -49.989    435.387   1251.847    435.387    488.712    435.387
102.370   1250.578   1262.391    -11.812    435.083   1210.393    435.083    487.248    435.083
102.470   1233.917   1227.152      6.765    434.781   1176.383    434.781    485.705    434.781
102.570   1179.000   1197.855    -18.855    434.479   1148.379    434.479    484.099    434.479
102.670   1218.293   1172.634     45.660    434.178   1124.500    434.178    482.449    434.178
102.770   1133.665   1149.389    -15.725    433.878   1102.628    433.878    480.771    433.878
102.870   1167.972   1126.042     41.930    433.578   1080.670    433.578    479.078    433.578
102.970   1155.765   1100.820     54.945    433.280   1056.841    433.280    477.385    433.280
103.070   1043.000   1072.502    -29.502    432.983   1029.908    432.983    475.701    432.983
103.170   1064.000   1040.533     23.467    432.686    999.304    432.686    474.037    432.686
103.270   1061.000   1005.004     55.996    432.391    965.113    432.391    472.401    432.391
103.370    969.000    966.532      2.468    432.096    927.944    432.096    470.799    432.096
103.470    958.000    925.989     32.011    431.803    888.665    431.803    469.236    431.803
103.570    940.444    884.387     56.057    431.510    848.284    431.510    467.717    431.510
103.670    801.712    842.741    -41.029    431.219    807.811    431.219    466.245    431.219
103.770    830.000    801.989     28.011    430.929    768.185    430.929    464.821    430.929
103.870    755.000    762.952     -7.952    430.641    730.223    430.641    463.449    430.641
103.970    741.883    726.298     15.585    430.353    694.595    430.353    462.128    430.353
104.070    676.000    692.536    -16.536    430.067    661.808    430.067    460.859    430.067
104.170    704.000    662.007     41.993    429.782    632.203    429.782    459.641    429.782
104.270    602.561    634.889    -32.328    429.499    605.960    429.499    458.475    429.499
104.370    575.000    611.213    -36.213    429.217    583.111    429.217    457.360    429.217
104.470    653.000    590.888     62.112    428.936    563.563    428.936    456.295    428.936
104.570    556.000    573.722    -17.722    428.657    547.129    428.657    455.279    428.657
104.670    566.000    559.458      6.542    428.379    533.551    428.379    454.311    428.379
104.770    564.000    547.801     16.199    428.103    522.535    428.103    453.389    428.103
104.870    538.330    538.442     -0.112    427.829    513.775    427.829    452.512    427.829
104.970    583.000    531.082     51.918    427.556    506.972    427.556    451.679    427.556
105.070    481.888    525.448    -43.560    427.285    501.855    427.285    450.888    427.285
105.170    477.001    521.302    -44.301    427.016    498.187    427.016    450.139    427.016
105.270    545.788    518.451     27.337    426.748    495.776    426.748    449.428    426.748
105.370    548.000    516.746     31.254    426.482    494.474    426.482    448.756    426.482
105.470    530.000    516.082     13.918    426.218    494.180    426.218    448.121    426.218
105.570    521.000    516.397      4.603    425.956    494.831    425.956    447.522    425.956
105.670    498.000    517.664    -19.664    425.696    496.400    425.696    446.956    425.696
105.770    558.000    519.884     38.116    425.438    498.893    425.438    446.424    425.438
105.870    566.649    523.085     43.564    425.182    502.335    425.182    445.924    425.182
105.970    525.000    527.307     -2.307    424.928    506.770    424.928    445.455    424.928
106.070    531.559    532.598     -1.040    424.676    512.246    424.676    445.015    424.676
106.170    546.000    539.001      6.999    424.426    518.807    424.426    444.605    424.426
106.270    578.691    546.542     32.149    424.178    526.480    424.178    444.222    424.178
106.370    547.000    555.218     -8.218    423.933    535.262    423.933    443.867    423.933
106.470    554.000    564.987    -10.987    423.690    545.114    423.690    443.538    423.690
106.570    570.000    575.763     -5.763    423.449    555.949    423.449    443.235    423.449
106.670    565.000    587.404    -22.404    423.210    567.627    423.210    442.958    423.210
106.770    588.381    599.718    -11.337    422.974    579.954    422.974    442.705    422.974
106.870    606.000    612.456     -6.456    422.741    592.685    422.741    442.477    422.741
106.970    600.000    625.320    -25.320    422.510    605.519    422.510    442.272    422.510
107.070    604.000    637.967    -33.967    422.281    618.117    422.281    442.092    422.281
107.170    688.079    650.021     38.058    422.055    630.101    422.055    441.934    422.055
107.270    681.816    661.096     20.720    421.832    641.086    421.832    441.801    421.832
107.370    605.000    670.821    -65.821    421.611    650.702    421.611    441.690    421.611
107.470    673.104    678.885     -5.781    421.393    658.638    421.393    441.603    421.393
107.570    638.280    685.084    -46.805    421.178    664.688    421.178    441.539    421.178
107.670    645.254    689.358    -44.105    420.965    668.793    420.965    441.499    420.965
107.770    639.000    691.811    -52.811    420.756    671.056    420.756    441.482    420.756
107.870    690.000    692.696     -2.696    420.549    671.732    420.549    441.490    420.549
107.970    718.270    692.381     25.889    420.346    671.186    420.346    441.522    420.346
108.070    664.000    691.287    -27.287    420.145    669.839    420.145    441.579    420.145
108.170    671.000    689.837    -18.837    419.948    668.113    419.948    441.661    419.948
108.270    672.000    688.407    -16.407    419.753    666.386    419.753    441.769    419.753
108.370    629.000    687.296    -58.296    419.562    664.953    419.562    441.904    419.562
108.470    717.985    686.714     31.270    419.374    664.025    419.374    442.066    419.374
108.570    690.000    686.754      3.246    419.189    663.694    419.189    442.256    419.189
108.670    727.427    687.398     40.029    419.008    663.941    419.008    442.475    419.008
108.770    714.000    688.516     25.484    418.829    664.636    418.829    442.724    418.829
108.870    671.000    689.874    -18.874    418.655    665.543    418.655    443.003    418.655
108.970    674.000    691.148    -17.148    418.483    666.339    418.483    443.315    418.483
109.070    705.000    691.951     13.049    418.316    666.632    418.316    443.659    418.316
109.170    705.528    691.865     13.663    418.151    666.006    418.151    444.038    418.151
109.270    648.132    690.521    -42.389    417.991    664.090    417.991    444.452    417.991
109.370    706.000    687.608     18.392    417.834    660.571    417.834    444.903    417.834
109.470    664.000    682.950    -18.950    417.681    655.273    417.681    445.392    417.681
109.570    675.000    676.527     -1.527    417.531    648.172    417.531    445.921    417.531
109.670    702.170    668.465     33.705    417.386    639.395    417.386    446.492    417.386
109.770    689.000    659.012     29.988    417.244    629.187    417.244    447.105    417.244
109.870    667.368    648.491     18.877    417.106    617.869    417.106    447.762    417.106
109.970    655.000    637.259     17.741    416.973    605.798    416.973    448.466    416.973
110.070    644.000    625.672     18.328    416.843    593.328    416.843    449.218    416.843
110.170    656.367    614.072     42.295    416.717    580.798    416.717    450.020    416.717
110.270    614.000    602.760     11.240    416.596    568.508    416.596    450.873    416.596
110.370    553.843    591.995    -38.152    416.479    556.717    416.479    451.781    416.479
110.470    608.000    581.994     26.006    416.366    545.638    416.366    452.743    416.366
110.570    551.347    572.924    -21.577    416.257    535.435    416.257    453.764    416.257
110.670    542.367    564.904    -22.537    416.153    526.229    416.153    454.844    416.153
110.770    570.000    558.010     11.990    416.053    518.090    416.053    455.985    416.053
110.870    586.701    552.273     34.428    415.958    511.051    415.958    457.190    415.958
110.970    550.000    547.690      2.310    415.867    505.104    415.867    458.461    415.867
111.070    556.000    544.226     11.774    415.781    500.214    415.781    459.799    415.781
111.170    570.000    541.822     28.178    415.699    496.318    415.699    461.207    415.699
111.270    558.276    540.402     17.874    415.622    493.340    415.622    462.686    415.622
111.370    549.000    539.878      9.122    415.550    491.191    415.550    464.238    415.550
111.470    530.755    540.158     -9.403    415.483    489.775    415.483    465.865    415.483
111.570    549.179    541.149      8.030    415.421    489.000    415.421    467.568    415.421
111.670    554.986    542.763     12.223    415.363    488.775    415.363    469.349    415.363
111.770    538.434    544.916     -6.481    415.311    489.015    415.311    471.208    415.311
111.870    589.000    547.534     41.466    415.264    489.646    415.264    473.147    415.264
111.970    570.000    550.553     19.447    415.222    490.603    415.222    475.167    415.222
112.070    528.865    553.918    -25.054    415.185    491.831    415.185    477.266    415.185
112.170    596.541    557.588     38.952    415.153    493.289    415.153    479.446    415.153
112.270    507.000    561.533    -54.533    415.127    494.947    415.127    481.706    415.127
112.370    548.000    565.734    -17.734    415.106    496.789    415.106    484.044    415.106
112.470    606.235    570.186     36.049    415.091    498.811    415.091    486.459    415.091
112.570    582.000    574.896      7.104    415.081    501.022    415.081    488.948    415.081
112.670    549.000    579.881    -30.881    415.076    503.444    415.076    491.507    415.076
112.770    540.067    585.173    -45.106    415.078    506.111    415.078    494.132    415.078
112.870    581.000    590.813     -9.813    415.085    509.071    415.085    496.818    415.085
112.970    609.000    596.857     12.143    415.097    512.388    415.097    499.558    415.097
113.070    594.000    603.381     -9.381    415.116    516.144    415.116    502.345    415.116
113.170    636.000    610.480     25.520    415.140    520.443    415.140    505.168    415.140
113.270    635.017    618.279     16.738    415.171    525.424    415.171    508.017    415.171
113.370    611.896    626.944    -15.048    415.207    531.261    415.207    510.880    415.207
113.470    657.223    636.685     20.538    415.250    538.181    415.250    513.742    415.250
113.570    693.992    647.777     46.214    415.298    546.473    415.298    516.588    415.298
113.670    619.372    660.570    -41.197    415.353    556.506    415.353    519.401    415.353
113.770    637.941    675.507    -37.566    415.414    568.743    415.414    522.160    415.414
113.870    645.000    693.149    -48.149    415.482    583.761    415.482    524.846    415.482
113.970    729.958    714.184     15.774    415.556    602.275    415.556    527.437    415.556
114.070    703.000    739.459    -36.459    415.636    625.153    415.636    529.909    415.636
114.170    734.000    769.991    -35.991    415.723    653.433    415.723    532.239    415.723
114.270    779.115    806.985    -27.870    415.817    688.346    415.817    534.404    415.817
114.370    846.000    851.843     -5.843    415.917    731.318    415.917    536.380    415.917
114.470    878.000    906.164    -28.164    416.024    783.968    416.024    538.144    416.024
114.570   1009.988    971.705     38.283    416.138    848.075    416.138    539.675    416.138
114.670   1001.901   1050.501    -48.600    416.259    925.692    416.259    540.956    416.259
114.770   1171.000   1144.627     26.373    416.387   1018.911    416.387    541.969    416.387
114.870   1307.000   1256.235     50.765    416.521   1129.896    416.521    542.703    416.521
114.970   1361.904   1387.485    -25.581    416.663   1260.815    416.663    543.149    416.663
115.070   1562.000   1540.440     21.560    416.812   1413.738    416.812    543.302    416.812
115.170   1678.870   1716.949    -38.078    416.969   1590.513    416.969    543.162    416.969
115.270   1967.000   1918.520     48.480    417.132   1792.645    417.132    542.733    417.132
115.370   2244.000   2146.181     97.819    417.303   2021.156    417.303    542.024    417.303
115.470   2358.000   2400.339    -42.339    417.482   2276.440    417.482    541.046    417.482
115.570   2685.351   2680.644      4.707    417.668   2558.134    417.668    539.816    417.668
115.670   3070.000   2985.863     84.137    417.861   2864.987    417.861    538.352    417.861
115.770   3419.000   3313.780    105.220    418.063   3194.766    418.063    536.674    418.063
115.870   3782.000   3661.124    120.876    418.272   3544.175    418.272    534.805    418.272
115.970   4068.000   4023.526     44.474    418.489   3908.826    418.489    532.769    418.489
116.070   4409.000   4395.523     13.477    418.713   4283.234    418.713    530.589    418.713
116.170   4670.000   4770.601   -100.601    418.946   4660.860    418.946    528.290    418.946
116.270   5171.166   5141.273     29.893    419.187   5034.198    419.187    525.894    419.187
116.370   5452.000   5499.220    -47.220    419.436   5394.905    419.436    523.423    419.436
116.470   5879.012   5835.477     43.535    419.693   5733.998    419.693    520.899    419.693
116.570   6055.000   6140.708    -85.708    419.959   6042.120    419.959    518.341    419.959
116.670   6356.925   6405.576    -48.650    420.233   6309.914    420.233    515.766    420.233
116.770   6736.000   6621.226    114.774    420.515   6528.510    420.515    513.192    420.515
116.870   6824.144   6779.886     44.258    420.806   6690.118    420.806    510.631    420.806
116.970   6736.213   6875.513   -139.300    421.105   6788.677    421.105    508.098    421.105
117.070   6830.000   6904.382    -74.382    421.413   6820.449    421.413    505.603    421.413
117.170   6892.000   6865.500     26.500    421.730   6784.425    421.730    503.156    421.730
117.270   6670.000   6760.710    -90.710    422.055   6682.439    422.055    500.765    422.055
117.370   6473.919   6594.478   -120.559    422.390   6518.944    422.390    498.437    422.390
117.470   6417.893   6373.403     44.490    422.733   6300.532    422.733    496.177    422.733
117.570   6108.000   6105.590      2.410    423.086   6035.303    423.086    493.991    423.086
117.670   5619.000   5800.007   -181.007    423.448   5732.219    423.448    491.882    423.448
117.770   5432.645   5465.916    -33.271    423.818   5400.542    423.818    489.853    423.818
117.870   5100.361   5112.431    -12.070    424.199   5049.384    424.199    487.906    424.199
117.970   4747.000   4748.177     -1.177    424.588   4687.372    424.588    486.042    424.588
118.070   4440.000   4381.057     58.943    424.987   4322.406    424.987    484.262    424.987
118.170   4087.000   4018.075     68.925    425.396   3961.495    425.396    482.566    425.396
118.270   3766.254   3665.237    101.017    425.814   3610.645    425.814    480.955    425.814
118.370   3244.000   3327.484    -83.484    426.242   3274.802    426.242    479.429    426.242
118.470   2988.000   3008.686    -20.686    426.680   2957.836    426.680    477.985    426.680
118.570   2664.396   2711.667    -47.271    427.128   2662.577    427.128    476.624    427.128
118.670   2451.638   2438.278     13.360    427.585   2390.875    427.585    475.344    427.585
118.770   2111.000   2189.485    -78.485    428.053   2143.702    428.053    474.143    428.053
118.870   2015.322   1965.487     49.835    428.531   1921.258    428.531    473.021    428.531
118.970   1733.630   1765.833    -32.203    429.018   1723.096    429.018    471.975    429.018
119.070   1535.455   1589.550    -54.095    429.517   1548.244    429.517    471.005    429.517
119.170   1425.022   1435.263    -10.241    430.025   1395.329    430.025    470.107    430.025
119.270   1199.000   1301.313   -102.313    430.545   1262.695    430.545    469.280    430.545
119.370   1191.000   1185.862      5.138    431.074   1148.507    431.074    468.523    431.074
119.470   1096.000   1086.996      9.004    431.615   1050.850    431.615    467.833    431.615
119.570   1009.000   1002.801      6.199    432.166    967.813    432.166    467.208    432.166
119.670    937.000    931.429      5.571    432.727    897.550    432.727    466.647    432.727
119.770    887.379    871.150     16.229    433.300    838.333    433.300    466.148    433.300
119.870    886.000    820.382     65.618    433.884    788.580    433.884    465.709    433.884
119.970    720.524    777.707    -57.184    434.479    746.876    434.479    465.327    434.479
120.070    704.000    741.882    -37.882    435.085    711.978    435.085    465.001    435.085
120.170    725.000    711.832     13.168    435.702    682.814    435.702    464.730    435.702
120.270    691.000    686.641      4.359    436.331    658.469    436.331    464.511    436.331
120.370    614.570    665.539    -50.969    436.971    638.173    436.971    464.343    436.971
120.470    622.000    647.884    -25.884    437.623    621.288    437.623    464.225    437.623
120.570    675.000    633.148     41.852    438.286    607.287    438.286    464.154    438.286
120.670    618.000    620.898     -2.898    438.961    595.737    438.961    464.129    438.961
120.770    645.000    610.781     34.219    439.647    586.287    439.647    464.149    439.647
120.870    573.000    602.509    -29.509    440.346    578.651    440.346    464.211    440.346
120.970    595.000    595.849     -0.849    441.057    572.598    441.057    464.316    441.057
121.070    627.447    590.611     36.836    441.779    567.939    441.779    464.461    441.779
121.170    558.000    586.640    -28.640    442.514    564.519    442.514    464.645    442.514
121.270    556.995    583.806    -26.811    443.261    562.212    443.261    464.867    443.261
121.370    541.807    582.001    -40.194    444.021    560.909    444.021    465.125    444.021
121.470    563.000    581.132    -18.132    444.793    560.520    444.793    465.419    444.793
121.570    570.156    581.116    -10.960    445.577    560.962    445.577    465.747    445.577
121.670    551.808    581.878    -30.070    446.374    562.161    446.374    466.109    446.374
121.770    530.000    583.345    -53.345    447.184    564.045    447.184    466.502    447.184
121.870    565.000    585.443    -20.443    448.007    566.544    448.007    466.927    448.007
121.970    556.000    588.087    -32.087    448.843    569.570    448.843    467.382    448.843
122.070    557.000    591.206    -34.206    449.691    573.057    449.691    467.866    449.691
122.170    597.000    594.755      2.245    450.553    576.957    450.553    468.379    450.553
122.270    561.765    598.626    -36.861    451.428    581.165    451.428    468.919    451.428
122.370    577.895    602.725    -24.830    452.316    585.589    452.316    469.485    452.316
122.470    646.000    606.956     39.044    453.218    590.133    453.218    470.078    453.218
122.570    613.000    611.217      1.783    454.134    594.695    454.134    470.695    454.134
122.670    589.000    615.401    -26.401    455.062    599.170    455.062    471.336    455.062
122.770    643.288    619.399     23.889    456.005    603.448    456.005    472.000    456.005
122.870    604.296    623.100    -18.804    456.961    607.422    456.961    472.687    456.961
122.970    668.460    626.398     42.062    457.932    610.984    457.932    473.396    457.932
123.070    656.000    629.195     26.805    458.916    614.038    458.916    474.127    458.916
123.170    636.241    631.406      4.835    459.915    616.498    459.915    474.877    459.915
123.270    639.000    632.963      6.037    460.927    618.298    460.927    475.648    460.927
123.370    681.239    633.821     47.418    461.954    619.394    461.954    476.438    461.954
123.470    631.571    633.960     -2.388    462.996    619.765    462.996    477.248    462.996
123.570    624.000    633.384     -9.384    464.051    619.418    464.051    478.075    464.051
123.670    673.000    632.123     40.877    465.122    618.381    465.122    478.921    465.122
123.770    659.000    630.221     28.779    466.207    616.700    466.207    479.785    466.207
123.870    580.149    627.742    -47.593    467.307    614.438    467.307    480.666    467.307
123.970    653.000    624.754     28.246    468.422    611.665    468.422    481.565    468.422
124.070    637.000    621.336     15.664    469.553    608.458    469.553    482.480    469.553
124.170    660.715    617.564     43.150    470.698    604.897    470.698    483.413    470.698
124.270    614.000    613.517      0.483    471.858    601.057    471.858    484.363    471.858
124.370    609.016    609.269     -0.253    473.034    597.015    473.034    485.330    473.034
124.470    595.000    604.892     -9.892    474.225    592.841    474.225    486.315    474.225
124.570    622.000    600.450     21.550    475.432    588.601    475.432    487.316    475.432
124.670    579.000    596.002    -17.002    476.655    584.354    476.655    488.335    476.655
124.770    636.469    591.600     44.870    477.893    580.150    477.893    489.372    477.893
124.870    616.000    587.288     28.712    479.147    576.035    479.147    490.426    479.147
124.970    588.000    583.103      4.897    480.418    572.046    480.418    491.498    480.418
