neutron_powder_diffraction_0043
R_wp: 3.832
Temperature (K): 608.253
Counts: 83717.00
Wavelength (Ã…): 2.52098
COMMENTS
Test file for demonstrating the .xyy file format in Reel1.0
END OF HEADER
   tth       Y_obs     Y_calc      Y_res    Background    Phase_1_Nuc    Phase_1_Mag    Phase_2_Nuc    Phase_2_Mag
  9.970    686.062    682.250      3.813    680.701    681.779    681.171    680.701    680.701
 10.070    695.000    681.627     13.373    679.985    681.151    680.461    679.985    679.985
 10.170    727.000    681.017     45.983    679.271    680.536    679.752    679.271    679.271
 10.270    710.000    680.423     29.577    678.558    679.937    679.044    678.558    678.558
 10.370    660.000    679.847    -19.847    677.846    679.356    678.337    677.846    677.846
 10.470    632.500    679.294    -46.794    677.135    678.797    677.632    677.135    677.135
 10.570    671.094    678.768     -7.674    676.426    678.265    676.927    676.426    676.426
 10.670    669.797    678.275     -8.478    675.717    677.767    676.224    675.717    675.717
 10.770    752.000    677.824     74.176    675.009    677.310    675.522    675.009    675.009
 10.870    675.896    677.425     -1.529    674.303    676.906    674.821    674.303    674.303
 10.970    735.000    677.094     57.906    673.597    676.569    674.122    673.597    673.597
 11.070    639.000    676.852    -37.852    672.893    676.320    673.423    672.893    672.893
 11.170    691.000    676.727     14.273    672.190    676.188    672.726    672.190    672.190
 11.270    695.000    676.765     18.235    671.489    676.220    672.031    671.489    671.489
 11.370    735.000    677.038     57.962    670.788    676.486    671.337    670.788    670.788
 11.470    715.314    677.683     37.630    670.089    677.125    670.644    670.089    670.089
 11.570    718.460    679.009     39.452    669.391    678.442    669.953    669.391    669.391
 11.670    706.000    681.693     24.307    668.695    681.118    669.262    668.695    668.695
 11.770    659.857    687.073    -27.216    667.999    686.488    668.574    667.999    667.999
 11.870    722.000    697.242     24.758    667.305    696.644    667.887    667.305    667.305
 11.970    770.000    714.441     55.559    666.613    713.826    667.201    666.613    666.613
 12.070    831.000    739.266     91.734    665.921    738.629    666.517    665.921    665.921
 12.170    745.541    767.590    -22.049    665.232    766.930    665.834    665.232    665.232
 12.270    794.620    787.951      6.669    664.543    787.272    665.153    664.543    664.543
 12.370    780.000    787.387     -7.387    663.856    786.700    664.473    663.856    663.856
 12.470    769.000    765.808      3.192    663.171    765.125    663.795    663.171    663.171
 12.570    727.000    736.134     -9.134    662.486    735.460    663.118    662.486    662.486
 12.670    705.000    709.892     -4.892    661.804    709.226    662.444    661.804    661.804
 12.770    690.000    691.267     -1.267    661.123    690.603    661.770    661.123    661.123
 12.870    672.000    679.690     -7.690    660.443    679.024    661.099    660.443    660.443
 12.970    726.916    672.924     53.993    659.765    672.252    660.429    659.765    659.765
 13.070    638.000    668.868    -30.868    659.088    668.191    659.761    659.088    659.088
 13.170    646.000    666.181    -20.181    658.413    665.496    659.094    658.413    658.413
 13.270    623.000    664.184    -41.184    657.739    663.491    658.429    657.739    657.739
 13.370    651.558    662.627    -11.069    657.068    661.925    657.766    657.068    657.068
 13.470    664.000    661.314      2.686    656.397    660.604    657.105    656.397    656.397
 13.570    667.000    660.093      6.907    655.729    659.374    656.446    655.729    655.729
 13.670    659.000    658.984      0.016    655.061    658.255    655.788    655.061    655.061
 13.770    641.000    657.976    -16.976    654.396    657.238    655.133    654.396    654.396
 13.870    631.000    657.040    -26.040    653.732    656.292    654.479    653.732    653.732
 13.970    663.037    656.142      6.895    653.070    655.384    653.827    653.070    653.070
 14.070    647.000    655.284     -8.284    652.410    654.517    653.177    652.410    652.410
 14.170    708.793    654.462     54.332    651.751    653.683    652.528    651.751    651.751
 14.270    637.000    653.667    -16.667    651.094    652.878    651.882    651.094    651.094
 14.370    615.000    652.895    -37.895    650.439    652.095    651.238    650.439    650.439
 14.470    646.000    652.142     -6.142    649.785    651.332    650.595    649.785    649.785
 14.570    604.000    651.407    -47.407    649.134    650.585    649.955    649.134    649.134
 14.670    602.000    650.685    -48.685    648.484    649.852    649.317    648.484    648.484
 14.770    603.999    649.976    -45.977    647.835    649.130    648.680    647.835    647.835
 14.870    600.353    649.277    -48.924    647.189    648.420    648.046    647.189    647.189
 14.970    659.858    648.588     11.270    646.545    647.719    647.414    646.545    646.545
 15.070    654.000    647.908      6.092    645.902    647.025    646.784    645.902    645.902
 15.170    658.000    647.235     10.765    645.261    646.340    646.156    645.261    645.261
 15.270    687.938    646.569     41.369    644.622    645.661    645.530    644.622    644.622
 15.370    657.515    645.909     11.606    643.985    644.988    644.906    643.985    643.985
 15.470    668.365    645.256     23.109    643.350    644.320    644.285    643.350    643.350
 15.570    696.175    644.608     51.567    642.716    643.659    643.665    642.716    642.716
 15.670    602.000    643.969    -41.969    642.085    643.005    643.048    642.085    642.085
 15.770    655.000    643.333     11.667    641.455    642.354    642.434    641.455    641.455
 15.870    661.527    642.699     18.828    640.828    641.705    641.821    640.828    640.828
 15.970    689.102    642.070     47.032    640.202    641.061    641.211    640.202    640.202
 16.070    652.398    641.449     10.949    639.578    640.424    640.603    639.578    639.578
 16.170    608.000    640.832    -32.832    638.956    639.791    639.998    638.956    638.956
 16.270    673.000    640.216     32.784    638.337    639.158    639.394    638.337    638.337
 16.370    595.610    639.602    -43.993    637.719    638.528    638.794    637.719    637.719
 16.470    610.000    638.993    -28.993    637.103    637.901    638.195    637.103    637.103
 16.570    680.000    638.387     41.613    636.489    637.277    637.599    636.489    636.489
 16.670    611.000    637.785    -26.785    635.878    636.656    637.006    635.878    635.878
 16.770    626.000    637.186    -11.186    635.268    636.039    636.415    635.268    635.268
 16.870    618.000    636.591    -18.591    634.660    635.424    635.827    634.660    634.660
 16.970    627.685    635.999     -8.314    634.055    634.813    635.241    634.055    634.055
 17.070    650.000    635.419     14.581    633.451    634.212    634.658    633.451    633.451
 17.170    666.152    634.905     31.247    632.850    633.676    634.079    632.850    632.850
 17.270    616.000    634.331    -18.331    632.251    633.081    633.501    632.251    632.251
 17.370    619.000    633.759    -14.759    631.653    632.487    632.925    631.653    631.653
 17.470    641.000    633.212      7.788    631.058    631.918    632.353    631.058    631.058
 17.570    657.976    632.655     25.321    630.465    631.338    631.783    630.465    630.465
 17.670    671.000    632.088     38.912    629.874    630.747    631.216    629.874    629.874
 17.770    633.000    631.524      1.476    629.286    630.158    630.651    629.286    629.286
 17.870    615.882    630.962    -15.080    628.699    629.572    630.089    628.699    628.699
 17.970    637.000    630.405      6.595    628.115    628.988    629.531    628.115    628.115
 18.070    584.000    629.850    -45.850    627.533    628.408    628.975    627.533    627.533
 18.170    640.007    629.299     10.708    626.953    627.829    628.422    626.953    626.953
 18.270    612.000    628.751    -16.751    626.375    627.254    627.872    626.375    626.375
 18.370    637.000    628.207      8.793    625.799    626.681    627.325    625.799    625.799
 18.470    621.810    627.667     -5.856    625.226    626.111    626.781    625.226    625.226
 18.570    577.148    627.130    -49.982    624.654    625.544    626.240    624.654    624.654
 18.670    642.000    626.601     15.399    624.085    624.983    625.703    624.085    624.085
 18.770    587.128    626.082    -38.954    623.519    624.432    625.169    623.519    623.519
 18.870    573.673    625.557    -51.884    622.954    623.874    624.637    622.954    622.954
 18.970    606.000    625.035    -19.035    622.392    623.317    624.109    622.392    622.392
 19.070    621.085    624.516     -3.431    621.832    622.763    623.585    621.832    621.832
 19.170    637.000    624.005     12.995    621.274    622.214    623.064    621.274    621.274
 19.270    644.000    623.527     20.473    620.719    621.692    622.554    620.719    620.719
 19.370    634.000    623.062     10.938    620.165    621.178    622.049    620.165    620.165
 19.470    656.690    622.563     34.126    619.615    620.638    621.539    619.615    619.615
 19.570    621.000    622.065     -1.065    619.066    620.099    621.032    619.066    619.066
 19.670    653.702    621.572     32.131    618.520    619.562    620.529    618.520    618.520
 19.770    604.000    621.083    -17.083    617.976    619.029    620.029    617.976    617.976
 19.870    629.000    620.611      8.389    617.434    618.511    619.534    617.434    617.434
 19.970    605.977    620.146    -14.169    616.895    617.998    619.042    616.895    616.895
 20.070    639.866    619.681     20.185    616.358    617.481    618.557    616.358    616.358
 20.170    599.000    619.245    -20.245    615.823    616.983    618.085    615.823    615.823
 20.270    606.157    618.797    -12.640    615.291    616.480    617.608    615.291    615.291
 20.370    626.211    618.389      7.822    614.761    616.016    617.134    614.761    614.761
 20.470    654.623    617.954     36.669    614.233    615.524    616.663    614.233    614.233
 20.570    605.000    617.532    -12.532    613.708    615.044    616.197    613.708    613.708
 20.670    565.864    617.092    -51.229    613.185    614.542    615.735    613.185    613.185
 20.770    560.000    616.669    -56.669    612.665    614.055    615.278    612.665    612.665
 20.870    576.000    616.289    -40.289    612.147    613.609    614.827    612.147    612.147
 20.970    578.000    615.868    -37.868    611.631    613.119    614.379    611.631    611.631
 21.070    628.000    615.453     12.547    611.118    612.633    613.938    611.118    611.118
 21.170    595.000    615.048    -20.048    610.607    612.151    613.504    610.607    610.607
 21.270    627.450    614.644     12.806    610.099    611.670    613.073    610.099    610.099
 21.370    586.000    614.257    -28.257    609.593    611.203    612.647    609.593    609.593
 21.470    606.036    613.869     -7.833    609.089    610.732    612.226    609.089    609.089
 21.570    633.000    613.488     19.512    608.588    610.264    611.812    608.588    608.588
 21.670    598.430    613.112    -14.682    608.089    609.798    611.403    608.089    608.089
 21.770    572.000    612.744    -40.744    607.593    609.336    611.001    607.593    607.593
 21.870    590.020    612.386    -22.365    607.099    608.879    610.606    607.099    607.099
 21.970    578.000    612.037    -34.037    606.608    608.427    610.217    606.608    606.608
 22.070    616.452    611.698      4.754    606.119    607.981    609.836    606.119    606.119
 22.170    649.000    611.371     37.629    605.632    607.541    609.462    605.632    605.632
 22.270    615.000    611.055      3.945    605.148    607.108    609.095    605.148    605.148
 22.370    660.171    610.752     49.420    604.667    606.681    608.737    604.667    604.667
 22.470    558.776    610.463    -51.687    604.188    606.263    608.387    604.188    604.188
 22.570    610.964    610.190      0.774    603.711    605.855    608.046    603.711    603.711
 22.670    646.000    609.941     36.059    603.237    605.461    607.716    603.237    603.237
 22.770    559.000    609.704    -50.704    602.765    605.074    607.395    602.765    602.765
 22.870    601.000    609.484     -8.484    602.296    604.697    607.083    602.296    602.296
 22.970    578.000    609.286    -31.286    601.829    604.333    606.783    601.829    601.829
 23.070    586.859    609.113    -22.254    601.365    603.985    606.493    601.365    601.365
 23.170    586.000    608.968    -22.968    600.904    603.657    606.216    600.904    600.904
 23.270    638.000    608.857     29.143    600.445    603.351    605.951    600.445    600.445
 23.370    610.000    608.783      1.217    599.988    603.072    605.700    599.988    599.988
 23.470    649.365    608.755     40.609    599.534    602.826    605.463    599.534    599.534
 23.570    605.000    608.782     -3.782    599.082    602.622    605.243    599.082    599.082
 23.670    608.240    608.876     -0.636    598.633    602.471    605.038    598.633    598.633
 23.770    647.000    609.052     37.948    598.186    602.388    604.851    598.186    598.186
 23.870    658.768    609.335     49.433    597.742    602.396    604.683    597.742    597.742
 23.970    630.000    609.760     20.240    597.301    602.528    604.535    597.301    597.301
 24.070    608.595    610.387     -1.792    596.862    602.843    604.409    596.862    596.862
 24.170    620.000    611.336      8.664    596.425    603.459    604.306    596.425    596.425
 24.270    601.000    612.869    -11.869    595.991    604.635    604.229    595.991    595.991
 24.370    602.000    615.535    -13.535    595.560    606.921    604.180    595.560    595.560
 24.470    633.000    620.331     12.669    595.131    611.310    604.161    595.131    595.131
 24.570    623.000    628.659     -5.659    594.705    619.204    604.175    594.705    594.705
 24.670    612.793    641.772    -28.979    594.281    631.852    604.226    594.281    594.281
 24.770    683.000    659.517     23.483    593.860    649.098    604.315    593.860    593.860
 24.870    670.182    678.387     -8.204    593.441    667.430    604.448    593.441    593.441
 24.970    695.000    690.322      4.678    593.025    678.775    604.630    593.025    593.025
 25.070    679.000    687.926     -8.926    592.611    675.729    604.865    592.611    592.611
 25.170    695.000    673.250     21.750    592.200    660.337    605.159    592.200    592.200
 25.270    685.453    654.822     30.631    591.792    641.127    605.519    591.792    591.792
 25.370    650.000    639.151     10.849    591.386    624.604    605.954    591.386    591.386
 25.470    623.000    628.423     -5.423    590.983    612.945    606.472    590.983    590.983
 25.570    624.529    622.178      2.352    590.582    605.682    607.085    590.582    590.582
 25.670    619.000    619.047     -0.047    590.184    601.431    607.805    590.184    590.184
 25.770    578.360    617.767    -39.407    589.788    598.911    608.647    589.788    589.788
 25.870    632.562    617.524     15.038    589.395    597.292    609.629    589.395    589.395
 25.970    591.000    617.908    -26.908    589.004    596.141    610.772    589.004    589.004
 26.070    575.444    618.744    -43.300    588.616    595.258    612.103    588.616    588.616
 26.170    639.000    619.972     19.028    588.231    594.551    613.651    588.231    588.231
 26.270    677.614    621.585     56.028    587.848    593.976    615.457    587.848    587.848
 26.370    618.594    623.606     -5.012    587.467    593.506    617.565    587.467    587.467
 26.470    649.000    626.080     22.920    587.090    593.129    620.039    587.090    587.090
 26.570    620.735    629.068     -8.333    586.714    592.834    622.946    586.714    586.714
 26.670    670.000    632.665     37.335    586.342    592.622    626.382    586.342    586.342
 26.770    633.329    636.989     -3.660    585.972    592.491    630.466    585.972    585.972
 26.870    620.000    642.204    -22.204    585.604    592.446    635.358    585.604    585.604
 26.970    633.000    648.533    -15.533    585.239    592.502    641.265    585.239    585.239
 27.070    662.000    656.276      5.724    584.877    592.678    648.470    584.877    584.877
 27.170    647.128    665.850    -18.722    584.517    593.000    657.360    584.517    584.517
 27.270    708.106    677.838     30.267    584.160    593.509    668.480    584.160    584.160
 27.370    730.000    693.093     36.907    583.805    594.264    682.623    583.805    583.805
 27.470    691.000    712.931    -21.931    583.453    595.357    701.013    583.453    583.453
 27.570    768.025    739.745     28.280    583.103    596.955    725.876    583.103    583.103
 27.670    810.000    779.276     30.724    582.756    599.456    762.552    582.756    582.756
 27.770    880.000    848.216     31.784    582.412    604.015    826.572    582.412    582.412
 27.870   1060.707    992.900     67.807    582.070    613.828    961.060    582.070    582.070
 27.970   1290.000   1315.867    -25.867    581.731    635.969   1261.458    581.731    581.731
 28.070   1806.000   1973.462   -167.462    581.394    681.220   1873.305    581.394    581.394
 28.170   3052.730   3077.204    -24.473    581.060    757.291   2900.437    581.060    581.060
 28.270   4367.000   4486.779   -119.779    580.728    854.575   4212.254    580.728    580.728
 28.370   5594.000   5650.088    -56.088    580.399    935.174   5294.701    580.399    580.399
 28.470   5864.239   5862.170      2.069    580.072    950.843   5491.062    580.072    580.072
 28.570   5013.556   5014.272     -0.716    579.748    894.800   4699.132    579.748    579.748
 28.670   3904.000   3797.976    106.024    579.427    816.005   3561.404    579.427    579.427
 28.770   2874.000   2938.575    -64.575    579.108    766.106   2751.561    579.108    579.108
 28.870   2653.000   2711.426    -58.426    578.791    764.929   2525.223    578.791    578.791
 28.970   2892.252   2972.984    -80.732    578.477    800.557   2750.835    578.477    578.477
 29.070   3303.419   3325.658    -22.239    578.166    839.088   3064.749    578.166    578.166
 29.170   3391.000   3344.133     46.867    577.857    842.781   3079.348    577.857    577.857
 29.270   3067.000   2897.408    169.592    577.551    800.582   2674.582    577.551    577.551
 29.370   2245.096   2228.189     16.907    577.247    736.512   2069.112    577.247    577.247
 29.470   1602.884   1620.313    -17.429    576.946    678.175   1519.215    576.946    576.946
 29.570   1171.000   1197.119    -26.119    576.648    637.561   1136.280    576.648    576.648
 29.670    943.022    951.606     -8.584    576.352    614.039    913.955    576.352    576.352
 29.770    872.000    824.227     47.773    576.058    601.889    798.413    576.058    576.058
 29.870    756.948    758.821     -1.872    575.767    595.711    738.884    575.767    575.767
 29.970    772.000    721.695     50.305    575.478    592.275    704.902    575.478    575.478
 30.070    719.000    697.434     21.566    575.192    590.114    682.513    575.192    575.192
 30.170    772.000    679.955     92.045    574.909    588.672    666.191    574.909    574.909
 30.270    732.000    666.854     65.146    574.628    587.769    653.712    574.628    574.628
 30.370    694.000    657.123     36.877    574.349    587.415    644.054    574.349    574.349
 30.470    626.660    650.552    -23.892    574.073    587.844    636.776    574.073    574.073
 30.570    680.000    647.776     32.224    573.800    589.642    631.925    573.800    573.800
 30.670    739.000    650.394     88.606    573.529    593.867    630.040    573.529    573.529
 30.770    645.225    660.549    -15.324    573.260    601.832    631.952    573.260    573.260
 30.870    732.961    679.427     53.534    572.994    614.288    638.093    572.994    572.994
 30.970    714.896    704.699     10.197    572.731    630.011    647.363    572.731    572.731
 31.070    736.000    727.852      8.148    572.470    644.325    655.931    572.470    572.470
 31.170    727.000    735.092     -8.092    572.211    649.606    657.630    572.211    572.211
 31.270    717.000    719.048     -2.048    571.955    641.791    649.156    571.955    571.955
 31.370    721.853    688.881     32.973    571.701    625.996    634.546    571.701    571.701
 31.470    705.000    658.183     46.817    571.450    609.795    619.812    571.450    571.450
 31.570    669.000    634.276     34.724    571.201    597.275    608.186    571.201    571.201
 31.670    629.335    618.519     10.816    570.955    589.207    600.257    570.955    570.955
 31.770    614.782    609.165      5.617    570.711    584.633    595.237    570.711    570.711
 31.870    689.000    603.771     85.229    570.470    582.207    592.029    570.470    570.470
 31.970    613.000    600.484     12.516    570.231    580.909    589.803    570.231    570.231
 32.070    604.000    598.271      5.729    569.995    580.173    588.089    569.995    569.995
 32.170    621.000    596.660     24.340    569.761    579.747    586.671    569.761    569.761
 32.270    606.000    595.455     10.545    569.529    579.528    585.453    569.529    569.529
 32.370    560.000    594.573    -34.573    569.300    579.480    584.390    569.300    569.300
 32.470    567.000    593.979    -26.979    569.073    579.592    583.458    569.073    569.073
 32.570    604.000    593.660     10.340    568.849    579.866    582.641    568.849    568.849
 32.670    622.501    593.622     28.879    568.627    580.316    581.930    568.627    568.627
 32.770    628.519    593.886     34.633    568.408    580.969    581.323    568.408    568.408
 32.870    593.330    594.494     -1.164    568.191    581.863    580.819    568.191    568.191
 32.970    632.000    595.509     36.491    567.976    583.057    580.425    567.976    567.976
 33.070    618.000    597.028     20.972    567.764    584.635    580.154    567.764    567.764
 33.170    625.000    599.202     25.798    567.554    586.723    580.030    567.554    567.554
 33.270    638.381    602.291     36.090    567.346    589.540    580.094    567.346    567.346
 33.370    627.000    606.807     20.193    567.141    593.508    580.436    567.141    567.141
 33.470    633.101    613.871     19.230    566.938    599.553    581.250    566.938    566.938
 33.570    662.000    625.914     36.086    566.738    609.678    582.966    566.738    566.738
 33.670    638.000    647.648     -9.648    566.540    627.763    586.413    566.540    566.540
 33.770    715.000    686.580     28.420    566.344    659.988    592.918    566.344    566.344
 33.870    761.000    751.584      9.416    566.151    713.659    604.046    566.151    566.151
 33.970    807.359    848.153    -40.794    565.960    793.299    620.769    565.960    565.960
 34.070    985.000    970.390     14.610    565.771    894.058    642.043    565.771    565.771
 34.170   1139.000   1091.322     47.678    565.585    993.738    663.102    565.585    565.585
 34.270   1250.000   1161.122     88.878    565.401   1051.325    675.138    565.401    565.401
 34.370   1077.518   1139.709    -62.191    565.219   1033.824    671.066    565.219    565.219
 34.470    969.591   1040.994    -71.403    565.040    952.675    653.342    565.040    565.040
 34.570    874.000    914.630    -40.630    564.863    848.749    630.741    564.863    564.863
 34.670    752.000    801.114    -49.114    564.688    755.384    610.420    564.688    564.688
 34.770    697.000    717.417    -20.417    564.516    686.555    595.379    564.516    564.516
 34.870    683.000    663.601     19.399    564.346    642.318    585.630    564.346    564.346
 34.970    631.000    632.057     -1.057    564.178    616.407    579.827    564.178    564.178
 35.070    605.141    614.217     -9.076    564.012    601.771    576.457    564.012    564.012
 35.170    677.000    603.772     73.228    563.849    593.216    574.404    563.849    563.849
 35.270    611.000    597.084     13.916    563.688    587.747    573.024    563.688    563.688
 35.370    612.000    592.363     19.637    563.529    583.889    572.002    563.529    563.529
 35.470    542.000    588.788    -46.788    563.373    580.967    571.193    563.373    563.373
 35.570    592.000    585.970      6.030    563.218    578.660    570.528    563.218    563.218
 35.670    595.000    583.697     11.303    563.066    576.792    569.970    563.066    563.066
 35.770    558.000    581.835    -23.835    562.916    575.254    569.496    562.916    562.916
 35.870    558.200    580.293    -22.093    562.769    573.970    569.091    562.769    562.769
 35.970    544.401    579.007    -34.606    562.624    572.885    568.745    562.624    562.624
 36.070    573.000    577.929     -4.929    562.480    571.959    568.450    562.480    562.480
 36.170    544.000    577.026    -33.026    562.339    571.163    568.202    562.339    562.339
 36.270    548.000    576.271    -28.271    562.201    570.473    567.998    562.201    562.201
 36.370    560.000    575.648    -15.648    562.064    569.873    567.838    562.064    562.064
 36.470    618.718    575.144     43.574    561.930    569.349    567.724    561.930    561.930
 36.570    606.430    574.754     31.675    561.797    568.893    567.658    561.797    561.797
 36.670    601.000    574.477     26.523    561.667    568.497    567.647    561.667    561.667
 36.770    571.000    574.316     -3.316    561.540    568.158    567.697    561.540    561.540
 36.870    576.000    574.283      1.717    561.414    567.876    567.821    561.414    561.414
 36.970    574.000    574.399     -0.399    561.290    567.654    568.035    561.290    561.290
 37.070    613.173    574.703     38.470    561.169    567.506    568.365    561.169    561.169
 37.170    581.000    575.266      5.734    561.049    567.467    568.848    561.049    561.049
 37.270    563.000    576.230    -13.230    560.932    567.606    569.555    560.932    560.932
 37.370    524.823    577.859    -53.036    560.817    568.046    570.629    560.817    560.817
 37.470    624.568    580.622     43.946    560.704    568.963    572.362    560.704    560.704
 37.570    567.000    585.291    -18.291    560.593    570.545    575.338    560.593    560.593
 37.670    616.730    592.974     23.756    560.484    572.893    580.564    560.484    560.484
 37.770    610.803    604.964      5.839    560.378    575.865    589.475    560.378    560.378
 37.870    623.000    622.187      0.813    560.273    578.884    603.572    560.273    560.273
 37.970    673.395    644.312     29.083    560.170    580.893    623.584    560.170    560.170
 38.070    620.152    669.055    -48.903    560.070    580.946    648.172    560.070    560.070
 38.170    687.000    691.564     -4.564    559.971    579.088    672.440    559.971    559.971
 38.270    738.583    704.030     34.553    559.875    576.192    687.707    559.875    559.875
 38.370    686.000    699.642    -13.642    559.780    573.113    686.307    559.780    559.780
 38.470    636.000    679.673    -43.673    559.688    570.369    668.993    559.688    559.688
 38.570    596.000    652.621    -56.621    559.598    568.208    644.013    559.598    559.598
 38.670    591.000    626.744    -35.744    559.509    566.659    619.596    559.509    559.509
 38.770    582.218    606.274    -24.057    559.423    565.615    600.084    559.423    559.423
 38.870    599.000    592.048      6.952    559.339    564.928    586.459    559.339    559.339
 38.970    570.000    583.047    -13.047    559.256    564.471    577.832    559.256    559.256
 39.070    571.692    577.655     -5.962    559.176    564.154    572.677    559.176    559.176
 39.170    573.000    574.432     -1.432    559.097    563.920    569.610    559.097    559.097
 39.270    607.000    572.403     34.597    559.021    563.738    567.686    559.021    559.021
 39.370    568.000    571.012     -3.012    558.946    563.590    566.368    558.946    558.946
 39.470    537.241    569.981    -32.740    558.873    563.468    565.387    558.873    558.873
 39.570    581.000    569.177     11.823    558.803    563.365    564.614    558.803    558.803
 39.670    555.000    568.526    -13.526    558.734    563.277    563.983    558.734    558.734
 39.770    605.000    567.993     37.007    558.667    563.204    563.457    558.667    558.667
 39.870    557.000    567.555    -10.555    558.602    563.147    563.010    558.602    558.602
 39.970    525.730    567.192    -41.461    558.539    563.103    562.627    558.539    558.539
 40.070    544.528    566.889    -22.361    558.478    563.073    562.294    558.478    558.478
 40.170    581.144    566.638     14.506    558.418    563.054    562.003    558.418    558.418
 40.270    565.000    566.431     -1.431    558.361    563.048    561.744    558.361    558.361
 40.370    572.000    566.264      5.736    558.305    563.055    561.514    558.305    558.305
 40.470    538.000    566.131    -28.131    558.252    563.075    561.308    558.252    558.252
 40.570    595.337    566.032     29.305    558.200    563.110    561.122    558.200    558.200
 40.670    565.000    565.965     -0.965    558.149    563.161    560.954    558.149    558.149
 40.770    582.000    565.928     16.072    558.101    563.229    560.801    558.101    558.101
 40.870    590.150    565.924     24.226    558.055    563.318    560.661    558.055    558.055
 40.970    553.000    565.952    -12.952    558.010    563.429    560.534    558.010    558.010
 41.070    541.000    566.015    -25.015    557.967    563.566    560.417    557.967    557.967
 41.170    516.856    566.118    -49.262    557.926    563.733    560.311    557.926    557.926
 41.270    537.000    566.265    -29.265    557.887    563.938    560.215    557.887    557.887
 41.370    515.890    566.463    -50.573    557.849    564.186    560.127    557.849    557.849
 41.470    498.000    566.723    -68.723    557.813    564.489    560.048    557.813    557.813
 41.570    557.000    567.058    -10.058    557.779    564.860    559.978    557.779    557.779
 41.670    560.000    567.487     -7.487    557.747    565.317    559.917    557.747    557.747
 41.770    588.000    568.040     19.960    557.716    565.891    559.866    557.716    557.716
 41.870    532.000    568.768    -36.768    557.687    566.630    559.827    557.687    557.687
 41.970    553.000    569.770    -16.770    557.660    567.630    559.802    557.660    557.660
 42.070    584.714    571.243     13.471    557.634    569.081    559.799    557.634    557.634
 42.170    536.000    573.566    -37.566    557.610    571.347    559.833    557.610    557.610
 42.270    545.000    577.402    -32.402    557.588    575.068    559.927    557.588    557.588
 42.370    547.000    583.746    -36.746    557.567    581.201    560.121    557.567    557.567
 42.470    578.000    593.795    -15.795    557.549    590.899    560.457    557.549    557.549
 42.570    604.251    608.540     -4.289    557.531    605.115    560.975    557.531    557.531
 42.670    630.497    628.050      2.448    557.516    623.916    561.676    557.516    557.516
 42.770    627.417    650.543    -23.126    557.502    645.588    562.494    557.502    557.502
 42.870    625.514    671.445    -45.931    557.489    665.728    563.254    557.489    557.489
 42.970    629.214    683.682    -54.468    557.478    677.527    563.689    557.478    557.478
 43.070    649.398    681.701    -32.304    557.469    675.638    563.590    557.469    557.469
 43.170    654.000    666.569    -12.569    557.461    661.087    562.996    557.461    557.461
 43.270    586.000    644.780    -58.780    557.455    640.125    562.153    557.455    557.455
 43.370    583.000    622.864    -39.864    557.451    619.039    561.308    557.451    557.451
 43.470    596.638    604.598     -7.960    557.448    601.465    560.603    557.448    557.448
 43.570    578.000    591.196    -13.196    557.446    588.571    560.085    557.446    557.446
 43.670    550.000    582.275    -32.275    557.446    579.991    559.740    557.446    557.446
 43.770    553.000    576.742    -23.742    557.448    574.672    559.525    557.448    557.448
 43.870    581.000    573.432      7.568    557.451    571.491    559.396    557.451    557.451
 43.970    601.182    571.435     29.747    557.456    569.574    559.320    557.456    557.456
 44.070    571.000    570.172      0.828    557.462    568.362    559.274    557.462    557.462
 44.170    551.000    569.317    -18.317    557.469    567.542    559.246    557.469    557.469
 44.270    550.740    568.707    -17.967    557.478    566.956    559.230    557.478    557.478
 44.370    547.000    568.256    -21.256    557.488    566.523    559.223    557.488    557.488
 44.470    591.000    567.920     23.080    557.500    566.200    559.222    557.500    557.500
 44.570    567.706    567.674      0.032    557.514    565.961    559.228    557.514    557.514
 44.670    581.000    567.498     13.502    557.528    565.789    559.238    557.528    557.528
 44.770    572.000    567.382      4.618    557.544    565.673    559.254    557.544    557.544
 44.870    529.000    567.314    -38.314    557.562    565.602    559.274    557.562    557.562
 44.970    551.770    567.288    -15.519    557.581    565.571    559.298    557.581    557.581
 45.070    540.961    567.300    -26.339    557.601    565.574    559.327    557.601    557.601
 45.170    542.000    567.345    -25.345    557.623    565.608    559.360    557.623    557.623
 45.270    566.000    567.421     -1.421    557.646    565.670    559.396    557.646    557.646
 45.370    573.817    567.525      6.291    557.670    565.758    559.437    557.670    557.670
 45.470    546.000    567.657    -21.657    557.696    565.870    559.482    557.696    557.696
 45.570    564.000    567.816     -3.816    557.723    566.006    559.532    557.723    557.723
 45.670    553.000    568.001    -15.001    557.751    566.166    559.585    557.751    557.751
 45.770    553.605    568.212    -14.607    557.780    566.349    559.644    557.780    557.780
 45.870    601.000    568.452     32.548    557.811    566.556    559.707    557.811    557.811
 45.970    564.000    568.721     -4.721    557.843    566.789    559.775    557.843    557.843
 46.070    633.000    569.021     63.979    557.877    567.049    559.848    557.877    557.877
 46.170    564.216    569.355     -5.139    557.911    567.338    559.927    557.911    557.911
 46.270    624.000    569.726     54.274    557.947    567.659    560.013    557.947    557.947
 46.370    555.064    570.138    -15.073    557.984    568.016    560.105    557.984    557.984
 46.470    595.000    570.596     24.404    558.022    568.413    560.205    558.022    558.022
 46.570    540.851    571.109    -30.258    558.062    568.856    560.313    558.062    558.062
 46.670    600.000    571.683     28.317    558.103    569.354    560.430    558.103    558.103
 46.770    557.000    572.333    -15.333    558.144    569.916    560.559    558.144    558.144
 46.870    553.000    573.073    -20.073    558.187    570.558    560.700    558.187    558.187
 46.970    615.000    573.931     41.069    558.232    571.303    560.857    558.232    558.232
 47.070    604.000    574.952     29.048    558.277    572.192    561.034    558.277    558.277
 47.170    549.000    576.221    -27.221    558.323    573.301    561.241    558.323    558.323
 47.270    576.000    577.896     -1.896    558.371    574.771    561.491    558.371    558.371
 47.370    601.000    580.251     20.749    558.420    576.852    561.813    558.420    558.420
 47.470    606.909    583.728     23.181    558.470    579.941    562.248    558.470    558.470
 47.570    628.715    588.928     39.787    558.520    584.582    562.856    558.520    558.520
 47.670    550.000    596.522    -46.522    558.572    591.378    563.699    558.572    558.572
 47.770    622.000    607.020     14.980    558.625    600.793    564.829    558.625    558.625
 47.870    656.000    620.421     35.579    558.680    612.820    566.247    558.680    558.680
 47.970    655.000    635.778     19.222    558.735    626.607    567.863    558.735    558.735
 48.070    651.000    650.787      0.213    558.791    640.064    569.461    558.791    558.791
 48.170    622.641    661.777    -39.136    558.848    649.872    570.695    558.848    558.848
 48.270    715.310    665.121     50.188    558.906    652.748    571.222    558.906    558.906
 48.370    686.000    659.957     26.043    558.965    647.906    570.963    558.965    558.965
 48.470    606.742    649.075    -42.333    559.026    637.868    570.189    559.026    559.026
 48.570    634.000    636.546     -2.546    559.087    626.307    569.292    559.087    559.087
 48.670    619.735    625.406     -5.671    559.149    615.963    568.567    559.149    559.149
 48.770    596.000    617.206    -21.206    559.212    608.229    568.172    559.212    559.212
 48.870    593.000    612.380    -19.380    559.276    603.486    568.157    559.276    559.276
 48.970    659.740    610.700     49.040    559.341    601.513    568.518    559.341    559.341
 49.070    630.826    611.680     19.146    559.406    601.852    569.227    559.406    559.406
 49.170    578.730    614.895    -36.165    559.473    604.086    570.275    559.473    559.473
 49.270    622.000    620.204      1.796    559.541    608.040    571.698    559.541    559.541
 49.370    615.000    628.006    -13.006    559.609    613.972    573.636    559.609    559.609
 49.470    659.000    639.733     19.267    559.679    622.956    576.446    559.679    559.679
 49.570    690.000    658.930     31.070    559.749    637.697    580.968    559.749    559.749
 49.670    682.000    693.174    -11.174    559.820    664.001    588.969    559.820    559.820
 49.770    773.958    756.497     17.461    559.892    712.634    603.714    559.892    559.892
 49.870    921.438    870.734     50.704    559.964    800.349    630.280    559.964    559.964
 49.970    990.000   1062.744    -72.744    560.038    947.758    674.911    560.038    560.038
 50.070   1313.000   1354.522    -41.522    560.112   1171.749    742.720    560.112    560.112
 50.170   1751.995   1746.513      5.482    560.187   1472.676    833.814    560.187    560.187
 50.270   2141.000   2199.744    -58.744    560.263   1820.650    939.129    560.263    560.263
 50.370   2521.000   2626.144   -105.144    560.340   2148.142   1038.146    560.340    560.340
 50.470   2828.000   2901.828    -73.828    560.417   2360.069   1102.073    560.417    560.417
 50.570   3031.000   2922.950    108.050    560.495   2376.633   1106.834    560.495    560.495
 50.670   2657.000   2680.747    -23.747    560.574   2191.173   1050.272    560.574    560.574
 50.770   2291.000   2270.172     20.828    560.653   1876.618    954.381    560.653    560.653
 50.870   1793.000   1817.960    -24.960    560.733   1530.327    848.540    560.733    560.733
 50.970   1363.244   1419.383    -56.139    560.814   1225.529    754.812    560.814    560.814
 51.070   1120.000   1120.314     -0.314    560.896    997.509    683.807    560.896    560.896
 51.170    959.724    924.742     34.982    560.978    849.316    636.477    560.978    560.978
 51.270    828.000    811.900     16.100    561.061    764.855    608.158    561.061    561.061
 51.370    729.000    753.421    -24.421    561.144    721.989    592.616    561.144    561.144
 51.470    737.000    724.334     12.666    561.228    700.975    584.623    561.228    561.228
 51.570    692.000    707.404    -15.404    561.313    687.949    580.800    561.313    561.313
 51.670    718.000    693.642     24.358    561.398    675.700    579.368    561.398    561.398
 51.770    699.000    680.558     18.442    561.484    662.542    579.521    561.484    561.484
 51.870    686.892    668.797     18.096    561.571    649.520    580.862    561.571    561.571
 51.970    658.928    659.356     -0.428    561.658    638.007    583.015    561.658    561.658
 52.070    639.480    652.509    -13.029    561.745    628.839    585.417    561.745    561.745
 52.170    697.000    647.695     49.305    561.834    622.272    587.256    561.834    561.834
 52.270    659.000    643.883     15.117    561.922    618.153    587.649    561.922    561.922
 52.370    643.280    640.302      2.978    562.011    616.131    586.179    562.011    562.011
 52.470    687.436    636.997     50.439    562.101    615.850    583.245    562.101    562.101
 52.570    634.664    634.595      0.070    562.191    617.096    579.687    562.191    562.191
 52.670    650.799    633.881     16.918    562.282    619.907    576.253    562.282    562.282
 52.770    682.213    635.728     46.486    562.373    624.693    573.406    562.373    562.373
 52.870    627.936    641.287    -13.351    562.465    632.415    571.335    562.465    562.465
 52.970    605.630    652.300    -46.670    562.557    644.811    570.043    562.557    562.557
 53.070    681.000    671.406      9.594    562.649    664.611    569.440    562.649    562.649
 53.170    744.000    702.216     41.784    562.742    695.522    569.430    562.742    562.742
 53.270    733.000    748.887    -15.887    562.835    741.759    569.954    562.835    562.835
 53.370    874.000    814.999     59.001    562.929    806.931    570.985    562.929    562.929
 53.470    894.000    901.755     -7.755    563.023    892.274    572.488    563.023    563.023
 53.570   1020.780   1005.790     14.991    563.117    994.520    574.369    563.117    563.117
 53.670   1047.797   1116.854    -69.057    563.212   1103.635    576.414    563.212    563.212
 53.770   1212.000   1216.114     -4.114    563.307   1201.185    578.223    563.307    563.307
 53.870   1265.000   1278.422    -13.422    563.403   1262.503    579.317    563.403    563.403
 53.970   1231.000   1283.221    -52.221    563.499   1267.342    579.383    563.499    563.499
 54.070   1189.645   1228.759    -39.114    563.595   1214.033    578.334    563.595    563.595
 54.170   1107.000   1133.790    -26.790    563.691   1120.977    576.521    563.691    563.691
 54.270    967.000   1023.849    -56.849    563.788   1013.224    574.431    563.788    563.788
 54.370    974.056    918.950     55.106    563.885    910.404    572.445    563.885    563.885
 54.470    797.000    830.424    -33.424    563.982    823.638    570.780    563.982    563.982
 54.570    704.000    762.406    -58.406    564.079    756.981    569.513    564.079    564.079
 54.670    710.000    714.123     -4.123    564.177    709.677    568.629    564.177    564.177
 54.770    711.000    682.112     28.888    564.275    678.330    568.061    564.275    564.275
 54.870    631.111    662.076    -30.965    564.373    658.725    567.726    564.373    564.373
 54.970    668.000    650.121     17.879    564.471    647.045    567.549    564.471    564.471
 55.070    618.000    643.321    -25.321    564.570    640.417    567.473    564.570    564.570
 55.170    647.000    639.758      7.242    564.669    636.964    567.462    564.669    564.669
 55.270    617.862    638.314    -20.452    564.767    635.588    567.493    564.767    564.767
 55.370    660.000    638.405     21.595    564.867    635.716    567.555    564.867    564.867
 55.470    685.677    639.767     45.910    564.966    637.091    567.641    564.966    564.966
 55.570    682.000    642.326     39.674    565.065    639.640    567.750    565.065    565.065
 55.670    590.999    646.140    -55.141    565.164    643.422    567.881    565.164    565.164
 55.770    686.000    651.403     34.597    565.264    648.628    568.036    565.264    565.264
 55.870    697.734    658.517     39.216    565.363    655.657    568.221    565.363    565.363
 55.970    652.580    668.279    -15.700    565.463    665.293    568.445    565.463    565.463
 56.070    657.000    682.225    -25.225    565.563    679.052    568.730    565.563    565.563
 56.170    717.000    703.198     13.802    565.663    699.739    569.111    565.663    565.663
 56.270    700.491    736.105    -35.614    565.763    732.196    569.654    565.763    565.763
 56.370    777.000    788.637    -11.637    565.862    784.012    570.460    565.862    565.862
 56.470    840.000    871.460    -31.460    565.962    865.710    571.670    565.962    565.962
 56.570   1000.000    997.140      2.860    566.062    989.694    573.449    566.062    566.062
 56.670   1167.000   1177.217    -10.217    566.162   1167.352    575.949    566.162    566.162
 56.770   1443.325   1417.385     25.939    566.262   1404.309    579.246    566.262    566.262
 56.870   1665.754   1711.680    -45.927    566.362   1694.685    583.262    566.362    566.362
 56.970   1964.806   2036.921    -72.116    566.462   2015.609    587.694    566.462    566.462
 57.070   2332.823   2348.565    -15.743    566.562   2323.130    591.958    566.562    566.562
 57.170   2556.043   2581.711    -25.668    566.661   2553.197    595.201    566.661    566.661
 57.270   2744.000   2668.997     75.003    566.761   2639.317    596.540    566.761    566.761
 57.370   2648.584   2580.228     68.356    566.861   2551.663    595.581    566.861    566.861
 57.470   2413.059   2346.759     66.300    566.960   2321.159    592.739    566.960    566.960
 57.570   2097.674   2036.386     61.289    567.059   2014.709    588.911    567.059    567.059
 57.670   1693.000   1713.816    -20.816    567.159   1696.168    584.959    567.159    567.159
 57.770   1425.000   1423.233      1.767    567.258   1409.128    581.482    567.258    567.258
 57.870   1175.055   1187.582    -12.527    567.357   1176.202    578.825    567.357    567.357
 57.970    977.000   1012.882    -35.882    567.456   1003.251    577.146    567.456    567.456
 58.070    876.000    893.943    -17.943    567.554    885.000    576.534    567.554    567.554
 58.170    866.294    820.370     45.924    567.653    810.921    577.121    567.653    567.653
 58.270    765.000    781.524    -16.524    567.751    770.103    579.179    567.751    567.751
 58.370    815.797    769.473     46.325    567.849    754.180    583.137    567.849    567.849
 58.470    800.000    779.789     20.211    567.947    758.225    589.495    567.947    567.947
 58.570    858.314    810.721     47.593    568.045    780.137    598.601    568.045    568.045
 58.670    879.211    861.430     17.781    568.142    819.191    610.343    568.142    568.142
 58.770    940.000    930.056      9.944    568.239    874.389    623.857    568.239    568.239
 58.870   1069.361   1012.025     57.336    568.336    942.936    637.370    568.336    568.336
 58.970   1100.053   1099.119      0.934    568.433   1019.198    648.299    568.433    568.433
 59.070   1226.398   1180.462     45.935    568.529   1095.060    653.886    568.529    568.529
 59.170   1189.000   1246.333    -57.333    568.625   1162.381    652.547    568.625    568.625
 59.270   1260.000   1291.377    -31.377    568.721   1215.179    644.908    568.721    568.721
 59.370   1288.000   1313.097    -25.097    568.816   1248.620    633.300    568.816    568.816
 59.470   1294.711   1309.758    -15.047    568.911   1258.297    620.394    568.911    568.911
 59.570   1281.000   1283.392     -2.392    569.006   1244.128    608.298    569.006    569.006
 59.670   1320.766   1243.504     77.262    569.101   1214.342    598.282    569.101    569.101
 59.770   1240.180   1204.345     35.836    569.195   1182.739    590.799    569.195    569.195
 59.870   1213.000   1178.858     34.142    569.288   1162.438    585.671    569.288    569.288
 59.970   1116.342   1175.532    -59.189    569.382   1162.457    582.377    569.382    569.382
 60.070   1235.000   1198.843     36.157    569.475   1187.869    580.320    569.475    569.475
 60.170   1305.000   1250.368     54.632    569.567   1240.735    579.023    569.567    569.567
 60.270   1366.988   1327.670     39.318    569.659   1318.923    578.184    569.659    569.659
 60.370   1440.000   1421.325     18.675    569.751   1413.180    577.638    569.751    569.751
 60.470   1549.000   1512.966     36.034    569.842   1505.232    577.300    569.842    569.842
 60.570   1624.713   1576.763     47.951    569.933   1569.302    577.124    569.933    569.933
 60.670   1581.000   1587.192     -6.192    570.023   1579.894    577.080    570.023    570.023
 60.770   1554.000   1532.911     21.089    570.113   1525.670    577.155    570.113    570.113
 60.870   1432.000   1424.585      7.415    570.202   1417.289    577.344    570.202    570.202
 60.970   1211.937   1286.658    -74.721    570.291   1279.179    577.658    570.291    570.291
 61.070   1074.766   1143.965    -69.199    570.380   1136.146    578.119    570.380    570.380
 61.170    958.439   1014.886    -56.446    570.467   1006.524    578.772    570.467    570.467
 61.270    956.959    910.184     46.775    570.555    900.994    579.704    570.555    570.555
 61.370    772.594    834.115    -61.521    570.642    823.651    581.072    570.642    570.642
 61.470    745.744    786.539    -40.795    570.728    774.084    583.150    570.728    570.728
 61.570    810.000    765.457     44.543    570.813    749.862    586.371    570.813    570.813
 61.670    753.525    769.219    -15.694    570.898    748.714    591.356    570.898    570.898
 61.770    783.000    797.754    -14.754    570.983    769.786    598.888    570.983    570.983
 61.870    812.345    852.513    -40.167    571.067    813.683    609.810    571.067    571.067
 61.970    923.073    935.182    -12.109    571.150    881.415    624.800    571.150    571.150
 62.070   1003.000   1045.587    -42.587    571.233    972.599    644.068    571.233    571.233
 62.170   1184.794   1179.358      5.436    571.315   1083.459    667.024    571.315    571.315
 62.270   1342.000   1325.936     16.064    571.397   1205.121    691.988    571.397    571.397
 62.370   1468.000   1467.394      0.606    571.477   1322.601    716.024    571.477    571.477
 62.470   1550.000   1579.161    -29.161    571.558   1415.391    735.078    571.558    571.558
 62.570   1541.000   1635.465    -94.465    571.637   1461.988    744.884    571.637    571.637
 62.670   1578.000   1620.736    -42.736    571.716   1449.393    742.870    571.716    571.716
 62.770   1565.715   1539.045     26.670    571.794   1380.983    729.716    571.794    571.794
 62.870   1452.094   1411.239     40.855    571.871   1274.127    708.889    571.871    571.871
 62.970   1261.000   1263.397     -2.397    571.948   1150.564    684.723    571.948    571.948
 63.070   1090.000   1117.639    -27.639    572.024   1028.734    660.896    572.024    572.024
 63.170    919.000    988.778    -69.778    572.099    920.986    639.872    572.099    572.099
 63.270    933.511    884.342     49.169    572.174    833.596    622.909    572.174    572.174
 63.370    804.000    805.912     -1.912    572.248    767.879    610.273    572.248    572.248
 63.470    754.000    751.023      2.977    572.321    721.774    601.562    572.321    572.321
 63.570    744.956    715.193     29.763    572.393    691.540    596.036    572.393    572.393
 63.670    716.000    693.640     22.360    572.465    673.182    592.911    572.465    572.465
 63.770    689.650    682.412      7.238    572.535    663.390    591.542    572.535    572.535
 63.870    748.000    678.924     69.076    572.605    659.978    591.534    572.605    572.605
 63.970    655.196    682.139    -26.943    572.674    662.007    592.784    572.674    572.674
 64.070    720.000    692.380     27.620    572.743    669.602    595.491    572.743    572.743
 64.170    727.000    711.123     15.877    572.810    683.725    600.169    572.810    572.810
 64.270    696.603    740.649    -44.046    572.877    705.842    607.632    572.877    572.877
 64.370    787.000    783.530      3.470    572.943    737.467    618.935    572.943    572.943
 64.470    779.505    841.891    -62.386    573.007    779.590    635.216    573.007    573.007
 64.570    980.019    916.487     63.532    573.071    832.018    657.422    573.071    573.071
 64.670   1035.108   1005.656     29.452    573.135    892.715    685.931    573.135    573.135
 64.770   1117.000   1104.320     12.680    573.197    957.221    720.127    573.197    573.197
 64.870   1154.629   1203.324    -48.696    573.258   1018.366    758.028    573.258    573.258
 64.970   1326.590   1289.838     36.752    573.319   1066.927    796.033    573.319    573.319
 65.070   1368.000   1349.797     18.203    573.378   1094.033    828.952    573.378    573.378
 65.170   1435.000   1372.215     62.785    573.437   1094.786    850.694    573.437    573.437
 65.270   1361.000   1353.207      7.793    573.495   1070.415    856.145    573.495    573.495
 65.370   1244.038   1297.596    -53.558    573.552   1027.270    843.770    573.552    573.552
 65.470   1241.798   1217.149     24.649    573.608    974.030    816.652    573.608    573.608
 65.570   1070.443   1125.959    -55.516    573.662    918.894    780.682    573.662    573.662
 65.670   1038.000   1035.923      2.077    573.716    867.747    741.870    573.716    573.716
 65.770    945.000    954.685     -9.685    573.769    823.598    704.852    573.769    573.769
 65.870    827.463    885.721    -58.257    573.821    786.988    672.561    573.821    573.821
 65.970    819.000    829.499    -10.499    573.872    757.009    646.375    573.872    573.872
 66.070    770.687    784.935    -14.248    573.922    732.426    626.446    573.922    573.922
 66.170    805.064    750.444     54.619    573.971    712.337    612.092    573.971    573.971
 66.270    743.000    724.372     18.628    574.019    696.185    602.216    574.019    574.019
 66.370    622.000    705.133    -83.133    574.066    683.560    595.646    574.066    574.066
 66.470    643.000    691.332    -48.332    574.112    674.101    591.346    574.112    574.112
 66.570    675.788    681.866     -6.078    574.156    667.501    588.522    574.156    574.156
 66.670    685.000    675.938      9.062    574.200    663.516    586.621    574.200    574.200
 66.770    653.000    673.022    -20.022    574.243    661.973    585.289    574.243    574.243
 66.870    671.000    672.832     -1.832    574.284    662.797    584.317    574.284    574.284
 66.970    626.000    675.350    -49.350    574.325    666.082    583.590    574.325    574.325
 67.070    715.000    680.924     34.076    574.364    672.237    583.048    574.364    574.364
 67.170    702.000    690.446     11.554    574.403    682.174    582.671    574.403    574.403
 67.270    656.000    705.600    -49.600    574.440    697.569    582.466    574.440    574.440
 67.370    756.000    729.134     26.866    574.476    721.138    582.466    574.476    574.476
 67.470    729.000    765.096    -36.096    574.511    756.871    582.728    574.511    574.511
 67.570    800.000    818.881    -18.881    574.545    810.077    583.337    574.545    574.545
 67.670    867.940    896.901    -28.962    574.577    887.068    584.394    574.577    574.577
 67.770   1052.000   1005.733     46.267    574.609    994.313    586.006    574.609    574.609
 67.870   1117.000   1150.647    -33.647    574.639   1137.001    588.258    574.639    574.639
 67.970   1278.000   1333.675    -55.675    574.668   1317.134    591.181    574.668    574.668
 68.070   1490.241   1551.505    -61.264    574.696   1531.461    594.714    574.696    574.696
 68.170   1784.912   1793.584     -8.672    574.723   1769.614    598.678    574.723    574.723
 68.270   2018.067   2040.691    -22.624    574.749   2012.704    602.742    574.749    574.749
 68.370   2273.000   2264.480      8.520    574.773   2232.869    606.425    574.773    574.773
 68.470   2332.451   2429.856    -97.405    574.797   2395.611    609.129    574.797    574.797
 68.570   2516.000   2503.586     12.414    574.819   2468.258    610.288    574.819    574.819
 68.670   2459.000   2468.587     -9.587    574.839   2434.007    609.612    574.839    574.839
 68.770   2325.000   2333.393     -8.393    574.859   2301.236    607.244    574.859    574.859
 68.870   2100.848   2127.028    -26.180    574.877   2098.472    603.675    574.877    574.877
 68.970   1897.000   1885.049     11.951    574.894   1860.670    599.508    574.894    574.894
 69.070   1679.000   1638.649     40.351    574.910   1618.499    595.272    574.910    574.910
 69.170   1434.000   1410.399     23.601    574.925   1394.155    591.349    574.925    574.925
 69.270   1178.098   1213.906    -35.808    574.938   1201.020    587.970    574.938    574.938
 69.370   1060.000   1054.943      5.057    574.950   1044.773    585.233    574.950    574.950
 69.470    967.000    933.204     33.796    574.961    925.118    583.131    574.961    574.961
 69.570    879.628    844.371     35.258    574.970    837.809    581.591    574.970    574.970
 69.670    859.000    782.147     76.853    574.979    776.659    580.507    574.979    574.979
 69.770    817.000    739.914     77.086    574.985    735.162    579.765    574.985    574.985
 69.870    717.000    711.808      5.192    574.991    707.551    579.266    574.991    574.991
 69.970    695.460    693.209      2.252    574.995    689.284    578.931    574.995    574.995
 70.070    717.000    680.802     36.198    574.998    677.107    578.701    574.998    574.998
 70.170    665.000    672.395     -7.395    575.000    668.856    578.543    575.000    575.000
 70.270    666.000    666.622     -0.622    575.000    663.188    578.435    575.000    575.000
 70.370    618.327    662.680    -44.352    574.999    659.317    578.362    574.999    574.999
 70.470    649.000    660.127    -11.127    574.997    656.807    578.315    574.997    574.997
 70.570    726.000    658.748     67.252    574.993    655.446    578.292    574.993    574.993
 70.670    644.000    658.479    -14.479    574.988    655.170    578.292    574.988    574.988
 70.770    628.071    659.387    -31.315    574.981    656.044    578.318    574.981    574.981
 70.870    693.000    661.692     31.308    574.973    658.282    578.375    574.973    574.973
 70.970    642.000    665.832    -23.832    574.964    662.312    578.473    574.964    574.964
 71.070    666.000    672.561     -6.561    574.953    668.869    578.631    574.953    574.953
 71.170    684.000    683.091      0.909    574.941    679.136    578.876    574.941    574.941
 71.270    715.000    699.229     15.771    574.928    694.879    579.251    574.928    574.928
 71.370    746.000    723.503     22.497    574.913    718.564    579.814    574.913    574.913
 71.470    791.770    759.165     32.605    574.897    753.368    580.642    574.897    574.897
 71.570    821.000    810.020     10.980    574.879    803.006    581.822    574.879    574.879
 71.670    907.000    879.986     27.014    574.860    871.305    583.446    574.860    574.860
 71.770    974.000    972.363      1.637    574.839    961.487    585.591    574.839    574.839
 71.870   1071.000   1088.855    -17.855    574.817   1075.218    588.297    574.817    574.817
 71.970   1226.457   1228.490     -2.033    574.794   1211.547    591.543    574.794    574.794
 72.070   1367.000   1386.595    -19.595    574.769   1365.915    595.222    574.769    574.769
 72.170   1509.375   1553.985    -44.611    574.743   1529.348    599.123    574.743    574.743
 72.270   1767.688   1716.458     51.231    574.715   1687.975    602.919    574.715    574.715
 72.370   1793.000   1855.060    -62.060    574.686   1823.287    606.175    574.686    574.686
 72.470   1918.000   1948.438    -30.438    574.655   1914.422    608.399    574.655    574.655
 72.570   2030.000   1978.728     51.272    574.623   1943.927    609.180    574.623    574.623
 72.670   1942.000   1939.346      2.654    574.589   1905.362    608.367    574.589    574.589
 72.770   1911.029   1838.550     72.478    574.554   1806.787    606.151    574.554    574.554
 72.870   1667.003   1695.096    -28.093    574.517   1666.520    602.965    574.517    574.517
 72.970   1507.000   1530.338    -23.338    574.479   1505.424    599.297    574.479    574.479
 73.070   1287.000   1362.714    -75.714    574.440   1341.517    595.568    574.440    574.440
 73.170   1234.000   1205.761     28.239    574.398   1188.034    592.076    574.398    574.398
 73.270   1017.000   1068.014    -51.014    574.356   1053.328    589.007    574.356    574.356
 73.370    933.000    953.586    -20.586    574.312    941.432    586.441    574.312    574.312
 73.470    814.000    863.030    -49.030    574.266    852.892    584.386    574.266    574.266
 73.570    785.809    794.386     -8.577    574.219    785.788    582.802    574.219    574.219
 73.670    731.000    744.261    -13.261    574.170    736.790    581.630    574.170    574.170
 73.770    724.649    708.770     15.879    574.120    702.076    580.804    574.120    574.120
 73.870    695.000    684.225     10.775    574.068    678.019    580.267    574.068    574.068
 73.970    653.253    667.534    -14.282    574.015    661.566    579.976    574.015    574.015
 74.070    692.000    656.343     35.657    573.960    650.392    579.907    573.960    573.960
 74.170    681.000    649.001     31.999    573.904    642.855    580.048    573.904    573.904
 74.270    673.720    644.432     29.288    573.846    637.877    580.402    573.846    573.846
 74.370    666.000    641.960     24.040    573.786    634.778    580.972    573.786    573.786
 74.470    679.595    641.159     38.436    573.725    633.133    581.760    573.725    573.725
 74.570    642.000    641.723      0.277    573.663    632.647    582.751    573.663    573.663
 74.670    595.633    643.369    -47.737    573.598    633.071    583.915    573.598    573.598
 74.770    663.000    645.773     17.227    573.533    634.137    585.193    573.533    573.533
 74.870    670.841    648.530     22.312    573.465    635.526    586.499    573.465    573.465
 74.970    684.000    651.137     32.863    573.396    636.852    587.716    573.396    573.396
 75.070    666.000    653.033     12.967    573.326    637.685    588.712    573.326    573.326
 75.170    650.048    653.707     -3.659    573.254    637.636    589.366    573.254    573.254
 75.270    744.000    652.886     91.114    573.180    636.487    589.620    573.180    573.180
 75.370    651.000    650.672      0.328    573.105    634.298    589.518    573.105    573.105
 75.470    679.355    647.536     31.819    573.028    631.396    589.203    573.028    573.028
 75.570    654.676    644.169     10.508    572.950    628.263    588.884    572.950    572.950
 75.670    720.000    641.345     78.655    572.870    625.431    588.806    572.870    572.870
 75.770    664.000    639.851     24.149    572.788    623.422    589.232    572.788    572.788
 75.870    650.000    640.476      9.524    572.705    622.743    590.445    572.705    572.705
 75.970    643.000    644.013     -1.013    572.620    623.885    592.747    572.620    572.620
 76.070    685.000    651.247     33.753    572.534    627.318    596.452    572.534    572.534
 76.170    646.000    662.900    -16.900    572.446    633.465    601.861    572.446    572.446
 76.270    726.320    679.549     46.772    572.356    642.651    609.222    572.356    572.356
 76.370    728.000    701.492     26.508    572.265    655.038    618.676    572.265    572.265
 76.470    765.177    728.604     36.573    572.172    670.535    630.186    572.172    572.172
 76.570    713.970    760.182    -46.213    572.078    688.712    643.480    572.078    572.078
 76.670    740.000    794.817    -54.817    571.981    708.728    657.989    571.981    571.981
 76.770    878.000    830.289     47.711    571.884    729.271    672.810    571.884    571.884
 76.870    882.000    863.543     18.457    571.784    748.536    686.690    571.784    571.784
 76.970    882.000    890.823     -8.823    571.683    764.315    698.087    571.683    571.683
 77.070    878.190    908.213    -30.023    571.581    774.302    705.387    571.581    571.581
 77.170    866.000    912.695    -46.695    571.477    776.722    707.349    571.477    571.477
 77.270    839.171    903.346    -64.176    571.371    771.032    703.594    571.371    571.371
 77.370    872.000    881.770     -9.770    571.263    758.171    694.782    571.263    571.263
 77.470    871.000    851.364     19.636    571.154    740.131    682.319    571.154    571.154
 77.570    791.000    816.074    -25.074    571.043    719.228    667.833    571.043    571.043
 77.670    805.000    779.452     25.548    570.931    697.548    652.790    570.931    570.931
 77.770    751.000    744.258      6.742    570.817    676.709    638.331    570.817    570.817
 77.870    731.000    712.389     18.611    570.701    657.824    625.240    570.701    570.701
 77.970    657.000    684.942    -27.942    570.584    641.537    613.969    570.584    570.584
 78.070    716.691    662.332     54.359    570.465    628.091    604.691    570.465    570.465
 78.170    680.000    644.438     35.562    570.344    617.415    597.356    570.344    570.344
 78.270    674.692    630.779     43.913    570.222    609.224    591.768    570.222    570.222
 78.370    630.342    620.676      9.666    570.098    603.121    587.646    570.098    570.098
 78.470    562.000    613.394    -51.394    569.973    598.673    584.688    569.973    569.973
 78.570    587.000    608.250    -21.250    569.846    595.477    582.613    569.846    569.846
 78.670    589.000    604.661    -15.661    569.717    593.191    581.182    569.717    569.717
 78.770    614.000    602.174     11.826    569.586    591.548    580.209    569.586    569.586
 78.870    597.000    600.459     -3.459    569.454    590.352    579.557    569.454    569.454
 78.970    613.000    599.290     13.710    569.321    589.472    579.135    569.321    569.321
 79.070    610.000    598.523     11.477    569.185    588.819    578.885    569.185    569.185
 79.170    566.000    598.076    -32.076    569.048    588.346    578.774    569.048    569.048
 79.270    545.000    597.908    -52.908    568.910    588.027    578.787    568.910    568.910
 79.370    631.545    598.016     33.530    568.769    587.855    578.926    568.769    568.769
 79.470    584.000    598.420    -14.420    568.627    587.839    579.205    568.627    568.627
 79.570    565.549    599.171    -33.622    568.484    587.996    579.655    568.484    568.484
 79.670    577.000    600.351    -23.351    568.339    588.356    580.329    568.339    568.339
 79.770    572.000    602.083    -30.083    568.192    588.956    581.314    568.192    568.192
 79.870    579.000    604.553    -25.553    568.043    589.847    582.742    568.043    568.043
 79.970    609.185    608.025      1.160    567.893    591.095    584.815    567.893    567.893
 80.070    584.000    612.878    -28.878    567.741    592.784    587.826    567.741    567.741
 80.170    616.000    619.631     -3.631    567.588    595.026    592.181    567.588    567.588
 80.270    663.000    628.963     34.037    567.433    597.963    598.418    567.433    567.433
 80.370    632.000    641.720     -9.720    567.276    601.774    607.202    567.276    567.276
 80.470    656.000    658.875     -2.875    567.118    606.673    619.296    567.118    567.118
 80.570    708.000    681.458     26.542    566.958    612.897    635.489    566.958    566.958
 80.670    696.890    710.431    -13.542    566.797    620.704    656.489    566.797    566.797
 80.770    721.000    746.538    -25.538    566.634    630.352    682.778    566.634    566.634
 80.870    838.047    790.103     47.943    566.469    642.077    714.448    566.469    566.469
 80.970    879.000    840.823     38.177    566.302    656.042    751.031    566.302    566.302
 81.070    917.000    897.531     19.469    566.134    672.256    791.355    566.134    566.134
 81.170    979.638    958.033     21.605    565.965    690.490    833.453    565.965    565.965
 81.270   1040.711   1019.055     21.656    565.793    710.222    874.574    565.793    565.793
 81.370   1124.000   1076.409     47.591    565.621    730.629    911.355    565.621    565.621
 81.470   1243.000   1125.488    117.512    565.446    750.652    940.247    565.446    565.446
 81.570   1214.000   1162.089     51.911    565.270    769.148    958.189    565.270    565.270
 81.670   1240.000   1183.285     56.715    565.092    785.058    963.312    565.092    565.092
 81.770   1156.314   1187.879    -31.565    564.913    797.520    955.280    564.913    564.913
 81.870   1222.000   1176.430     45.570    564.732    805.986    935.199    564.732    564.732
 81.970   1110.501   1150.940    -40.439    564.550    810.239    905.288    564.550    564.550
 82.070   1173.741   1114.383     59.358    564.366    810.301    868.498    564.366    564.366
 82.170   1063.000   1070.259     -7.259    564.180    806.399    828.100    564.180    564.180
 82.270   1038.000   1021.959     16.041    563.993    798.828    787.190    563.993    563.993
 82.370    970.000    972.369     -2.369    563.804    787.948    748.295    563.804    563.804
 82.470    969.000    923.793     45.207    563.614    774.293    713.185    563.614    563.614
 82.570    893.858    877.989     15.868    563.422    758.619    682.862    563.422    563.422
 82.670    828.000    836.136     -8.136    563.228    741.774    657.657    563.228    563.228
 82.770    762.000    798.798    -36.798    563.033    724.511    637.383    563.033    563.033
 82.870    739.000    766.000    -27.000    562.836    707.383    621.511    562.836    562.836
 82.970    689.000    737.446    -48.446    562.638    690.794    609.342    562.638    562.638
 83.070    743.487    712.759     30.728    562.438    675.094    600.149    562.438    562.438
 83.170    646.000    691.637    -45.637    562.237    660.636    593.277    562.237    562.237
 83.270    613.000    673.885    -60.885    562.034    647.768    588.183    562.034    562.034
 83.370    642.000    659.379    -17.379    561.830    636.781    584.451    561.830    561.830
 83.470    684.906    648.023     36.882    561.624    627.883    581.780    561.624    561.624
 83.570    620.000    639.718    -19.718    561.416    621.181    579.960    561.416    561.416
 83.670    635.000    634.332      0.668    561.207    616.689    578.850    561.207    561.207
 83.770    593.000    631.682    -38.682    560.997    614.324    578.346    560.997    560.997
 83.870    616.000    631.504    -15.504    560.784    613.908    578.363    560.784    560.784
 83.970    620.748    633.437    -12.689    560.571    615.169    578.813    560.571    560.571
 84.070    684.647    637.015     47.633    560.356    617.744    579.593    560.356    560.356
 84.170    578.000    641.662    -63.662    560.139    621.183    580.578    560.139    560.139
 84.270    658.238    646.705     11.533    559.921    624.961    581.620    559.921    559.921
 84.370    654.084    651.395      2.689    559.702    628.498    582.548    559.702    559.702
 84.470    655.234    654.963      0.270    559.481    631.203    583.188    559.481    559.481
 84.570    653.098    656.722     -3.624    559.258    632.547    583.380    559.258    559.258
 84.670    623.168    656.210    -33.041    559.034    632.174    583.017    559.034    559.034
 84.770    683.204    653.309     29.895    558.808    629.990    582.078    558.808    558.808
 84.870    613.000    648.266    -35.266    558.582    626.175    580.627    558.582    558.582
 84.970    593.000    641.597    -48.597    558.353    621.113    578.797    558.353    558.353
 85.070    587.000    633.928    -46.928    558.123    615.270    576.746    558.123    558.123
 85.170    594.666    625.878    -31.212    557.892    609.101    574.638    557.892    557.892
 85.270    588.000    617.985    -29.985    557.659    603.001    572.619    557.659    557.659
 85.370    617.388    610.686      6.703    557.425    597.277    570.812    557.425    557.425
 85.470    599.395    604.292     -4.897    557.190    592.143    569.321    557.190    557.190
 85.570    579.000    599.012    -20.012    556.953    587.721    568.228    556.953    556.953
 85.670    617.000    594.957     22.043    556.714    584.061    567.597    556.714    556.714
 85.770    546.000    592.163    -46.163    556.474    581.148    567.475    556.474    556.474
 85.870    594.000    590.608      3.392    556.233    578.929    567.898    556.233    556.233
 85.970    547.000    590.235    -43.235    555.991    577.326    568.885    555.991    555.991
 86.070    610.000    590.965     19.035    555.747    576.260    570.436    555.747    555.747
 86.170    609.000    592.705     16.295    555.501    575.661    572.528    555.501    555.501
 86.270    592.449    595.354     -2.904    555.255    575.481    575.107    555.255    555.255
 86.370    612.000    598.800     13.200    555.007    575.703    578.081    555.007    555.007
 86.470    642.000    602.922     39.078    554.757    576.338    581.314    554.757    554.757
 86.570    644.000    607.585     36.415    554.507    577.436    584.626    554.507    554.507
 86.670    597.000    612.643    -15.643    554.255    579.075    587.788    554.255    554.255
 86.770    617.000    617.938     -0.938    554.001    581.362    590.538    554.001    554.001
 86.870    615.229    623.320     -8.091    553.746    584.426    592.596    553.746    553.746
 86.970    655.000    628.676     26.324    553.490    588.402    593.715    553.490    553.490
 87.070    626.092    633.975     -7.883    553.233    593.419    593.733    553.233    553.233
 87.170    698.000    639.291     58.709    552.975    599.581    592.621    552.975    552.975
 87.270    633.000    644.788    -11.788    552.715    606.939    590.493    552.715    552.715
 87.370    622.000    650.652    -28.652    552.454    615.466    587.559    552.454    552.454
 87.470    623.046    657.009    -33.963    552.191    625.035    584.075    552.191    552.191
 87.570    667.289    663.858      3.431    551.928    635.395    580.289    551.928    551.928
 87.670    741.000    671.032     69.968    551.663    646.161    576.422    551.663    551.663
 87.770    715.000    678.177     36.823    551.397    656.801    572.651    551.397    551.397
 87.870    663.840    684.760    -20.920    551.129    666.647    569.113    551.129    551.129
 87.970    665.000    690.112    -25.112    550.861    674.935    565.902    550.861    550.861
 88.070    772.000    693.526     78.474    550.591    680.907    563.071    550.591    550.591
 88.170    680.410    694.426    -14.016    550.320    683.973    560.636    550.320    550.320
 88.270    741.225    692.548     48.676    550.048    683.882    558.585    550.048    550.048
 88.370    716.000    688.033     27.967    549.775    680.804    556.884    549.775    549.775
 88.470    695.000    681.373     13.627    549.500    675.275    555.492    549.500    549.500
 88.570    654.000    673.270    -19.270    549.225    668.040    554.363    549.225    549.225
 88.670    680.000    664.490     15.510    548.948    659.910    553.451    548.948    548.948
 88.770    651.577    655.774     -4.197    548.670    651.664    552.718    548.670    548.670
 88.870    615.000    647.783    -32.783    548.391    643.996    552.131    548.391    548.391
 88.970    663.000    641.066     21.934    548.111    637.481    551.663    548.111    548.111
 89.070    621.980    636.030    -14.050    547.830    632.547    551.292    547.830    547.830
 89.170    687.956    632.919     55.037    547.548    629.456    551.002    547.548    547.548
 89.270    671.000    631.803     39.197    547.264    628.291    550.778    547.264    547.264
 89.370    652.260    632.578     19.682    546.980    628.964    550.606    546.980    546.980
 89.470    635.000    634.984      0.016    546.695    631.227    550.472    546.695    546.695
 89.570    663.000    638.614     24.386    546.408    634.691    550.361    546.408    546.408
 89.670    601.911    642.943    -41.032    546.121    638.846    550.255    546.121    546.121
 89.770    649.000    647.349      1.651    545.832    643.090    550.136    545.832    545.832
 89.870    625.537    651.160    -25.623    545.543    646.770    549.985    545.543    545.543
 89.970    666.864    653.724     13.140    545.252    649.252    549.781    545.252    545.252
 90.070    636.000    654.502    -18.502    544.961    650.015    549.508    544.961    544.961
 90.170    664.000    653.183     10.817    544.668    648.754    549.160    544.668    544.668
 90.270    654.598    649.747      4.851    544.375    645.448    548.736    544.375    544.375
 90.370    679.000    644.446     34.554    544.081    640.340    548.247    544.081    544.081
 90.470    626.000    637.714    -11.714    543.786    633.849    547.708    543.786    543.786
 90.570    640.000    630.065      9.935    543.489    626.469    547.136    543.489    543.489
 90.670    586.000    621.996    -35.996    543.192    618.684    546.551    543.192    543.192
 90.770    608.000    613.947     -5.947    542.895    610.916    545.965    542.895    542.895
 90.870    606.000    606.273     -0.273    542.596    603.509    545.393    542.596    542.596
 90.970    652.000    599.237     52.763    542.296    596.718    544.842    542.296    542.296
 91.070    618.492    593.014     25.478    541.996    590.712    544.319    541.996    541.996
 91.170    535.650    587.699    -52.049    541.694    585.583    543.827    541.694    541.694
 91.270    606.000    583.317     22.683    541.392    581.356    543.366    541.392    541.392
 91.370    563.000    579.842    -16.842    541.089    578.004    542.937    541.089    541.089
 91.470    636.000    577.213     58.787    540.786    575.468    542.536    540.786    540.786
 91.570    564.042    575.350    -11.309    540.481    573.674    542.161    540.481    540.481
 91.670    597.000    574.178     22.822    540.176    572.545    541.809    540.176    540.176
 91.770    578.000    573.631      4.369    539.870    572.021    541.479    539.870    539.870
 91.870    590.821    573.671     17.150    539.563    572.062    541.169    539.563    539.563
 91.970    554.000    574.289    -20.289    539.256    572.662    540.879    539.256    539.256
 92.070    563.000    575.514    -12.514    538.948    573.846    540.609    538.948    538.948
 92.170    575.000    577.410     -2.410    538.639    575.679    540.362    538.639    538.639
 92.270    601.808    580.078     21.729    538.330    578.256    540.141    538.330    538.330
 92.370    585.046    583.649      1.397    538.020    581.705    539.950    538.020    538.020
 92.470    570.000    588.277    -18.277    537.709    586.176    539.794    537.709    537.709
 92.570    591.000    594.129     -3.129    537.398    591.830    539.676    537.398    537.398
 92.670    593.290    601.372     -8.082    537.086    598.830    539.603    537.086    537.086
 92.770    605.000    610.154     -5.154    536.773    607.322    539.576    536.773    536.773
 92.870    616.000    620.592     -4.592    536.460    617.419    539.597    536.460    536.460
 92.970    686.541    632.750     53.792    536.147    629.189    539.665    536.147    536.147
 93.070    574.000    646.625    -72.625    535.833    642.630    539.778    535.833    535.833
 93.170    661.000    662.135     -1.135    535.518    657.666    539.930    535.518    535.518
 93.270    624.922    679.102    -54.180    535.203    674.129    540.111    535.203    535.203
 93.370    740.000    697.250     42.750    534.887    691.752    540.314    534.887    534.887
 93.470    740.000    716.200     23.800    534.571    710.166    540.525    534.571    534.571
 93.570    737.000    735.481      1.519    534.255    728.913    540.737    534.255    534.255
 93.670    740.000    754.577    -14.577    533.938    747.482    540.942    533.938    533.938
 93.770    729.000    773.007    -44.007    533.620    765.391    541.141    533.620    533.620
 93.870    848.000    790.434     57.566    533.303    782.289    541.350    533.303    533.303
 93.970    838.000    806.764     31.236    532.984    798.052    541.598    532.984    532.984
 94.070    810.405    822.154    -11.749    532.666    812.788    541.932    532.666    532.666
 94.170    819.000    836.968    -17.968    532.347    826.801    542.414    532.347    532.347
 94.270    829.000    851.629    -22.629    532.028    840.446    543.111    532.028    532.028
 94.370    823.000    866.433    -43.433    531.709    853.956    544.085    531.709    531.709
 94.470    834.892    881.525    -46.633    531.389    867.426    545.389    531.389    531.389
 94.570    889.000    896.887     -7.887    531.069    880.802    547.056    531.069    531.069
 94.670    847.966    912.405    -64.439    530.749    893.964    549.092    530.749    530.749
 94.770    876.000    927.937    -51.937    530.428    906.795    551.475    530.428    530.428
 94.870    885.000    943.332    -58.332    530.107    919.203    554.144    530.107    530.107
 94.970    906.000    958.358    -52.358    529.787    931.051    557.003    529.787    529.787
 95.070    936.000    972.585    -36.585    529.466    942.043    559.921    529.466    529.466
 95.170    992.000    985.300      6.700    529.144    951.629    562.733    529.144    529.144
 95.270   1000.247    995.486      4.761    528.823    958.984    565.249    528.823    528.823
 95.370   1011.000   1001.912      9.088    528.502    963.075    567.270    528.502    528.502
 95.470    961.000   1003.320    -42.320    528.180    962.834    568.606    528.180    528.180
 95.570   1023.000    998.696     24.304    527.859    957.396    569.108    527.859    527.859
 95.670    966.000    987.570    -21.570    527.537    946.368    568.699    527.537    527.537
 95.770    973.000    970.179      2.821    527.215    929.973    567.391    527.215    527.215
 95.870    981.000    947.469     33.531    526.894    909.062    565.279    526.894    526.894
 95.970    869.696    920.933    -51.238    526.572    884.969    562.522    526.572    526.572
 96.070    890.000    892.364     -2.364    526.251    859.292    559.313    526.251    526.251
 96.170    860.000    863.646     -3.646    525.929    833.718    555.851    525.929    525.929
 96.270    916.000    836.608     79.392    525.608    809.890    552.320    525.608    525.608
 96.370    763.550    812.949    -49.399    525.286    789.347    548.882    525.286    525.286
 96.470    751.566    794.192    -42.626    524.965    773.481    545.667    524.965    524.965
 96.570    750.000    781.663    -31.663    524.644    763.523    542.770    524.644    524.644
 96.670    812.000    776.481     35.519    524.323    760.528    540.256    524.323    524.323
 96.770    788.805    779.552      9.253    524.003    765.370    538.156    524.003    524.003
 96.870    839.000    791.563     47.437    523.682    778.730    536.477    523.682    523.682
 96.970    837.000    812.973     24.027    523.362    801.080    535.206    523.362    523.362
 97.070    880.000    843.998     36.002    523.042    832.664    534.315    523.042    523.042
 97.170    895.000    884.579     10.421    522.722    873.458    533.769    522.722    522.722
 97.270    981.720    934.342     47.378    522.403    923.130    533.527    522.403    522.403
 97.370    944.459    992.543    -48.084    522.084    980.980    533.547    522.084    522.084
 97.470   1084.137   1057.972     26.165    521.765   1045.843    533.781    521.765    521.765
 97.570   1167.000   1129.129     37.871    521.447   1116.269    534.183    521.447    521.447
 97.670   1184.000   1203.820    -19.820    521.129   1190.117    534.699    521.129    521.129
 97.770   1296.235   1279.391     16.844    520.811   1264.792    535.271    520.811    520.811
 97.870   1389.000   1352.664     36.336    520.494   1337.180    535.836    520.494    520.494
 97.970   1506.000   1420.024     85.976    520.178   1403.736    536.326    520.178    520.178
 98.070   1472.000   1477.621     -5.621    519.862   1460.676    536.673    519.862    519.862
 98.170   1490.641   1521.719    -31.078    519.546   1504.334    536.809    519.546    519.546
 98.270   1560.000   1549.217     10.783    519.231   1531.661    536.681    519.231    519.231
 98.370   1512.867   1558.209    -45.342    518.916   1540.782    536.257    518.916    518.916
 98.470   1501.000   1548.370    -47.370    518.603   1531.374    535.532    518.603    518.603
 98.570   1507.355   1521.005    -13.650    518.289   1504.718    534.530    518.289    518.289
 98.670   1435.403   1478.742    -43.339    517.977   1463.395    533.296    517.977    517.977
 98.770   1427.254   1425.039      2.215    517.665   1410.802    531.890    517.665    517.665
 98.870   1404.000   1363.688     40.312    517.354   1350.669    530.373    517.354    517.354
 98.970   1371.000   1298.450     72.550    517.043   1286.697    528.805    517.043    517.043
 99.070   1254.000   1232.820     21.180    516.733   1222.328    527.240    516.733    516.733
 99.170   1132.000   1169.908    -37.908    516.424   1160.626    525.723    516.424    516.424
 99.270   1074.000   1112.380    -38.380    516.116   1104.221    524.292    516.116    516.116
 99.370   1051.000   1062.460    -11.460    515.809   1055.309    522.973    515.809    515.809
 99.470    997.000   1021.957    -24.957    515.502   1015.681    521.786    515.502    515.502
 99.570   1022.582    992.295     30.287    515.197    986.751    520.742    515.197    515.197
 99.670    958.000    974.555    -16.555    514.892    969.596    519.845    514.892    514.892
 99.770    975.000    969.491      5.509    514.588    964.973    519.094    514.588    514.588
 99.870    954.000    977.553    -23.553    514.286    973.336    518.482    514.286    514.286
 99.970    969.000    998.888    -29.888    513.984    994.846    517.999    513.984    513.984
100.070   1037.000   1033.353      3.647    513.683   1029.372    517.630    513.683    513.683
100.170   1023.000   1080.507    -57.507    513.383   1076.490    517.362    513.383    513.383
100.270   1123.887   1139.600    -15.713    513.084   1135.465    517.178    513.084    513.084
100.370   1241.000   1209.550     31.450    512.787   1205.234    517.061    512.787    512.787
100.470   1229.343   1288.907    -59.564    512.490   1284.365    516.992    512.490    512.490
100.570   1322.000   1375.826    -53.826    512.195   1371.031    516.953    512.195    512.195
100.670   1462.910   1468.033     -5.122    511.901   1462.978    516.926    511.901    511.901
100.770   1563.000   1562.841      0.159    511.608   1557.537    516.893    511.608    511.608
100.870   1695.198   1657.209     37.989    511.317   1651.685    516.835    511.317    511.317
100.970   1754.000   1748.000      6.000    511.026   1742.298    516.739    511.026    511.026
101.070   1894.000   1832.107     61.893    510.737   1826.281    516.592    510.737    510.737
101.170   1956.000   1906.833     49.167    510.449   1900.942    516.388    510.449    510.449
101.270   1901.181   1970.073    -68.893    510.163   1964.176    516.129    510.163    510.163
101.370   2028.000   2020.337      7.663    509.878   2014.480    515.822    509.878    509.878
101.470   2119.000   2056.583     62.417    509.595   2050.803    515.480    509.595    509.595
101.570   2147.371   2078.006     69.365    509.313   2072.322    515.117    509.313    509.313
101.670   2119.000   2083.918     35.082    509.032   2078.332    514.752    509.032    509.032
101.770   2066.000   2073.835     -7.835    508.753   2068.335    514.398    508.753    508.753
101.870   2069.000   2047.773     21.227    508.475   2042.334    514.069    508.475    508.475
101.970   1932.169   2006.597    -74.428    508.199   2001.182    513.775    508.199    508.199
102.070   1973.000   1952.234     20.766    507.925   1946.799    513.522    507.925    507.925
102.170   1846.912   1887.598    -40.686    507.652   1882.098    513.313    507.652    507.652
102.270   1812.925   1816.250     -3.326    507.381   1810.641    513.147    507.381    507.381
102.370   1693.000   1741.914    -48.914    507.112   1736.157    513.019    507.112    507.112
102.470   1616.000   1668.027    -52.027    506.844   1662.094    512.918    506.844    506.844
102.570   1518.000   1597.442    -79.442    506.578   1591.318    512.834    506.578    506.578
102.670   1519.000   1532.266    -13.266    506.314   1525.949    512.752    506.314    506.314
102.770   1474.065   1473.815      0.250    506.052   1467.320    512.658    506.052    506.052
102.870   1249.000   1422.641   -173.641    505.792   1415.993    512.541    505.792    505.792
102.970   1333.000   1378.581    -45.581    505.533   1371.817    512.390    505.533    505.533
103.070   1229.000   1340.836   -111.836    505.277   1334.002    512.197    505.277    505.277
103.170   1262.000   1308.075    -46.075    505.022   1301.223    511.956    505.022    505.022
103.270   1283.000   1278.588      4.412    504.770   1271.774    511.661    504.770    504.770
103.370   1228.000   1250.482    -22.482    504.519   1243.770    511.308    504.519    504.519
103.470   1147.000   1221.947    -74.947    504.271   1215.400    510.893    504.271    504.271
103.570   1175.344   1191.504    -16.160    504.024   1185.187    510.417    504.024    504.024
103.670   1092.051   1158.216    -66.165    503.780   1152.188    509.884    503.780    503.780
103.770   1093.000   1121.761    -28.761    503.538   1116.074    509.301    503.538    503.538
103.870   1021.666   1082.376    -60.710    503.298   1077.068    508.681    503.298    503.298
103.970   1020.604   1040.699    -20.096    503.061   1035.798    508.035    503.061    503.061
104.070    939.000    997.606    -58.606    502.825    993.123    507.378    502.825    502.825
104.170    970.000    954.048     15.952    502.592    949.985    506.721    502.592    502.592
104.270    853.000    910.944    -57.944    502.361    907.291    506.076    502.361    502.361
104.370    883.000    869.132     13.868    502.133    865.871    505.451    502.133    502.133
104.470    895.000    829.330     65.670    501.907    826.435    504.853    501.907    501.907
104.570    767.000    792.119    -25.119    501.683    789.561    504.287    501.683    501.683
104.670    797.000    757.932     39.068    501.462    755.679    503.756    501.462    501.462
104.770    761.000    727.053     33.947    501.244    725.071    503.261    501.244    501.244
104.870    697.000    699.624     -2.624    501.028    697.878    502.803    501.028    501.028
104.970    710.000    675.654     34.346    500.815    674.112    502.381    500.815    500.815
105.070    676.000    655.025     20.975    500.604    653.659    501.990    500.604    500.604
105.170    630.780    637.584     -6.804    500.396    636.364    501.632    500.396    500.396
105.270    667.000    623.085     43.915    500.190    621.983    501.305    500.190    500.190
105.370    654.000    611.237     42.763    499.988    610.229    501.005    499.988    499.988
105.470    638.000    601.747     36.253    499.788    600.813    500.728    499.788    499.788
105.570    607.000    594.328     12.672    499.591    593.450    500.473    499.591    499.591
105.670    590.000    588.720      1.280    499.396    587.881    500.237    499.396    499.396
105.770    621.087    584.692     36.395    499.205    583.879    500.017    499.205    499.205
105.870    649.000    582.057     66.943    499.017    581.258    499.813    499.017    499.017
105.970    557.000    580.668    -23.668    498.831    579.871    499.624    498.831    498.831
106.070    619.000    580.420     38.580    498.649    579.614    499.448    498.649    498.649
106.170    555.644    581.246    -25.602    498.469    580.420    499.286    498.469    498.469
106.270    579.448    583.111     -3.662    498.293    582.254    499.138    498.293    498.293
106.370    637.000    586.005     50.995    498.120    585.107    499.004    498.120    498.120
106.470    628.000    589.939     38.061    497.950    588.988    498.884    497.950    497.950
106.570    609.000    594.935     14.065    497.783    593.918    498.779    497.783    497.783
106.670    594.231    601.015     -6.783    497.619    599.921    498.689    497.619    497.619
106.770    639.000    608.197     30.803    497.459    607.015    498.615    497.459    497.459
106.870    626.003    616.485      9.517    497.302    615.200    498.557    497.302    497.302
106.970    647.000    625.855     21.145    497.148    624.456    498.513    497.148    497.148
107.070    644.000    636.247      7.753    496.998    634.723    498.484    496.998    496.998
107.170    685.000    647.560     37.440    496.851    645.901    498.469    496.851    496.851
107.270    614.359    659.643    -45.284    496.708    657.841    498.464    496.708    496.708
107.370    668.000    672.293     -4.293    496.568    670.344    498.468    496.568    496.568
107.470    693.000    685.258      7.742    496.431    683.160    498.477    496.431    496.431
107.570    703.000    698.234      4.766    496.299    695.989    498.488    496.299    496.299
107.670    761.537    710.875     50.662    496.170    708.492    498.495    496.170    496.170
107.770    718.345    722.804     -4.459    496.044    720.295    498.494    496.044    496.044
107.870    735.113    733.631      1.481    495.923    731.015    498.479    495.923    495.923
107.970    740.000    742.989     -2.989    495.805    740.289    498.446    495.805    495.805
108.070    731.000    750.572    -19.572    495.691    747.815    498.390    495.691    495.691
108.170    780.492    756.183     24.308    495.580    753.401    498.307    495.580    495.580
108.270    746.654    759.776    -13.122    495.474    756.999    498.198    495.474    495.474
108.370    714.000    761.467    -47.467    495.372    758.728    498.062    495.372    495.372
108.470    770.000    761.527      8.473    495.273    758.853    497.902    495.273    495.273
108.570    751.052    760.338     -9.286    495.179    757.754    497.723    495.179    495.179
108.670    767.000    758.339      8.661    495.089    755.864    497.528    495.089    495.089
108.770    746.000    755.976     -9.976    495.002    753.623    497.325    495.002    495.002
108.870    783.900    753.654     30.246    494.920    751.430    497.117    494.920    494.920
108.970    711.892    751.706    -39.814    494.843    749.615    496.910    494.843    494.843
109.070    700.812    750.376    -49.565    494.769    748.419    496.708    494.769    494.769
109.170    757.867    749.810      8.057    494.700    747.980    496.515    494.700    494.700
109.270    767.816    750.042     17.774    494.635    748.334    496.332    494.635    494.635
109.370    720.580    751.003    -30.423    494.574    749.407    496.163    494.574    494.574
109.470    767.000    752.516     14.484    494.518    751.022    496.007    494.518    494.518
109.570    714.000    754.309    -40.309    494.466    752.908    495.866    494.466    494.466
109.670    685.000    756.029    -71.029    494.419    754.712    495.738    494.419    494.419
109.770    747.718    757.268     -9.550    494.376    756.025    495.624    494.376    494.376
109.870    766.000    757.598      8.402    494.338    756.422    495.522    494.338    494.338
109.970    753.000    756.622     -3.622    494.305    755.506    495.431    494.305    494.305
110.070    725.421    754.024    -28.603    494.276    752.964    495.348    494.276    494.276
110.170    741.000    749.615     -8.615    494.252    748.607    495.274    494.252    494.252
110.270    800.979    743.355     57.624    494.233    742.397    495.207    494.233    494.233
110.370    705.841    735.349    -29.508    494.219    734.440    495.145    494.219    494.219
110.470    721.000    725.821     -4.821    494.209    724.964    495.083    494.209    494.209
110.570    683.000    715.097    -32.097    494.205    714.284    495.035    494.205    494.205
110.670    696.448    703.515     -7.067    494.205    702.744    494.993    494.205    494.205
110.770    688.329    691.428     -3.099    494.211    690.696    494.959    494.211    494.211
110.870    682.000    679.170      2.830    494.222    678.475    494.932    494.222    494.222
110.970    657.000    667.045    -10.045    494.237    666.384    494.912    494.237    494.237
111.070    679.000    655.315     23.685    494.258    654.685    494.900    494.258    494.258
111.170    665.000    644.203     20.797    494.284    643.602    494.896    494.284    494.284
111.270    676.000    633.884     42.116    494.316    633.308    494.900    494.316    494.316
111.370    615.000    624.489     -9.489    494.352    623.935    494.913    494.352    494.352
111.470    595.170    616.103    -20.933    494.395    615.568    494.934    494.395    494.395
111.570    599.000    608.792     -9.792    494.442    608.273    494.964    494.442    494.442
111.670    621.000    602.562     18.438    494.495    602.056    495.003    494.495    494.495
111.770    632.725    597.395     35.330    494.553    596.898    495.050    494.553    494.553
111.870    590.542    593.248     -2.706    494.617    592.757    495.106    494.617    494.617
111.970    580.340    590.058     -9.718    494.687    589.571    495.170    494.687    494.687
112.070    611.000    587.750     23.250    494.762    587.265    495.242    494.762    494.762
112.170    558.189    586.239    -28.051    494.844    585.754    495.322    494.844    494.844
112.270    631.000    585.438     45.562    494.930    584.952    495.409    494.930    494.930
112.370    543.000    585.261    -42.261    495.023    584.771    495.503    495.023    495.023
112.470    620.000    585.624     34.376    495.122    585.131    495.605    495.122    495.122
112.570    582.255    586.452     -4.197    495.226    585.954    495.713    495.226    495.226
112.670    576.000    587.679    -11.679    495.336    587.177    495.827    495.336    495.336
112.770    633.000    589.250     43.750    495.453    588.743    495.948    495.453    495.453
112.870    575.000    591.122    -16.122    495.575    590.609    496.076    495.575    495.575
112.970    612.000    593.265     18.735    495.704    592.746    496.209    495.704    495.704
113.070    602.012    595.664      6.348    495.839    595.140    496.349    495.839    495.839
113.170    617.425    598.318     19.107    495.980    597.788    496.495    495.980    495.980
113.270    605.765    601.242      4.523    496.127    600.706    496.648    496.127    496.127
113.370    557.000    604.467    -47.467    496.281    603.924    496.809    496.281    496.281
113.470    594.000    608.038    -14.038    496.441    607.487    496.977    496.441    496.441
113.570    547.000    612.017    -65.017    496.608    611.456    497.153    496.608    496.608
113.670    610.977    616.489     -5.512    496.781    615.916    497.338    496.781    496.781
113.770    675.000    621.563     53.437    496.960    620.974    497.532    496.960    496.960
113.870    636.101    627.381      8.720    497.147    626.773    497.736    497.147    497.147
113.970    646.000    634.124     11.876    497.339    633.492    497.952    497.339    497.339
114.070    638.000    642.026     -4.026    497.539    641.364    498.179    497.539    497.539
114.170    650.000    651.382     -1.382    497.745    650.684    498.420    497.745    497.745
114.270    708.621    662.567     46.054    497.959    661.825    498.674    497.959    497.959
114.370    626.219    676.050    -49.831    498.179    675.254    498.944    498.179    498.179
114.470    649.000    692.411    -43.411    498.406    691.551    499.230    498.406    498.406
114.570    710.000    712.365     -2.365    498.640    711.428    499.534    498.640    498.640
114.670    765.000    736.776     28.224    498.881    735.749    499.857    498.881    498.881
114.770    710.952    766.676    -55.724    499.129    765.544    500.201    499.129    499.129
114.870    775.499    803.282    -27.783    499.385    802.027    500.566    499.385    499.385
114.970    897.564    848.003     49.561    499.647    846.608    500.954    499.647    499.647
115.070    939.482    902.443     37.038    499.917    900.888    501.366    499.917    499.917
115.170   1007.761    968.397     39.364    500.194    966.661    501.804    500.194    500.194
115.270    990.986   1047.825    -56.839    500.479   1045.885    502.267    500.479    500.479
115.370   1069.000   1142.822    -73.822    500.771   1140.656    502.757    500.771    500.771
115.470   1292.130   1255.566     36.565    501.071   1253.149    503.273    501.071    501.071
115.570   1398.172   1388.245      9.927    501.378   1385.555    503.816    501.378    501.378
115.670   1529.092   1542.975    -13.883    501.693   1539.988    504.386    501.693    501.693
115.770   1711.000   1721.692    -10.692    502.015   1718.387    504.980    502.015    502.015
115.870   1929.000   1926.030      2.970    502.346   1922.388    505.599    502.346    502.346
115.970   2171.863   2157.198     14.665    502.684   2153.200    506.240    502.684    502.684
116.070   2487.000   2415.836     71.164    503.030   2411.469    506.901    503.030    503.030
116.170   2794.374   2701.888     92.486    503.383   2697.141    507.579    503.383    503.383
116.270   3064.000   3014.472     49.528    503.745   3009.341    508.271    503.745    503.745
116.370   3396.000   3351.778     44.222    504.115   3346.263    508.972    504.115    504.115
116.470   3663.000   3710.979    -47.979    504.493   3705.086    509.679    504.493    504.493
116.570   4110.000   4088.180     21.820    504.879   4081.922    510.388    504.879    504.879
116.670   4437.497   4478.398    -40.901    505.274   4471.790    511.095    505.274    505.274
116.770   4956.000   4875.569     80.431    505.676   4868.635    511.798    505.676    505.676
116.870   5121.000   5272.576   -151.576    506.087   5265.342    512.494    506.087    506.087
116.970   5504.000   5661.497   -157.497    506.507   5653.992    513.183    506.507    506.507
117.070   6079.121   6033.530     45.591    506.935   6025.786    513.861    506.935    506.935
117.170   6500.000   6379.308    120.692    507.371   6371.361    514.529    507.371    507.371
117.270   6703.000   6689.211     13.789    507.816   6681.098    515.185    507.816    507.816
117.370   6999.000   6953.758     45.242    508.270   6945.519    515.825    508.270    508.270
117.470   7222.341   7164.149     58.192    508.732   7155.825    516.449    508.732    508.732
117.570   7239.000   7312.893    -73.893    509.203   7304.524    517.055    509.203    509.203
117.670   7362.442   7394.466    -32.024    509.683   7386.092    517.639    509.683    509.683
117.770   7431.858   7405.868     25.989    510.172   7397.527    518.200    510.172    510.172
117.870   7478.545   7346.956    131.589    510.670   7338.681    518.738    510.670    510.670
117.970   7211.000   7220.451     -9.451    511.177   7212.274    519.250    511.177    511.177
118.070   7106.000   7031.631     74.369    511.693   7023.580    519.736    511.693    511.693
118.170   6897.742   6787.785    109.957    512.218   6779.883    520.197    512.218    512.218
118.270   6470.657   6497.554    -26.897    512.752   6489.824    520.633    512.752    512.752
118.370   6213.000   6170.289     42.711    513.296   6162.752    521.044    513.296    513.296
118.470   5944.905   5815.508    129.397    513.849   5808.185    521.431    513.849    513.849
118.570   5449.607   5442.471      7.136    514.412   5435.380    521.795    514.412    514.412
118.670   5098.000   5059.872     38.128    514.984   5053.031    522.138    514.984    514.984
118.770   4731.000   4675.622     55.378    515.565   4669.045    522.464    515.565    515.565
118.870   4246.960   4296.701    -49.742    516.156   4290.402    522.777    516.156    516.156
118.970   3984.076   3929.065     55.010    516.757   3923.053    523.081    516.757    516.757
119.070   3694.000   3577.597    116.403    517.368   3571.877    523.382    517.368    517.368
119.170   3339.000   3246.096     92.904    517.988   3240.671    523.685    517.988    517.988
119.270   3092.000   2937.317    154.683    518.618   2932.183    523.997    518.618    518.618
119.370   2574.462   2653.030    -78.568    519.258   2648.182    524.322    519.258    519.258
119.470   2401.000   2394.123      6.877    519.909   2389.552    524.666    519.909    519.909
119.570   2234.000   2160.719     73.281    520.569   2156.410    525.033    520.569    520.569
119.670   1960.864   1952.299      8.565    521.239   1948.237    525.429    521.239    521.239
119.770   1740.671   1767.835    -27.165    521.920   1764.000    525.855    521.920    521.920
119.870   1667.962   1605.915     62.046    522.611   1602.286    526.317    522.611    522.611
119.970   1384.032   1464.856    -80.824    523.312   1461.408    526.815    523.312    523.312
120.070   1317.397   1342.807    -25.410    524.024   1339.515    527.353    524.024    524.024
120.170   1354.000   1237.845    116.155    524.746   1234.680    527.932    524.746    524.746
120.270   1137.897   1148.046    -10.150    525.479   1144.980    528.554    525.479    525.479
120.370   1124.399   1071.551     52.848    526.222   1068.552    529.220    526.222    526.222
120.470   1016.000   1006.609      9.391    526.976   1003.647    529.931    526.976    526.976
120.570    955.543    951.616      3.927    527.741    948.657    530.687    527.741    527.741
120.670    930.000    905.127     24.873    528.517    902.138    531.490    528.517    528.517
120.770    900.000    865.869     34.131    529.304    862.816    532.339    529.304    529.304
120.870    784.000    832.738    -48.738    530.101    829.586    533.235    530.101    530.101
120.970    797.000    804.792     -7.792    530.910    801.504    534.180    530.910    530.910
121.070    801.000    781.235     19.765    531.730    777.775    535.173    531.730    531.730
121.170    763.000    761.404      1.596    532.561    757.733    536.216    532.561    532.561
121.270    715.556    744.750    -29.194    533.403    740.830    537.309    533.403    533.403
121.370    743.611    730.823     12.788    534.256    726.613    538.455    534.256    534.256
121.470    762.873    719.256     43.617    535.121    714.714    539.653    535.121    535.121
121.570    712.553    709.748      2.805    535.998    704.832    540.906    535.998    535.998
121.670    663.000    702.055    -39.055    536.886    696.719    542.215    536.886    536.886
121.770    724.000    695.976     28.024    537.785    690.175    543.582    537.785    537.785
121.870    691.000    691.345     -0.345    538.697    685.031    545.008    538.697    538.697
121.970    707.000    688.024     18.976    539.620    681.148    546.494    539.620    539.620
122.070    736.589    685.895     50.694    540.555    678.407    548.043    540.555    540.555
122.170    667.299    684.854    -17.555    541.502    676.702    549.656    541.502    541.502
122.270    583.000    684.811   -101.811    542.461    675.942    551.333    542.461    542.461
122.370    655.000    685.680    -30.680    543.432    676.041    553.076    543.432    543.432
122.470    664.000    687.380    -23.380    544.415    676.917    554.884    544.415    544.415
122.570    660.000    689.832    -29.832    545.410    678.494    556.756    545.410    545.410
122.670    653.000    692.953    -39.953    546.417    680.691    558.690    546.417    546.417
122.770    725.307    696.661     28.647    547.437    683.428    560.682    547.437    547.437
122.870    722.352    700.865     21.487    548.470    686.624    562.725    548.470    548.470
122.970    676.464    705.472    -29.008    549.515    690.191    564.813    549.515    549.515
123.070    661.655    710.380    -48.724    550.572    694.037    566.934    550.572    550.572
123.170    734.000    715.481     18.519    551.642    698.066    569.079    551.642    551.642
123.270    693.000    720.660    -27.660    552.725    702.177    571.232    552.725    552.725
123.370    712.000    725.796    -13.796    553.821    706.265    573.380    553.821    553.821
123.470    709.096    730.764    -21.668    554.930    710.220    575.504    554.930    554.930
123.570    728.000    735.434     -7.434    556.051    713.932    577.586    556.051    556.051
123.670    739.000    739.679     -0.679    557.186    717.291    579.609    557.186    557.186
123.770    764.000    743.375     20.625    558.334    720.193    581.553    558.334    558.334
123.870    793.674    746.410     47.264    559.495    722.543    583.401    559.495    559.495
123.970    738.961    748.688     -9.727    560.669    724.261    585.137    560.669    560.669
124.070    761.000    750.134     10.866    561.857    725.286    586.748    561.857    561.857
124.170    750.647    750.702     -0.055    563.058    725.579    588.225    563.058    563.058
124.270    726.000    750.366    -24.366    564.272    725.122    589.563    564.272    564.272
124.370    800.191    749.110     51.082    565.501    723.898    590.758    565.501    565.501
124.470    699.542    747.041    -47.499    566.742    722.014    591.816    566.742    566.742
124.570    757.000    744.186     12.814    567.998    719.488    592.742    567.998    567.998
124.670    771.000    740.614     30.386    569.268    716.383    593.543    569.268    569.268
124.770    757.814    736.411     21.403    570.551    712.776    594.230    570.551    570.551
124.870    764.000    731.671     32.329    571.848    708.748    594.814    571.848    571.848
124.970    705.883    726.490    -20.608    573.160    704.383    595.309    573.160    573.160
