neutron_powder_diffraction_0244
R_wp: 4.073
Temperature (K): 978.459
Counts: 83780.00
Wavelength (Ã…): 2.52098
COMMENTS
Test file for demonstrating the .xyy file format in Reel1.0
END OF HEADER
   tth       Y_obs     Y_calc      Y_res    Background    Phase_1_Nuc    Phase_1_Mag    Phase_2_Nuc    Phase_2_Mag
  9.970    616.000    566.036     49.964    565.471    566.013    565.471    565.494    565.471
 10.070    595.000    566.203     28.797    565.583    566.180    565.583    565.606    565.583
 10.170    618.000    566.363     51.637    565.689    566.339    565.689    565.712    565.689
 10.270    580.000    566.523     13.477    565.789    566.500    565.789    565.812    565.789
 10.370    617.270    566.688     50.582    565.883    566.665    565.883    565.906    565.883
 10.470    579.000    566.859     12.141    565.970    566.835    565.970    565.994    565.970
 10.570    593.000    567.039     25.961    566.052    567.015    566.052    566.076    566.052
 10.670    565.000    567.233     -2.233    566.128    567.207    566.128    566.154    566.128
 10.770    589.000    567.447     21.553    566.198    567.418    566.198    566.226    566.198
 10.870    570.000    567.683      2.317    566.263    567.654    566.263    566.291    566.263
 10.970    537.144    567.954    -30.810    566.321    567.925    566.321    566.350    566.321
 11.070    529.517    568.274    -38.757    566.374    568.245    566.374    566.403    566.374
 11.170    603.997    568.664     35.333    566.422    568.634    566.422    566.451    566.422
 11.270    554.000    569.153    -15.153    566.464    569.123    566.464    566.493    566.464
 11.370    597.000    569.795     27.205    566.500    569.764    566.500    566.529    566.500
 11.470    572.000    570.691      1.309    566.531    570.660    566.531    566.560    566.531
 11.570    593.000    572.132     20.868    566.557    572.100    566.557    566.586    566.557
 11.670    550.447    575.013    -24.566    566.577    574.979    566.577    566.607    566.577
 11.770    668.000    581.732     86.268    566.592    581.694    566.592    566.622    566.592
 11.870    635.000    596.876     38.124    566.602    596.829    566.602    566.632    566.602
 11.970    608.599    625.304    -16.705    566.607    625.241    566.607    566.637    566.607
 12.070    674.000    665.456      8.544    566.606    665.368    566.606    566.638    566.606
 12.170    664.933    701.587    -36.654    566.601    701.479    566.601    566.633    566.601
 12.270    674.116    709.089    -34.974    566.590    708.977    566.590    566.623    566.590
 12.370    667.000    681.026    -14.026    566.574    680.929    566.574    566.607    566.574
 12.470    604.035    639.178    -35.142    566.554    639.104    566.554    566.587    566.554
 12.570    634.725    605.314     29.411    566.529    605.259    566.529    566.562    566.529
 12.670    612.493    585.666     26.827    566.498    585.622    566.498    566.532    566.498
 12.770    573.000    576.577     -3.577    566.464    576.538    566.464    566.497    566.464
 12.870    585.000    572.752     12.248    566.424    572.715    566.424    566.458    566.424
 12.970    526.000    570.966    -44.966    566.380    570.929    566.380    566.414    566.380
 13.070    588.000    569.918     18.082    566.331    569.881    566.331    566.365    566.331
 13.170    550.000    569.192    -19.192    566.277    569.151    566.277    566.316    566.277
 13.270    559.000    568.649     -9.649    566.219    568.600    566.219    566.267    566.219
 13.370    599.971    568.214     31.758    566.157    568.164    566.157    566.205    566.157
 13.470    525.036    567.858    -42.822    566.090    567.808    566.090    566.139    566.090
 13.570    544.000    567.560    -23.560    566.018    567.509    566.018    566.068    566.018
 13.670    603.000    567.302     35.698    565.943    567.251    565.943    565.993    565.943
 13.770    515.000    567.073    -52.073    565.863    567.022    565.863    565.913    565.863
 13.870    516.022    566.867    -50.846    565.779    566.815    565.779    565.830    565.779
 13.970    556.000    566.679    -10.679    565.690    566.625    565.690    565.744    565.690
 14.070    549.302    566.505    -17.204    565.598    566.447    565.598    565.656    565.598
 14.170    520.000    566.337    -46.337    565.501    566.277    565.501    565.560    565.501
 14.270    542.000    566.174    -24.174    565.400    566.115    565.400    565.459    565.400
 14.370    547.000    566.016    -19.016    565.296    565.956    565.296    565.355    565.296
 14.470    556.000    565.861     -9.861    565.187    565.801    565.187    565.247    565.187
 14.570    572.868    565.709      7.159    565.074    565.648    565.074    565.135    565.074
 14.670    562.004    565.558     -3.553    564.958    565.497    564.958    565.019    564.958
 14.770    566.000    565.409      0.591    564.838    565.348    564.838    564.899    564.838
 14.870    592.000    565.263     26.737    564.714    565.201    564.714    564.775    564.714
 14.970    487.000    565.111    -78.111    564.586    565.050    564.586    564.648    564.586
 15.070    518.000    564.959    -46.959    564.455    564.897    564.455    564.516    564.455
 15.170    603.824    564.805     39.019    564.319    564.743    564.319    564.382    564.319
 15.270    568.000    564.650      3.350    564.181    564.587    564.181    564.243    564.181
 15.370    531.988    564.492    -32.505    564.038    564.429    564.038    564.101    564.038
 15.470    561.000    564.333     -3.333    563.893    564.270    563.893    563.956    563.893
 15.570    529.000    564.172    -35.172    563.743    564.108    563.743    563.807    563.743
 15.670    533.000    564.009    -31.009    563.591    563.945    563.591    563.655    563.591
 15.770    562.932    563.843     -0.911    563.435    563.779    563.435    563.499    563.435
 15.870    554.000    563.676     -9.676    563.275    563.611    563.275    563.340    563.275
 15.970    568.000    563.505      4.495    563.112    563.440    563.112    563.178    563.112
 16.070    576.000    563.333     12.667    562.946    563.267    562.946    563.012    562.946
 16.170    580.000    563.158     16.842    562.777    563.091    562.777    562.844    562.777
 16.270    527.000    562.980    -35.980    562.605    562.913    562.605    562.672    562.605
 16.370    598.000    562.800     35.200    562.429    562.733    562.429    562.496    562.429
 16.470    525.000    562.617    -37.617    562.251    562.550    562.251    562.319    562.251
 16.570    549.421    562.435    -13.014    562.069    562.364    562.069    562.140    562.069
 16.670    551.000    562.248    -11.248    561.884    562.176    561.884    561.957    561.884
 16.770    574.000    562.058     11.942    561.697    561.985    561.697    561.770    561.697
 16.870    549.000    561.866    -12.866    561.506    561.792    561.506    561.580    561.506
 16.970    549.000    561.671    -12.671    561.313    561.597    561.313    561.388    561.313
 17.070    538.000    561.474    -23.474    561.116    561.398    561.116    561.192    561.116
 17.170    541.000    561.274    -20.274    560.917    561.198    560.917    560.994    560.917
 17.270    509.000    561.072    -52.072    560.715    560.995    560.715    560.792    560.715
 17.370    569.000    560.867      8.133    560.511    560.790    560.511    560.588    560.511
 17.470    542.000    560.661    -18.661    560.304    560.583    560.304    560.382    560.304
 17.570    535.000    560.453    -25.453    560.094    560.374    560.094    560.172    560.094
 17.670    527.000    560.241    -33.241    559.881    560.162    559.881    559.960    559.881
 17.770    555.000    560.027     -5.027    559.666    559.948    559.666    559.745    559.666
 17.870    541.000    559.811    -18.811    559.448    559.731    559.448    559.528    559.448
 17.970    586.000    559.592     26.408    559.228    559.511    559.228    559.309    559.228
 18.070    556.000    559.371     -3.371    559.005    559.290    559.005    559.087    559.005
 18.170    577.950    559.148     18.802    558.780    559.066    558.780    558.862    558.780
 18.270    552.000    558.923     -6.923    558.553    558.841    558.553    558.635    558.553
 18.370    510.448    558.696    -48.248    558.323    558.613    558.323    558.406    558.323
 18.470    605.789    558.467     47.322    558.091    558.383    558.091    558.175    558.091
 18.570    519.241    558.235    -38.994    557.856    558.151    557.856    557.941    557.856
 18.670    598.716    558.002     40.714    557.620    557.917    557.620    557.705    557.620
 18.770    583.000    557.768     25.232    557.381    557.681    557.381    557.468    557.381
 18.870    603.000    557.531     45.469    557.140    557.443    557.140    557.228    557.140
 18.970    564.411    557.293      7.118    556.897    557.203    556.897    556.986    556.897
 19.070    583.000    557.052     25.948    556.651    556.962    556.651    556.741    556.651
 19.170    587.000    556.810     30.190    556.404    556.719    556.404    556.495    556.404
 19.270    526.183    556.566    -30.383    556.155    556.474    556.155    556.246    556.155
 19.370    565.730    556.320      9.410    555.904    556.228    555.904    555.996    555.904
 19.470    514.782    556.072    -41.290    555.650    555.979    555.650    555.743    555.650
 19.570    530.000    555.824    -25.824    555.395    555.731    555.395    555.489    555.395
 19.670    535.453    555.574    -20.121    555.138    555.479    555.138    555.232    555.138
 19.770    546.367    555.321     -8.954    554.879    555.226    554.879    554.974    554.879
 19.870    550.000    555.068     -5.068    554.618    554.972    554.618    554.714    554.618
 19.970    556.633    554.814      1.819    554.356    554.718    554.356    554.453    554.356
 20.070    562.000    554.578      7.422    554.092    554.480    554.092    554.189    554.092
 20.170    555.000    554.323      0.677    553.826    554.224    553.826    553.924    553.826
 20.270    542.000    554.064    -12.064    553.558    553.965    553.558    553.658    553.558
 20.370    588.199    553.804     34.394    553.289    553.704    553.289    553.389    553.289
 20.470    574.000    553.543     20.457    553.018    553.441    553.018    553.120    553.018
 20.570    598.732    553.287     45.446    552.745    553.178    552.745    552.854    552.745
 20.670    570.000    553.025     16.975    552.471    552.914    552.471    552.582    552.471
 20.770    596.915    552.761     44.154    552.196    552.649    552.196    552.308    552.196
 20.870    534.000    552.496    -18.496    551.919    552.383    551.919    552.032    551.919
 20.970    579.589    552.230     27.359    551.640    552.116    551.640    551.754    551.640
 21.070    523.678    551.964    -28.286    551.360    551.849    551.360    551.476    551.360
 21.170    522.000    551.697    -29.697    551.079    551.581    551.079    551.196    551.079
 21.270    554.000    551.430      2.570    550.796    551.312    550.796    550.914    550.796
 21.370    521.018    551.162    -30.145    550.512    551.043    550.512    550.632    550.512
 21.470    561.000    550.895     10.105    550.227    550.774    550.227    550.348    550.227
 21.570    550.000    550.631     -0.631    549.941    550.509    549.941    550.062    549.941
 21.670    511.056    550.419    -39.363    549.653    550.296    549.653    549.776    549.653
 21.770    504.647    550.261    -45.614    549.364    550.136    549.364    549.489    549.364
 21.870    508.890    550.005    -41.115    549.074    549.879    549.074    549.200    549.074
 21.970    539.000    549.739    -10.739    548.783    549.612    548.783    548.910    548.783
 22.070    517.000    549.475    -32.475    548.490    549.345    548.490    548.619    548.490
 22.170    523.300    549.211    -25.911    548.197    549.080    548.197    548.327    548.197
 22.270    509.000    548.949    -39.949    547.902    548.817    547.902    548.035    547.902
 22.370    507.000    548.690    -41.690    547.607    548.556    547.607    547.741    547.607
 22.470    548.000    548.436     -0.436    547.310    548.300    547.310    547.446    547.310
 22.570    583.000    548.185     34.815    547.013    548.047    547.013    547.150    547.013
 22.670    541.680    547.953     -6.272    546.714    547.813    546.714    546.854    546.714
 22.770    595.957    547.755     48.202    546.415    547.613    546.415    546.557    546.415
 22.870    577.618    547.521     30.097    546.114    547.378    546.114    546.258    546.114
 22.970    593.333    547.289     46.044    545.813    547.143    545.813    545.959    545.813
 23.070    562.486    547.065     15.421    545.511    546.917    545.511    545.660    545.511
 23.170    562.000    546.853     15.147    545.209    546.702    545.209    545.359    545.209
 23.270    575.000    546.654     28.346    544.905    546.501    544.905    545.058    544.905
 23.370    553.313    546.473      6.840    544.601    546.318    544.601    544.757    544.601
 23.470    529.000    546.314    -17.314    544.296    546.157    544.296    544.454    544.296
 23.570    551.113    546.187      4.927    543.991    546.026    543.991    544.151    543.991
 23.670    527.000    546.099    -19.099    543.684    545.936    543.684    543.848    543.684
 23.770    554.000    546.067      7.933    543.377    545.901    543.377    543.544    543.377
 23.870    561.000    546.112     14.888    543.070    545.944    543.070    543.240    543.070
 23.970    504.324    546.275    -41.951    542.762    546.104    542.762    542.935    542.762
 24.070    528.920    546.641    -17.721    542.453    546.467    542.453    542.630    542.453
 24.170    566.000    547.457     18.543    542.144    547.277    542.144    542.327    542.144
 24.270    588.584    549.425     39.158    541.834    549.242    541.834    542.021    541.834
 24.370    552.000    554.237     -2.237    541.524    554.054    541.524    541.715    541.524
 24.470    572.000    564.745      7.255    541.214    564.565    541.214    541.409    541.214
 24.570    573.000    583.444    -10.444    540.903    583.274    540.903    541.102    540.903
 24.670    604.000    608.539     -4.539    540.591    608.383    540.591    540.795    540.591
 24.770    621.276    630.057     -8.781    540.279    629.911    540.279    540.489    540.279
 24.870    667.216    633.738     33.478    539.967    633.591    539.967    540.182    539.967
 24.970    625.448    616.143      9.304    539.655    615.977    539.655    539.875    539.655
 25.070    548.930    589.960    -41.030    539.342    589.770    539.342    539.568    539.342
 25.170    561.000    567.998     -6.998    539.029    567.786    539.029    539.261    539.029
 25.270    570.000    554.500     15.500    538.716    554.272    538.716    538.954    538.716
 25.370    569.384    547.769     21.615    538.402    547.529    538.402    538.647    538.402
 25.470    511.000    544.682    -33.682    538.088    544.433    538.088    538.341    538.088
 25.570    527.657    543.144    -15.486    537.775    542.885    537.775    538.035    537.775
 25.670    539.000    542.194     -3.194    537.460    541.926    537.460    537.729    537.460
 25.770    583.000    541.500     41.500    537.146    541.223    537.146    537.424    537.146
 25.870    542.000    540.955      1.045    536.832    540.668    536.832    537.120    536.832
 25.970    579.000    540.511     38.489    536.518    540.214    536.518    536.816    536.518
 26.070    575.000    540.141     34.859    536.203    539.831    536.203    536.513    536.203
 26.170    556.146    539.831     16.315    535.889    539.510    535.889    536.211    535.889
 26.270    534.000    539.576     -5.576    535.574    539.241    535.574    535.909    535.574
 26.370    575.000    539.372     35.628    535.259    539.023    535.259    535.609    535.259
 26.470    493.075    539.219    -46.144    534.945    538.853    534.945    535.311    534.945
 26.570    560.000    539.120     20.880    534.630    538.737    534.630    535.013    534.630
 26.670    538.000    539.097     -1.097    534.316    538.695    534.316    534.718    534.316
 26.770    492.577    539.169    -46.592    534.002    538.747    534.002    534.424    534.002
 26.870    522.000    539.288    -17.288    533.688    538.842    533.688    534.133    533.688
 26.970    557.707    539.496     18.210    533.373    539.025    533.373    533.844    533.373
 27.070    581.000    539.832     41.168    533.059    539.332    533.059    533.559    533.059
 27.170    511.618    540.336    -28.718    532.746    539.805    532.746    533.276    532.746
 27.270    592.000    541.072     50.928    532.432    540.505    532.432    532.998    532.432
 27.370    553.000    542.115     10.885    532.119    541.508    532.119    532.724    532.119
 27.470    614.000    543.633     70.367    531.806    542.981    531.806    532.456    531.806
 27.570    563.000    546.041     16.959    531.493    545.336    531.493    532.194    531.493
 27.670    541.743    550.614     -8.871    531.180    549.850    531.180    531.940    531.180
 27.770    577.000    561.458     15.542    530.868    560.623    530.868    531.695    530.868
 27.870    578.322    588.607    -10.285    530.556    587.684    530.556    531.462    530.556
 27.970    678.000    647.642     30.358    530.244    646.609    530.244    531.241    530.244
 28.070    775.000    747.141     27.859    529.933    745.972    529.933    531.038    529.933
 28.170    897.000    864.830     32.170    529.622    863.509    529.622    530.855    529.622
 28.270    958.000    937.782     20.218    529.311    936.307    529.311    530.698    529.311
 28.370    889.000    912.420    -23.420    529.001    910.789    529.001    530.575    529.001
 28.470    772.000    817.771    -45.771    528.691    815.941    528.691    530.496    528.691
 28.570    733.000    728.562      4.438    528.382    726.457    528.382    530.477    528.382
 28.670    711.000    695.875     15.125    528.073    693.392    528.073    530.544    528.073
 28.770    695.628    726.389    -30.760    527.765    723.389    527.765    530.746    527.765
 28.870    828.992    789.397     39.595    527.457    785.659    527.457    531.173    527.457
 28.970    766.000    830.134    -64.134    527.150    825.280    527.150    531.989    527.150
 29.070    776.000    807.278    -31.278    526.843    800.661    526.843    533.462    526.843
 29.170    738.917    736.870      2.047    526.537    727.460    526.537    535.960    526.537
 29.270    651.000    662.833    -11.833    526.231    649.206    526.231    539.871    526.231
 29.370    582.000    612.472    -30.472    525.926    592.994    525.926    545.413    525.926
 29.470    662.000    588.562     73.438    525.622    561.907    525.622    552.280    525.622
 29.570    632.925    581.211     51.713    525.318    547.418    525.318    559.110    525.318
 29.670    609.000    579.184     29.816    525.014    540.925    525.014    563.272    525.014
 29.770    525.928    575.318    -49.390    524.712    537.620    524.712    562.409    524.712
 29.870    614.000    568.048     45.952    524.410    535.578    524.410    556.878    524.410
 29.970    587.514    559.344     28.170    524.109    534.163    524.109    549.288    524.109
 30.070    534.523    551.393    -16.870    523.808    533.169    523.808    542.030    523.808
 30.170    518.864    545.245    -26.381    523.508    532.540    523.508    536.211    523.508
 30.270    492.739    541.142    -48.402    523.209    532.347    523.209    532.002    523.209
 30.370    571.435    539.160     32.275    522.911    532.936    522.911    529.132    522.911
 30.470    575.000    539.871     35.129    522.614    535.270    522.614    527.209    522.614
 30.570    555.042    544.825     10.218    522.317    541.249    522.317    525.881    522.317
 30.670    534.058    556.118    -22.059    522.021    553.213    522.021    524.904    522.021
 30.770    538.376    574.236    -35.859    521.726    571.796    521.726    524.131    521.726
 30.870    601.793    594.810      6.983    521.431    592.712    521.431    523.482    521.431
 30.970    603.000    607.392     -4.392    521.138    605.562    521.138    522.912    521.138
 31.070    588.000    602.772    -14.772    520.845    601.169    520.845    522.400    520.845
 31.170    597.000    584.176     12.824    520.553    582.765    520.553    521.930    520.553
 31.270    520.000    562.547    -42.547    520.262    561.297    520.262    521.492    520.262
 31.370    585.000    545.734     39.266    519.972    544.616    519.972    521.080    519.972
 31.470    562.870    535.576     27.294    519.683    534.565    519.683    520.688    519.683
 31.570    565.000    530.396     34.604    519.395    529.474    519.395    520.313    519.395
 31.670    519.725    527.915     -8.190    519.108    527.069    519.108    519.952    519.108
 31.770    504.000    526.628    -22.628    518.822    525.846    518.822    519.601    518.822
 31.870    518.000    525.838     -7.838    518.536    525.112    518.536    519.261    518.536
 31.970    530.000    525.292      4.708    518.252    524.614    518.252    518.928    518.252
 32.070    540.000    524.897     15.103    517.969    524.262    517.969    518.602    517.969
 32.170    523.000    524.621     -1.621    517.686    524.024    517.686    518.283    517.686
 32.270    494.582    524.455    -29.872    517.405    523.890    517.405    517.969    517.405
 32.370    545.000    524.395     20.605    517.125    523.859    517.125    517.659    517.125
 32.470    538.000    524.447     13.553    516.846    523.937    516.846    517.354    516.846
 32.570    530.000    524.624      5.376    516.567    524.138    516.567    517.052    516.567
 32.670    581.000    524.948     56.052    516.290    524.483    516.290    516.754    516.290
 32.770    549.000    525.452     23.548    516.014    525.005    516.014    516.460    516.014
 32.870    524.000    526.182     -2.182    515.739    525.752    515.739    516.168    515.739
 32.970    553.000    527.209     25.791    515.465    526.795    515.465    515.879    515.465
 33.070    536.000    528.648      7.352    515.193    528.247    515.193    515.592    515.193
 33.170    557.672    530.684     26.988    514.921    530.295    514.921    515.308    514.921
 33.270    579.000    533.729     45.271    514.651    533.351    514.651    515.026    514.651
 33.370    558.000    538.880     19.120    514.381    538.512    514.381    514.746    514.381
 33.470    587.000    549.080     37.920    514.113    548.718    514.113    514.469    514.113
 33.570    618.278    571.046     47.232    513.846    570.688    513.846    514.193    513.846
 33.670    627.000    616.376     10.624    513.580    616.017    513.580    513.919    513.580
 33.770    721.000    697.789     23.211    513.316    697.420    513.316    513.647    513.316
 33.870    842.000    817.299     24.701    513.052    816.919    513.052    513.377    513.052
 33.970    961.000    950.012     10.988    512.790    949.625    512.790    513.109    512.790
 34.070   1001.139   1038.215    -37.076    512.529   1037.839    512.529    512.842    512.529
 34.170   1064.000   1027.043     36.957    512.269   1026.696    512.269    512.578    512.269
 34.270    899.000    924.655    -25.655    512.011    924.337    512.011    512.315    512.011
 34.370    838.435    790.914     47.521    511.754    790.614    511.754    512.053    511.754
 34.470    607.000    677.553    -70.553    511.498    677.261    511.498    511.793    511.498
 34.570    568.000    603.197    -35.197    511.243    602.908    511.243    511.535    511.243
 34.670    577.000    562.677     14.323    510.990    562.389    510.990    511.278    510.990
 34.770    568.792    542.984     25.808    510.737    542.698    510.737    511.023    510.737
 34.870    549.000    533.452     15.548    510.487    533.168    510.487    510.770    510.487
 34.970    493.426    528.231    -34.805    510.237    527.950    510.237    510.518    510.237
 35.070    559.000    524.837     34.163    509.989    524.558    509.989    510.267    509.989
 35.170    556.000    522.346     33.654    509.742    522.069    509.742    510.018    509.742
 35.270    511.000    520.403     -9.403    509.496    520.128    509.496    509.771    509.496
 35.370    527.487    518.835      8.651    509.252    518.562    509.252    509.525    509.252
 35.470    557.190    517.542     39.649    509.009    517.270    509.009    509.281    509.009
 35.570    548.000    516.454     31.546    508.768    516.183    508.768    509.038    508.768
 35.670    495.000    515.523    -20.523    508.528    515.254    508.528    508.797    508.528
 35.770    543.000    514.716     28.284    508.289    514.447    508.289    508.558    508.289
 35.870    479.901    514.006    -34.104    508.052    513.738    508.052    508.320    508.052
 35.970    516.596    513.375      3.221    507.816    513.107    507.816    508.083    507.816
 36.070    548.017    512.809     35.208    507.581    512.542    507.581    507.848    507.581
 36.170    522.539    512.297     10.241    507.348    512.031    507.348    507.614    507.348
 36.270    468.000    511.832    -43.832    507.116    511.566    507.116    507.383    507.116
 36.370    532.643    511.408     21.235    506.886    511.142    506.886    507.152    506.886
 36.470    468.600    511.021    -42.421    506.657    510.755    506.657    506.923    506.657
 36.570    536.000    510.668     25.332    506.430    510.402    506.430    506.696    506.430
 36.670    522.505    510.350     12.156    506.204    510.083    506.204    506.470    506.204
 36.770    482.000    510.068    -28.068    505.979    509.801    505.979    506.246    505.979
 36.870    463.595    509.834    -46.240    505.756    509.567    505.756    506.023    505.756
 36.970    527.000    509.678     17.322    505.534    509.411    505.534    505.802    505.534
 37.070    540.133    509.681     30.452    505.314    509.413    505.314    505.583    505.314
 37.170    492.000    510.019    -18.019    505.096    509.750    505.096    505.365    505.096
 37.270    492.788    510.999    -18.212    504.878    510.730    504.878    505.148    504.878
 37.370    552.938    512.980     39.958    504.663    512.710    504.663    504.933    504.663
 37.470    538.398    516.118     22.280    504.448    515.848    504.448    504.720    504.448
 37.570    521.000    519.988      1.012    504.236    519.718    504.236    504.509    504.236
 37.670    496.000    523.331    -27.331    504.024    523.060    504.024    504.299    504.024
 37.770    511.000    524.457    -13.457    503.815    524.187    503.815    504.090    503.815
 37.870    513.165    522.677     -9.512    503.607    522.407    503.607    503.883    503.607
 37.970    552.752    519.108     33.644    503.400    518.839    503.400    503.678    503.400
 38.070    529.889    515.265     14.624    503.195    514.996    503.195    503.474    503.195
 38.170    471.000    511.976    -40.976    502.991    511.705    502.991    503.272    502.991
 38.270    454.000    509.509    -55.509    502.789    509.234    502.789    503.072    502.789
 38.370    553.910    507.814     46.097    502.588    507.534    502.588    502.873    502.588
 38.470    532.679    506.701     25.978    502.389    506.418    502.389    502.676    502.389
 38.570    545.000    505.973     39.027    502.192    505.686    502.192    502.480    502.192
 38.670    501.000    505.477     -4.477    501.996    505.188    501.996    502.286    501.996
 38.770    507.642    505.113      2.529    501.802    504.821    501.802    502.094    501.802
 38.870    536.770    504.819     31.950    501.609    504.525    501.609    501.904    501.609
 38.970    468.000    504.564    -36.564    501.418    504.268    501.418    501.715    501.418
 39.070    489.000    504.332    -15.332    501.228    504.033    501.228    501.527    501.228
 39.170    512.000    504.116      7.884    501.040    503.814    501.040    501.342    501.040
 39.270    474.155    503.912    -29.756    500.854    503.608    500.854    501.158    500.854
 39.370    524.000    503.719     20.281    500.669    503.412    500.669    500.975    500.669
 39.470    477.661    503.535    -25.874    500.486    503.226    500.486    500.795    500.486
 39.570    507.000    503.360      3.640    500.304    503.048    500.304    500.616    500.304
 39.670    506.440    503.192      3.248    500.124    502.878    500.124    500.439    500.124
 39.770    563.000    503.033     59.967    499.945    502.715    499.945    500.263    499.945
 39.870    491.000    502.880    -11.880    499.768    502.560    499.768    500.089    499.768
 39.970    501.000    502.736     -1.736    499.593    502.412    499.593    499.917    499.593
 40.070    505.000    502.599      2.401    499.419    502.272    499.419    499.747    499.419
 40.170    466.443    502.470    -36.027    499.247    502.139    499.247    499.578    499.247
 40.270    497.000    502.349     -5.349    499.077    502.015    499.077    499.411    499.077
 40.370    485.563    502.238    -16.675    498.908    501.901    498.908    499.246    498.908
 40.470    540.826    502.137     38.689    498.740    501.796    498.740    499.082    498.740
 40.570    521.003    502.047     18.956    498.575    501.702    498.575    498.920    498.575
 40.670    522.473    501.970     20.504    498.411    501.621    498.411    498.760    498.411
 40.770    511.345    501.907      9.439    498.248    501.554    498.248    498.602    498.248
 40.870    487.076    501.860    -14.784    498.087    501.503    498.087    498.445    498.087
 40.970    470.623    501.834    -31.211    497.928    501.472    497.928    498.290    497.928
 41.070    495.271    501.830     -6.560    497.771    501.464    497.771    498.137    497.771
 41.170    480.000    501.856    -21.856    497.615    501.485    497.615    497.986    497.615
 41.270    481.000    501.916    -20.916    497.461    501.541    497.461    497.837    497.461
 41.370    508.000    502.022      5.978    497.308    501.641    497.308    497.689    497.308
 41.470    508.027    502.184      5.843    497.157    501.798    497.157    497.543    497.157
 41.570    505.000    502.422      2.578    497.008    502.031    497.008    497.399    497.008
 41.670    495.882    502.767     -6.885    496.860    502.372    496.860    497.257    496.860
 41.770    481.000    503.286    -22.286    496.714    502.885    496.714    497.116    496.714
 41.870    510.000    504.132      5.868    496.569    503.726    496.569    496.978    496.569
 41.970    501.000    505.677     -4.677    496.426    505.265    496.426    496.841    496.426
 42.070    512.000    508.722      3.278    496.285    508.305    496.285    496.706    496.285
 42.170    504.000    514.708    -10.708    496.146    514.287    496.146    496.573    496.146
 42.270    534.000    525.621      8.379    496.008    525.198    496.008    496.442    496.008
 42.370    574.988    543.177     31.811    495.871    542.755    495.871    496.313    495.871
 42.470    577.216    567.209     10.007    495.737    566.792    495.737    496.185    495.737
 42.570    547.000    593.822    -46.822    495.604    593.412    495.604    496.060    495.604
 42.670    609.985    614.676     -4.691    495.472    614.271    495.472    495.936    495.472
 42.770    629.338    620.012      9.325    495.343    619.606    495.343    495.814    495.343
 42.870    536.000    606.608    -70.608    495.215    606.189    495.215    495.695    495.215
 42.970    596.863    581.579     15.284    495.088    581.139    495.088    495.577    495.088
 43.070    593.611    555.049     38.561    494.964    554.585    494.964    495.461    494.964
 43.170    495.000    533.492    -38.492    494.840    533.006    494.840    495.348    494.840
 43.270    491.000    518.912    -27.912    494.719    518.408    494.719    495.236    494.719
 43.370    525.000    510.362     14.638    494.599    509.842    494.599    495.126    494.599
 43.470    479.000    505.814    -26.814    494.481    505.281    494.481    495.019    494.481
 43.570    469.390    503.459    -34.069    494.364    502.913    494.364    494.913    494.364
 43.670    511.711    502.158      9.554    494.249    501.600    494.249    494.810    494.249
 43.770    520.000    501.339     18.661    494.136    500.769    494.136    494.708    494.136
 43.870    512.000    500.758     11.242    494.024    500.174    494.024    494.609    494.024
 43.970    467.625    500.314    -32.688    493.914    499.716    493.914    494.513    493.914
 44.070    488.000    499.961    -11.961    493.806    499.350    493.806    494.418    493.806
 44.170    500.000    499.677      0.323    493.699    499.051    493.699    494.326    493.699
 44.270    501.407    499.447      1.960    493.594    498.805    493.594    494.236    493.594
 44.370    491.000    499.259     -8.259    493.490    498.602    493.490    494.148    493.490
 44.470    474.498    499.107    -24.608    493.389    498.432    493.389    494.063    493.389
 44.570    517.000    498.984     18.016    493.288    498.292    493.288    493.981    493.288
 44.670    501.000    498.887      2.113    493.190    498.176    493.190    493.901    493.190
 44.770    519.000    498.813     20.187    493.093    498.082    493.093    493.823    493.093
 44.870    485.038    498.759    -13.721    492.997    498.008    492.997    493.749    492.997
 44.970    480.000    498.724    -18.724    492.904    497.951    492.904    493.677    492.904
 45.070    472.069    498.707    -26.638    492.811    497.910    492.811    493.608    492.811
 45.170    522.000    498.707     23.293    492.721    497.886    492.721    493.542    492.721
 45.270    477.000    498.724    -21.724    492.632    497.877    492.632    493.479    492.632
 45.370    467.000    498.758    -31.758    492.545    497.883    492.545    493.420    492.545
 45.470    437.000    498.810    -61.810    492.459    497.905    492.459    493.364    492.459
 45.570    501.000    498.879      2.121    492.375    497.942    492.375    493.311    492.375
 45.670    510.163    498.967     11.196    492.292    497.996    492.292    493.263    492.292
 45.770    510.000    499.074     10.926    492.211    498.067    492.211    493.218    492.211
 45.870    514.000    499.204     14.796    492.132    498.158    492.132    493.178    492.132
 45.970    483.304    499.357    -16.052    492.054    498.269    492.054    493.142    492.054
 46.070    466.000    499.535    -33.535    491.978    498.403    491.978    493.111    491.978
 46.170    515.000    499.744     15.256    491.904    498.562    491.904    493.085    491.904
 46.270    461.023    499.985    -38.963    491.831    498.751    491.831    493.064    491.831
 46.370    539.499    500.265     39.234    491.760    498.973    491.760    493.050    491.760
 46.470    462.000    500.588    -38.588    491.690    499.234    491.690    493.043    491.690
 46.570    511.375    500.964     10.411    491.622    499.542    491.622    493.042    491.622
 46.670    524.172    501.408     22.765    491.555    499.912    491.555    493.050    491.555
 46.770    478.000    501.938    -23.938    491.490    500.360    491.490    493.066    491.490
 46.870    497.000    502.591     -5.591    491.426    500.923    491.426    493.092    491.426
 46.970    506.295    503.450      2.846    491.364    501.682    491.364    493.130    491.364
 47.070    544.015    504.696     39.320    491.304    502.817    491.304    493.180    491.304
 47.170    508.000    506.697      1.303    491.245    504.695    491.245    493.243    491.245
 47.270    516.000    510.105      5.895    491.188    507.963    491.188    493.324    491.188
 47.370    493.618    515.852    -22.233    491.132    513.550    491.132    493.423    491.132
 47.470    498.022    524.911    -26.889    491.078    522.429    491.078    493.543    491.078
 47.570    586.235    537.743     48.492    491.025    535.052    491.025    493.689    491.025
 47.670    584.000    553.523     30.477    490.974    550.594    490.974    493.865    490.974
 47.770    633.000    569.521     63.479    490.925    566.320    490.925    494.077    490.925
 47.870    544.000    581.195    -37.195    490.877    577.684    490.877    494.331    490.877
 47.970    575.239    584.100     -8.861    490.830    580.236    490.830    494.639    490.830
 48.070    587.000    577.336      9.664    490.785    573.062    490.785    495.011    490.785
 48.170    607.180    564.521     42.658    490.742    559.760    490.742    495.466    490.742
 48.270    547.000    550.651     -3.651    490.700    545.294    490.700    496.030    490.700
 48.370    538.828    539.273     -0.445    490.659    533.168    490.659    496.747    490.659
 48.470    525.000    531.944     -6.944    490.620    524.861    490.620    497.692    490.620
 48.570    551.000    528.739     22.261    490.583    520.313    490.583    499.002    490.583
 48.670    573.351    529.093     44.257    490.547    518.723    490.547    500.912    490.547
 48.770    520.000    532.474    -12.474    490.512    519.176    490.512    503.806    490.512
 48.870    556.723    538.793     17.929    490.479    521.022    490.479    508.247    490.479
 48.970    535.600    548.471    -12.872    490.447    523.960    490.447    514.955    490.447
 49.070    572.000    562.272      9.728    490.417    528.007    490.417    524.678    490.417
 49.170    542.000    581.099    -39.099    490.389    533.542    490.389    537.939    490.389
 49.270    593.000    605.979    -12.979    490.361    541.673    490.361    554.659    490.361
 49.370    657.834    638.665     19.169    490.336    555.295    490.336    573.692    490.336
 49.470    710.420    683.372     27.048    490.311    581.347    490.311    592.311    490.311
 49.570    761.000    750.010     10.990    490.288    634.190    490.288    606.063    490.288
 49.670    884.000    858.190     25.810    490.267    738.201    490.267    610.180    490.267
 49.770   1092.000   1037.587     54.413    490.247    924.823    490.247    602.895    490.247
 49.870   1325.000   1315.838      9.162    490.228   1218.790    490.228    587.124    490.228
 49.970   1644.000   1691.972    -47.972    490.211   1614.114    490.211    567.907    490.211
 50.070   2148.359   2110.252     38.106    490.196   2051.037    490.196    549.290    490.196
 50.170   2449.569   2454.534     -4.965    490.181   2411.205    490.181    533.489    490.181
 50.270   2534.000   2584.359    -50.359    490.168   2553.356    490.168    521.275    490.168
 50.370   2372.000   2430.801    -58.801    490.157   2408.653    490.157    512.498    490.157
 50.470   2139.000   2064.590     74.410    490.146   2048.426    490.146    506.531    490.146
 50.570   1615.139   1627.336    -12.197    490.138   1615.061    490.138    502.608    490.138
 50.670   1162.000   1236.644    -74.644    490.130   1226.876    490.130    500.046    490.130
 50.770    949.991    951.174     -1.184    490.124    943.064    490.124    498.334    490.124
 50.870    764.436    775.578    -11.142    490.120    768.626    490.120    497.137    490.120
 50.970    700.000    683.278     16.722    490.116    677.186    490.116    496.255    490.116
 51.070    670.000    640.214     29.786    490.114    634.795    490.114    495.573    490.114
 51.170    633.000    618.986     14.014    490.114    614.108    490.114    495.027    490.114
 51.270    571.145    603.460    -32.315    490.114    599.025    490.114    494.582    490.114
 51.370    568.000    587.736    -19.736    490.116    583.666    490.116    494.214    490.116
 51.470    564.312    571.841     -7.529    490.120    568.076    490.120    493.907    490.120
 51.570    578.456    557.497     20.958    490.124    553.988    490.124    493.649    490.124
 51.670    578.000    546.019     31.981    490.130    542.727    490.130    493.433    490.130
 51.770    563.000    537.799     25.201    490.138    534.693    490.138    493.251    490.138
 51.870    529.000    532.492     -3.492    490.146    529.545    490.146    493.098    490.146
 51.970    523.000    529.409     -6.409    490.156    526.599    490.156    492.970    490.156
 52.070    555.000    527.882     27.118    490.167    525.189    490.167    492.863    490.167
 52.170    512.000    527.451    -15.451    490.180    524.858    490.180    492.775    490.180
 52.270    491.860    527.907    -36.047    490.193    525.399    490.193    492.703    490.193
 52.370    554.514    529.278     25.237    490.208    526.842    490.208    492.646    490.208
 52.470    588.000    531.887     56.113    490.224    529.512    490.224    492.601    490.224
 52.570    587.000    536.573     50.427    490.242    534.248    490.242    492.568    490.242
 52.670    561.000    545.119     15.881    490.261    542.834    490.261    492.546    490.261
 52.770    622.000    560.845     61.155    490.280    558.593    490.280    492.533    490.280
 52.870    622.000    589.037     32.963    490.302    586.808    490.302    492.529    490.302
 52.970    705.000    636.562     68.438    490.324    634.349    490.324    492.533    490.324
 53.070    729.546    709.937     19.609    490.347    707.733    490.347    492.546    490.347
 53.170    842.000    811.678     30.322    490.372    809.478    490.372    492.565    490.372
 53.270    952.000    935.856     16.144    490.398    933.655    490.398    492.592    490.398
 53.370   1054.000   1064.595    -10.595    490.425   1062.390    490.425    492.626    490.425
 53.470   1125.000   1167.600    -42.600    490.454   1165.390    490.454    492.666    490.454
 53.570   1213.000   1210.105      2.895    490.483   1207.888    490.483    492.713    490.483
 53.670   1074.000   1174.494   -100.494    490.514   1172.266    490.514    492.767    490.514
 53.770   1028.000   1076.042    -48.042    490.545   1073.792    490.545    492.826    490.545
 53.870   1003.289    948.882     54.407    490.578    946.601    490.578    492.893    490.578
 53.970    815.000    824.059     -9.059    490.612    821.735    490.612    492.965    490.612
 54.070    740.000    720.563     19.437    490.648    718.188    490.648    493.045    490.648
 54.170    619.000    645.261    -26.261    490.684    642.829    490.684    493.131    490.684
 54.270    598.000    596.221      1.779    490.721    593.728    490.721    493.224    490.721
 54.370    580.000    567.134     12.866    490.760    564.575    490.760    493.325    490.760
 54.470    534.437    551.081    -16.643    490.799    548.451    490.799    493.433    490.799
 54.570    542.000    542.614     -0.614    490.840    539.907    490.840    493.549    490.840
 54.670    545.000    538.248      6.752    490.882    535.458    490.882    493.673    490.882
 54.770    537.651    536.078      1.573    490.925    533.198    490.925    493.806    490.925
 54.870    557.000    535.183     21.817    490.969    532.204    490.969    493.949    490.969
 54.970    570.000    535.160     34.840    491.014    532.073    491.014    494.101    491.014
 55.070    562.000    535.848     26.152    491.060    532.644    491.060    494.265    491.060
 55.170    524.000    537.201    -13.201    491.107    533.869    491.107    494.440    491.107
 55.270    587.000    539.232     47.768    491.155    535.760    491.155    494.627    491.155
 55.370    525.533    542.003    -16.470    491.204    538.378    491.204    494.829    491.204
 55.470    547.000    545.634      1.366    491.254    541.843    491.254    495.046    491.254
 55.570    596.000    550.347     45.653    491.305    546.373    491.305    495.279    491.305
 55.670    546.000    556.575    -10.575    491.357    552.401    491.357    495.530    491.357
 55.770    527.398    565.245    -37.847    491.410    560.851    491.410    495.802    491.410
 55.870    571.000    578.363     -7.363    491.464    573.727    491.464    496.097    491.464
 55.970    594.000    600.069     -6.069    491.519    595.165    491.519    496.416    491.519
 56.070    636.000    638.147     -2.147    491.575    632.943    491.575    496.764    491.575
 56.170    693.000    705.455    -12.455    491.632    699.916    491.632    497.144    491.632
 56.270    821.461    819.964      1.497    491.690    814.048    491.690    497.560    491.690
 56.370    962.358   1001.512    -39.154    491.749    995.176    491.749    498.018    491.749
 56.470   1244.000   1264.023    -20.023    491.809   1257.225    491.809    498.523    491.809
 56.570   1594.484   1604.213     -9.729    491.869   1596.913    491.869    499.082    491.869
 56.670   2059.313   1990.626     68.686    491.931   1982.788    491.931    499.705    491.931
 56.770   2399.000   2358.288     40.712    491.993   2349.873    491.993    500.401    491.993
 56.870   2535.000   2616.322    -81.322    492.056   2607.275    492.056    501.184    492.056
 56.970   2604.000   2680.584    -76.584    492.120   2670.811    492.120    502.069    492.120
 57.070   2577.000   2526.666     50.334    492.186   2516.015    492.186    503.075    492.186
 57.170   2186.257   2210.605    -24.347    492.251   2198.883    492.251    504.229    492.251
 57.270   1900.424   1826.766     73.658    492.318   1813.753    492.318    505.562    492.318
 57.370   1421.000   1457.608    -36.608    492.386   1443.058    492.386    507.122    492.386
 57.470   1220.000   1153.455     66.545    492.454   1137.063    492.454    508.980    492.454
 57.570    947.366    932.357     15.008    492.523    913.717    492.523    511.250    492.523
 57.670    792.781    788.773      4.008    492.593    767.292    492.593    514.127    492.593
 57.770    668.863    705.483    -36.620    492.664    680.239    492.664    517.938    492.664
 57.870    729.000    664.003     64.997    492.736    633.526    492.736    523.227    492.736
 57.970    644.000    650.702     -6.702    492.808    612.667    492.808    530.847    492.808
 58.070    618.000    658.639    -40.639    492.881    609.484    492.881    542.033    492.881
 58.170    652.843    686.645    -33.802    492.955    621.190    492.955    558.399    492.955
 58.270    741.000    737.110      3.890    493.030    648.321    493.030    581.798    493.030
 58.370    830.506    813.378     17.128    493.105    692.480    493.105    613.973    493.105
 58.470    894.000    917.056    -23.056    493.181    754.190    493.181    656.006    493.181
 58.570   1058.000   1045.600     12.400    493.258    831.194    493.258    707.614    493.258
 58.670   1171.690   1190.468    -18.778    493.336    917.394    493.336    766.358    493.336
 58.770   1276.535   1336.821    -60.285    493.414   1003.382    493.414    826.807    493.414
 58.870   1474.000   1466.268      7.732    493.493   1079.733    493.493    879.996    493.493
 58.970   1508.000   1560.535    -52.535    493.573   1139.636    493.573    914.459    493.573
 59.070   1623.000   1603.593     19.407    493.653   1176.725    493.653    920.528    493.653
 59.170   1594.742   1586.467      8.276    493.734   1183.983    493.734    896.242    493.734
 59.270   1541.000   1514.938     26.062    493.816   1159.928    493.816    848.862    493.816
 59.370   1466.000   1410.306     55.694    493.898   1114.266    493.898    789.970    493.898
 59.470   1273.625   1299.149    -25.524    493.981   1063.304    493.981    729.840    493.981
 59.570   1197.240   1203.906     -6.666    494.064   1022.721    494.064    675.230    494.064
 59.670   1110.619   1141.336    -30.717    494.148   1005.818    494.148    629.605    494.148
 59.770   1109.000   1123.917    -14.917    494.233   1024.084    494.233    593.955    494.233
 59.870   1159.498   1158.232      1.266    494.318   1084.766    494.318    567.618    494.318
 59.970   1271.000   1240.557     30.443    494.404   1185.721    494.404    549.021    494.404
 60.070   1394.000   1353.560     40.440    494.491   1311.497    494.491    536.293    494.491
 60.170   1501.431   1466.458     34.973    494.578   1433.058    494.578    527.699    494.578
 60.270   1619.931   1540.390     79.541    494.665   1512.937    494.665    521.854    494.665
 60.370   1593.000   1542.060     50.940    494.754   1518.823    494.754    517.767    494.754
 60.470   1521.000   1461.967     59.033    494.842   1441.851    494.842    514.792    494.842
 60.570   1362.116   1319.947     42.169    494.931   1302.231    494.931    512.535    494.931
 60.670   1184.000   1150.618     33.382    495.021   1134.805    495.021    510.765    495.021
 60.770    962.000    985.966    -23.966    495.111    971.686    495.111    509.353    495.111
 60.870    816.000    847.153    -31.153    495.202    834.106    495.202    508.228    495.202
 60.970    779.000    743.387     35.613    495.293    731.314    495.293    507.354    495.293
 61.070    694.000    674.496     19.504    495.385    663.156    495.385    506.713    495.385
 61.170    598.590    635.321    -36.730    495.477    624.483    495.477    506.300    495.477
 61.270    653.000    620.132     32.868    495.569    609.566    495.569    506.115    495.569
 61.370    645.956    625.709     20.247    495.662    615.193    495.662    506.148    495.662
 61.470    656.955    652.555      4.400    495.756    641.885    495.756    506.379    495.756
 61.570    708.000    704.263      3.737    495.850    693.281    495.850    506.765    495.850
 61.670    788.332    785.271      3.061    495.944    773.892    495.944    507.228    495.944
 61.770    916.000    897.406     18.594    496.039    885.668    496.039    507.651    496.039
 61.870   1051.000   1036.092     14.908    496.134   1024.185    496.134    507.887    496.134
 61.970   1168.112   1187.481    -19.369    496.229   1175.736    496.229    507.800    496.229
 62.070   1286.475   1327.739    -41.264    496.325   1316.546    496.325    507.341    496.325
 62.170   1492.602   1426.100     66.502    496.421   1415.788    496.421    506.575    496.421
 62.270   1392.000   1454.588    -62.588    496.517   1445.343    496.517    505.640    496.517
 62.370   1467.603   1403.388     64.214    496.614   1395.253    496.614    504.669    496.614
 62.470   1334.000   1288.085     45.915    496.711   1280.993    496.711    503.759    496.711
 62.570   1107.000   1139.039    -32.039    496.809   1132.863    496.809    502.966    496.809
 62.670   1036.168    986.064     50.104    496.906    980.653    496.906    502.315    496.906
 62.770    824.000    850.451    -26.451    497.004    845.655    497.004    501.804    497.004
 62.870    695.914    743.178    -47.264    497.103    738.864    497.103    501.421    497.103
 62.970    635.194    666.248    -31.054    497.201    662.309    497.201    501.144    497.201
 63.070    583.000    615.687    -32.687    497.300    612.039    497.300    500.948    497.300
 63.170    609.000    584.937     24.063    497.399    581.521    497.399    500.813    497.399
 63.270    587.000    567.515     19.485    497.498    564.288    497.498    500.721    497.498
 63.370    591.000    558.442     32.558    497.598    555.375    497.598    500.660    497.598
 63.470    530.000    554.639    -24.639    497.698    551.708    497.698    500.622    497.698
 63.570    561.000    554.751      6.249    497.798    551.940    497.798    500.600    497.798
 63.670    599.000    558.840     40.160    497.898    556.135    497.898    500.590    497.898
 63.770    557.000    568.109    -11.109    497.998    565.498    497.998    500.592    497.998
 63.870    658.000    584.647     73.353    498.099    582.119    498.099    500.601    498.099
 63.970    599.000    611.034    -12.034    498.200    608.578    498.200    500.618    498.200
 64.070    685.000    649.652     35.348    498.300    647.257    498.300    500.643    498.300
 64.170    705.000    701.689      3.311    498.401    699.344    498.401    500.675    498.401
 64.270    806.000    765.985     40.015    498.503    763.684    498.503    500.712    498.503
 64.370    853.340    838.031     15.309    498.604    835.770    498.604    500.754    498.604
 64.470    917.000    909.489      7.511    498.705    907.268    498.705    500.801    498.705
 64.570    982.000    968.939     13.061    498.807    966.763    498.807    500.852    498.807
 64.670   1012.344   1004.846      7.499    498.908   1002.722    498.908    500.907    498.908
 64.770    975.000   1010.284    -35.284    499.010   1008.219    499.010    500.966    499.010
 64.870   1030.213    985.846     44.367    499.112    983.844    499.112    501.028    499.112
 64.970    880.000    938.518    -58.518    499.213    936.579    499.213    501.093    499.213
 65.070    921.000    878.593     42.407    499.315    876.715    499.315    501.162    499.315
 65.170    856.000    816.279     39.721    499.417    814.455    499.417    501.233    499.417
 65.270    786.000    758.972     27.028    499.519    757.193    499.519    501.307    499.519
 65.370    688.000    710.269    -22.269    499.621    708.527    499.621    501.383    499.621
 65.470    667.000    670.674     -3.674    499.723    668.960    499.723    501.462    499.723
 65.570    662.000    639.125     22.875    499.825    637.433    499.825    501.543    499.825
 65.670    620.000    614.266      5.734    499.927    612.589    499.927    501.626    499.927
 65.770    624.000    594.924     29.076    500.029    593.259    500.029    501.711    500.029
 65.870    567.000    580.149    -13.149    500.130    578.493    500.130    501.798    500.130
 65.970    550.793    569.183    -18.390    500.232    567.535    500.232    501.887    500.232
 66.070    565.000    561.421      3.579    500.334    559.780    500.334    501.979    500.334
 66.170    546.000    556.355    -10.355    500.436    554.720    500.436    502.072    500.436
 66.270    563.000    553.537      9.463    500.537    551.908    500.537    502.166    500.537
 66.370    534.000    552.579    -18.579    500.639    550.954    500.639    502.263    500.639
 66.470    527.000    553.185    -26.185    500.740    551.564    500.740    502.361    500.740
 66.570    553.000    555.208     -2.208    500.842    553.589    500.842    502.461    500.842
 66.670    556.000    558.731     -2.731    500.943    557.112    500.943    502.563    500.943
 66.770    566.000    564.208      1.792    501.044    562.586    501.044    502.667    501.044
 66.870    543.000    572.704    -29.704    501.145    571.078    501.145    502.772    501.145
 66.970    596.000    586.296      9.704    501.246    584.663    501.246    502.879    501.246
 67.070    576.000    608.594    -32.594    501.346    606.951    501.346    502.988    501.346
 67.170    613.000    645.282    -32.282    501.447    643.627    501.447    503.099    501.447
 67.270    746.000    704.370     41.630    501.547    702.698    501.547    503.211    501.547
 67.370    797.513    795.704      1.808    501.647    794.013    501.647    503.326    501.647
 67.470    885.000    929.304    -44.304    501.747    927.591    501.747    503.442    501.747
 67.570   1080.000   1112.326    -32.326    501.846   1110.593    501.846    503.561    501.846
 67.670   1305.000   1345.093    -40.093    501.946   1343.344    501.946    503.682    501.946
 67.770   1664.884   1617.187     47.697    502.045   1615.429    502.045    503.805    502.045
 67.870   1842.000   1904.855    -62.855    502.144   1903.099    502.144    503.931    502.144
 67.970   2174.712   2170.824      3.888    502.243   2169.085    502.243    504.059    502.243
 68.070   2438.000   2368.329     69.671    502.341   2366.617    502.341    504.190    502.341
 68.170   2436.439   2453.147    -16.708    502.439   2451.468    502.439    504.324    502.439
 68.270   2328.987   2403.453    -74.466    502.537   2401.794    502.537    504.461    502.537
 68.370   2281.886   2232.639     49.246    502.635   2230.975    502.635    504.601    502.635
 68.470   1904.186   1980.908    -76.722    502.732   1979.202    502.732    504.745    502.732
 68.570   1698.000   1695.640      2.360    502.829   1693.862    502.829    504.893    502.829
 68.670   1411.578   1417.150     -5.572    502.926   1415.276    502.926    505.045    502.926
 68.770   1159.326   1172.883    -13.557    503.022   1170.900    503.022    505.201    503.022
 68.870    920.907    976.647    -55.740    503.118    974.550    503.118    505.363    503.118
 68.970    866.000    830.658     35.342    503.214    828.447    503.214    505.530    503.214
 69.070    732.000    729.208      2.792    503.309    726.886    503.309    505.703    503.309
 69.170    680.000    662.738     17.262    503.404    660.306    503.404    505.883    503.404
 69.270    653.000    621.168     31.832    503.498    618.626    503.498    506.070    503.498
 69.370    634.000    595.920     38.080    503.592    593.266    503.592    506.265    503.592
 69.470    608.923    580.683     28.240    503.686    577.913    503.686    506.469    503.686
 69.570    538.499    571.309    -32.810    503.779    568.414    503.779    506.683    503.779
 69.670    562.000    565.312     -3.312    503.872    562.282    503.872    506.908    503.872
 69.770    575.000    561.314     13.686    503.965    558.138    503.965    507.145    503.965
 69.870    511.084    558.593    -47.509    504.057    555.255    504.057    507.397    504.057
 69.970    553.000    556.785     -3.785    504.148    553.270    504.148    507.665    504.148
 70.070    543.001    555.713    -12.712    504.239    552.003    504.239    507.951    504.239
 70.170    534.000    555.299    -21.299    504.330    551.373    504.330    508.257    504.330
 70.270    554.000    555.528     -1.528    504.420    551.361    504.420    508.586    504.420
 70.370    542.000    556.448    -14.448    504.509    552.013    504.509    508.943    504.509
 70.470    534.000    558.193    -24.193    504.598    553.459    504.598    509.330    504.598
 70.570    564.000    561.055      2.945    504.687    555.985    504.687    509.753    504.687
 70.670    575.000    565.596      9.404    504.775    560.147    504.775    510.219    504.775
 70.770    599.973    572.830     27.143    504.862    566.951    504.862    510.733    504.862
 70.870    563.000    584.481    -21.481    504.949    578.110    504.949    511.307    504.949
 70.970    593.260    603.243     -9.983    505.036    596.306    505.036    511.954    505.036
 71.070    595.000    632.998    -37.998    505.122    625.397    505.122    512.694    505.122
 71.170    705.000    678.782     26.218    505.207    670.389    505.207    513.556    505.207
 71.270    714.000    746.331    -32.331    505.292    736.965    505.292    514.593    505.292
 71.370    820.262    841.032    -20.770    505.376    830.431    505.376    515.885    505.376
 71.470    956.000    966.306    -10.306    505.459    954.074    505.459    517.568    505.459
 71.570   1120.728   1121.670     -0.941    505.542   1107.195    505.542    519.859    505.542
 71.670   1300.000   1300.940     -0.940    505.625   1283.289    505.625    523.085    505.625
 71.770   1453.737   1491.103    -37.366    505.706   1468.875    505.706    527.717    505.706
 71.870   1726.000   1672.303     53.697    505.787   1643.475    505.787    534.384    505.787
 71.970   1828.000   1819.687      8.313    505.868   1781.474    505.868    543.853    505.868
 72.070   1975.000   1908.609     66.391    505.947   1857.393    505.947    556.961    505.947
 72.170   1963.000   1923.470     39.530    506.026   1854.856    506.026    574.476    506.026
 72.270   1911.000   1865.361     45.639    506.105   1774.440    506.105    596.906    506.105
 72.370   1781.385   1751.498     29.887    506.182   1633.345    506.182    624.257    506.182
 72.470   1597.000   1606.841     -9.841    506.259   1457.251    506.259    655.803    506.259
 72.570   1489.000   1455.109     33.891    506.336   1271.535    506.336    689.887    506.336
 72.670   1266.102   1313.629    -47.527    506.411   1096.256    506.411    723.774    506.411
 72.770   1188.152   1191.606     -3.454    506.486    944.433    506.486    753.657    506.486
 72.870   1016.000   1090.627    -74.627    506.560    822.157    506.560    775.030    506.560
 72.970    901.000   1007.030   -106.030    506.634    729.824    506.634    783.839    506.634
 73.070    899.000    935.472    -36.472    506.706    663.985    506.706    778.193    506.706
 73.170    896.107    871.890     24.217    506.778    619.300    506.778    759.368    506.778
 73.270    772.000    814.389    -42.389    506.849    590.142    506.849    731.096    506.849
 73.370    701.000    762.578    -61.578    506.920    571.608    506.920    697.890    506.920
 73.470    658.000    716.717    -58.717    506.989    559.960    506.989    663.747    506.989
 73.570    720.662    677.212     43.449    507.058    552.636    507.058    631.636    507.058
 73.670    620.888    644.354    -23.466    507.126    548.044    507.126    603.440    507.126
 73.770    590.000    618.151    -28.151    507.193    545.279    507.193    580.070    507.193
 73.870    588.311    598.265     -9.954    507.259    543.870    507.259    561.661    507.259
 73.970    532.000    584.039    -52.039    507.325    543.579    507.325    547.795    507.325
 74.070    577.000    574.596      2.404    507.390    544.257    507.390    537.743    507.390
 74.170    598.000    568.945     29.055    507.453    545.747    507.453    530.670    507.453
 74.270    604.000    566.077     37.923    507.516    547.830    507.516    525.788    507.516
 74.370    572.000    565.014      6.986    507.579    550.187    507.579    522.436    507.579
 74.470    621.000    564.838     56.162    507.640    552.405    507.640    520.109    507.640
 74.570    662.000    564.720     97.280    507.700    554.010    507.700    518.450    507.700
 74.670    615.000    563.983     51.017    507.760    554.562    507.760    517.223    507.760
 74.770    649.000    562.228     86.772    507.818    553.812    507.818    516.277    507.818
 74.870    654.000    559.414     94.586    507.876    551.812    507.876    515.518    507.876
 74.970    621.000    555.822     65.178    507.933    548.899    507.933    514.892    507.933
 75.070    614.000    551.912     62.088    507.989    545.567    507.989    514.363    507.989
 75.170    512.621    548.189    -35.568    508.044    542.346    508.044    513.911    508.044
 75.270    600.000    545.147     54.853    508.098    539.742    508.098    513.520    508.098
 75.370    586.711    543.254     43.457    508.151    538.236    508.151    513.180    508.151
 75.470    562.000    542.981     19.019    508.203    538.306    508.203    512.883    508.203
 75.570    519.255    544.817    -25.562    508.254    540.448    508.254    512.623    508.254
 75.670    499.000    549.281    -50.281    508.304    545.185    508.304    512.394    508.304
 75.770    546.000    556.886    -10.886    508.354    553.034    508.354    512.192    508.354
 75.870    552.000    568.049    -16.049    508.402    564.417    508.402    512.014    508.402
 75.970    569.281    582.951    -13.670    508.449    579.517    508.449    511.856    508.449
 76.070    597.000    601.367     -4.367    508.495    598.111    508.495    511.716    508.495
 76.170    671.654    622.510     49.144    508.541    619.414    508.541    511.591    508.541
 76.270    597.849    644.932    -47.083    508.585    641.983    508.585    511.481    508.585
 76.370    635.000    666.519    -31.519    508.628    663.706    508.628    511.382    508.628
 76.470    637.087    684.621    -47.533    508.671    681.934    508.671    511.294    508.671
 76.570    647.000    696.439    -49.439    508.712    693.872    508.712    511.216    508.712
 76.670    697.000    699.769     -2.769    508.752    697.315    508.752    511.146    508.752
 76.770    696.116    693.878      2.238    508.791    691.532    508.791    511.083    508.791
 76.870    669.000    679.870    -10.870    508.829    677.625    508.829    511.027    508.829
 76.970    666.202    660.159      6.043    508.866    658.010    508.866    510.977    508.866
 77.070    621.000    637.559    -16.559    508.902    635.499    508.902    510.932    508.902
 77.170    571.400    614.607    -43.206    508.937    612.629    508.937    510.892    508.937
 77.270    606.000    593.241     12.759    508.971    591.339    508.971    510.856    508.971
 77.370    599.193    574.709     24.484    509.003    572.877    509.003    510.823    509.003
 77.470    527.000    559.594    -32.594    509.035    557.827    509.035    510.794    509.035
 77.570    562.383    547.930     14.452    509.065    546.222    509.065    510.768    509.065
 77.670    524.595    539.366    -14.771    509.095    537.713    509.095    510.744    509.095
 77.770    513.000    533.347    -20.347    509.123    531.744    509.123    510.723    509.123
 77.870    501.000    529.267    -28.267    509.150    527.711    509.150    510.704    509.150
 77.970    538.000    526.571     11.429    509.176    525.059    509.176    510.687    509.176
 78.070    533.809    524.813      8.996    509.201    523.342    509.201    510.671    509.201
 78.170    506.000    523.664    -17.664    509.225    522.231    509.225    510.656    509.225
 78.270    528.000    522.900      5.100    509.248    521.503    509.248    510.643    509.248
 78.370    539.415    522.381     17.034    509.269    521.018    509.269    510.631    509.269
 78.470    517.000    522.024     -5.024    509.289    520.692    509.289    510.621    509.289
 78.570    485.000    521.788    -36.788    509.309    520.485    509.309    510.611    509.309
 78.670    537.000    521.653     15.347    509.326    520.378    509.326    510.601    509.326
 78.770    550.000    521.612     28.388    509.343    520.361    509.343    510.593    509.343
 78.870    534.565    521.636     12.930    509.359    520.408    509.359    510.586    509.359
 78.970    560.000    521.828     38.172    509.373    520.621    509.373    510.580    509.373
 79.070    533.000    522.177     10.823    509.386    520.987    509.386    510.575    509.386
 79.170    534.000    522.705     11.295    509.399    521.531    509.399    510.572    509.399
 79.270    524.184    523.446      0.738    509.409    522.283    509.409    510.571    509.409
 79.370    555.714    524.431     31.283    509.419    523.274    509.419    510.574    509.419
 79.470    530.000    525.691      4.309    509.427    524.535    509.427    510.580    509.427
 79.570    505.394    527.258    -21.865    509.434    526.097    509.434    510.593    509.434
 79.670    544.000    529.176     14.824    509.440    528.000    509.440    510.612    509.440
 79.770    503.000    531.507    -28.507    509.445    530.308    509.445    510.640    509.445
 79.870    539.000    534.354      4.646    509.449    533.121    509.449    510.677    509.449
 79.970    483.000    537.877    -54.877    509.451    536.598    509.451    510.724    509.451
 80.070    553.000    542.313     10.687    509.452    540.979    509.452    510.781    509.452
 80.170    522.408    548.000    -25.591    509.451    546.600    509.451    510.847    509.451
 80.270    538.000    555.362    -17.362    509.450    553.891    509.450    510.919    509.450
 80.370    585.015    564.869     20.147    509.447    563.322    509.447    510.993    509.447
 80.470    561.787    576.928    -15.141    509.443    575.309    509.443    511.064    509.443
 80.570    586.127    591.771     -5.645    509.438    590.091    509.438    511.124    509.438
 80.670    628.766    609.344     19.421    509.431    607.621    509.431    511.164    509.431
 80.770    610.000    629.222    -19.222    509.423    627.483    509.423    511.178    509.423
 80.870    662.000    650.577     11.423    509.414    648.852    509.414    511.159    509.414
 80.970    633.954    672.220    -38.266    509.404    670.541    509.404    511.109    509.404
 81.070    697.000    692.751      4.249    509.392    691.144    509.392    511.032    509.392
 81.170    667.200    710.787    -43.587    509.379    709.271    509.379    510.935    509.379
 81.270    764.000    725.151     38.849    509.364    723.736    509.364    510.826    509.364
 81.370    682.838    734.961    -52.123    509.349    733.648    509.349    510.714    509.349
 81.470    750.000    739.689     10.311    509.332    738.475    509.332    510.604    509.332
 81.570    804.000    739.210     64.790    509.313    738.086    509.313    510.500    509.313
 81.670    709.527    733.770    -24.243    509.294    732.726    509.294    510.404    509.294
 81.770    742.196    723.906     18.290    509.273    722.929    509.273    510.317    509.273
 81.870    703.000    710.424     -7.424    509.250    709.503    509.250    510.240    509.250
 81.970    687.912    694.397     -6.485    509.227    693.519    509.227    510.172    509.227
 82.070    684.000    677.019      6.981    509.202    676.174    509.202    510.111    509.202
 82.170    645.238    659.357    -14.119    509.175    658.537    509.175    510.057    509.175
 82.270    686.325    642.159     44.166    509.148    641.358    509.148    510.008    509.148
 82.370    626.948    625.832      1.116    509.119    625.043    509.119    509.962    509.119
 82.470    597.000    610.560    -13.560    509.088    609.781    509.088    509.918    509.088
 82.570    600.591    596.473      4.118    509.057    595.698    509.057    509.876    509.057
 82.670    569.000    583.736    -14.736    509.024    582.964    509.024    509.834    509.024
 82.770    559.000    572.555    -13.555    508.989    571.783    508.989    509.793    508.989
 82.870    551.000    563.130    -12.130    508.954    562.358    508.954    509.751    508.954
 82.970    553.650    555.627     -1.977    508.916    554.852    508.916    509.709    508.916
 83.070    515.000    550.154    -35.154    508.878    549.377    508.878    509.666    508.878
 83.170    592.061    546.760     45.302    508.838    545.979    508.838    509.623    508.838
 83.270    562.000    545.414     16.586    508.797    544.628    508.797    509.578    508.797
 83.370    567.000    545.993     21.007    508.754    545.203    508.754    509.533    508.754
 83.470    541.749    548.266     -6.517    508.710    547.471    508.710    509.486    508.710
 83.570    537.000    551.882    -14.882    508.665    551.082    508.665    509.439    508.665
 83.670    528.000    556.373    -28.373    508.618    555.568    508.618    509.391    508.618
 83.770    565.000    561.170      3.830    508.570    560.360    508.570    509.342    508.570
 83.870    571.000    565.628      5.372    508.520    564.814    508.520    509.291    508.520
 83.970    602.886    569.084     33.802    508.469    568.268    508.469    509.240    508.469
 84.070    601.735    570.952     30.783    508.417    570.135    508.417    509.187    508.417
 84.170    536.064    570.852    -34.789    508.363    570.037    508.363    509.134    508.363
 84.270    563.000    568.720     -5.720    508.308    567.907    508.308    509.079    508.308
 84.370    554.000    564.811    -10.811    508.252    564.002    508.252    509.023    508.252
 84.470    575.000    559.606     15.394    508.194    558.801    508.194    508.966    508.194
 84.570    581.000    553.667     27.333    508.135    552.866    508.135    508.908    508.135
 84.670    546.000    547.530     -1.530    508.074    546.732    508.074    508.849    508.074
 84.770    546.000    541.637      4.363    508.012    540.843    508.012    508.789    508.012
 84.870    530.511    536.314     -5.803    507.948    535.521    507.948    508.728    507.948
 84.970    550.085    531.756     18.328    507.883    530.964    507.883    508.665    507.883
 85.070    546.000    528.044     17.956    507.817    527.252    507.817    508.601    507.817
 85.170    525.000    525.164     -0.164    507.749    524.370    507.749    508.537    507.749
 85.270    530.000    523.037      6.963    507.680    522.241    507.680    508.471    507.680
 85.370    531.000    521.554      9.446    507.610    520.756    507.610    508.404    507.610
 85.470    536.261    520.598     15.663    507.538    519.796    507.538    508.336    507.538
 85.570    524.000    520.067      3.933    507.465    519.261    507.465    508.267    507.465
 85.670    539.337    519.888     19.449    507.390    519.077    507.390    508.196    507.390
 85.770    525.000    520.021      4.979    507.314    519.205    507.314    508.125    507.314
 85.870    537.000    520.470     16.530    507.236    519.648    507.236    508.052    507.236
 85.970    521.000    521.277     -0.277    507.157    520.449    507.157    507.979    507.157
 86.070    528.284    522.530      5.754    507.077    521.694    507.077    507.904    507.077
 86.170    484.531    524.356    -39.825    506.995    523.511    506.995    507.828    506.995
 86.270    557.000    526.919     30.081    506.912    526.064    506.912    507.751    506.912
 86.370    517.000    530.407    -13.407    506.827    529.542    506.827    507.673    506.827
 86.470    576.000    535.016     40.984    506.741    534.137    506.741    507.594    506.741
 86.570    568.472    540.916     27.556    506.654    540.022    506.654    507.514    506.654
 86.670    554.000    548.220      5.780    506.565    547.310    506.565    507.433    506.565
 86.770    610.000    556.941     53.059    506.475    556.012    506.475    507.351    506.475
 86.870    582.000    566.949     15.051    506.383    566.000    506.383    507.268    506.383
 86.970    580.124    577.942      2.182    506.290    576.971    506.290    507.184    506.290
 87.070    559.000    589.424    -30.424    506.195    588.432    506.195    507.099    506.195
 87.170    605.000    600.702      4.298    506.099    599.688    506.099    507.013    506.099
 87.270    593.000    610.971    -17.971    506.002    609.938    506.002    506.926    506.002
 87.370    632.000    619.292     12.708    505.903    618.244    505.903    506.837    505.903
 87.470    607.000    624.795    -17.795    505.803    623.733    505.803    506.748    505.803
 87.570    635.997    626.856      9.141    505.702    625.784    505.702    506.659    505.702
 87.670    636.000    625.281     10.719    505.599    624.203    505.599    506.569    505.599
 87.770    651.413    620.374     31.039    505.495    619.292    505.495    506.478    505.495
 87.870    612.000    612.829     -0.829    505.389    611.746    505.389    506.386    505.389
 87.970    653.711    603.560     50.150    505.282    602.475    505.282    506.294    505.282
 88.070    652.000    593.536     58.464    505.173    592.450    505.173    506.201    505.173
 88.170    603.000    583.678     19.322    505.064    582.589    505.064    506.108    505.064
 88.270    583.000    574.790      8.210    504.952    573.696    504.952    506.014    504.952
 88.370    609.855    567.511     42.344    504.840    566.410    504.840    505.919    504.840
 88.470    557.000    562.290     -5.290    504.726    561.179    504.726    505.824    504.726
 88.570    606.838    559.372     47.465    504.610    558.251    504.610    505.729    504.610
 88.670    568.238    558.805      9.433    504.494    557.671    504.494    505.633    504.494
 88.770    603.920    560.446     43.474    504.375    559.297    504.375    505.538    504.375
 88.870    565.326    563.980      1.346    504.256    562.815    504.256    505.442    504.256
 88.970    571.000    568.944      2.056    504.135    567.762    504.135    505.346    504.135
 89.070    641.000    574.749     66.251    504.013    573.548    504.013    505.250    504.013
 89.170    599.324    580.712     18.612    503.889    579.490    503.889    505.154    503.889
 89.270    610.663    586.095     24.568    503.764    584.851    503.764    505.059    503.764
 89.370    574.211    590.174    -15.963    503.638    588.904    503.638    504.964    503.638
 89.470    625.000    592.332     32.668    503.510    591.032    503.510    504.870    503.510
 89.570    589.000    592.182     -3.182    503.381    590.849    503.381    504.777    503.381
 89.670    547.000    589.656    -42.656    503.251    588.285    503.251    504.684    503.251
 89.770    541.582    585.007    -43.425    503.119    583.593    503.119    504.593    503.119
 89.870    606.468    578.722     27.747    502.986    577.260    502.986    504.504    502.986
 89.970    572.583    571.391      1.192    502.852    569.877    502.852    504.416    502.852
 90.070    550.818    563.603    -12.785    502.716    562.033    502.716    504.330    502.716
 90.170    594.359    555.877     38.482    502.579    554.246    502.579    504.247    502.579
 90.270    525.000    548.626    -23.626    502.441    546.931    502.441    504.167    502.441
 90.370    546.000    542.143      3.857    502.301    540.378    502.301    504.090    502.301
 90.470    520.000    536.598    -16.598    502.160    534.759    502.160    504.018    502.160
 90.570    573.787    532.056     41.731    502.018    530.138    502.018    503.950    502.018
 90.670    502.000    528.494    -26.494    501.874    526.491    501.874    503.888    501.874
 90.770    519.000    525.831     -6.831    501.729    523.734    501.729    503.833    501.729
 90.870    490.540    523.951    -33.411    501.583    521.751    501.583    503.788    501.583
 90.970    559.000    522.732     36.268    501.436    520.416    501.436    503.754    501.436
 91.070    490.000    522.061    -32.061    501.287    519.614    501.287    503.735    501.287
 91.170    528.790    521.838      6.952    501.137    519.238    501.137    503.737    501.137
 91.270    533.971    522.001     11.970    500.985    519.220    500.985    503.766    500.985
 91.370    485.933    522.610    -36.678    500.833    519.611    500.833    503.831    500.833
 91.470    492.000    523.663    -31.663    500.679    520.396    500.679    503.944    500.679
 91.570    550.643    525.243     25.400    500.524    521.637    500.524    504.126    500.524
 91.670    540.000    527.479     12.521    500.368    523.443    500.368    504.398    500.368
 91.770    515.000    530.547    -15.547    500.210    525.964    500.210    504.786    500.210
 91.870    499.000    534.668    -35.668    500.051    529.386    500.051    505.324    500.051
 91.970    480.000    540.092    -60.092    499.891    533.922    499.891    506.048    499.891
 92.070    509.000    547.083    -38.083    499.730    539.795    499.730    507.002    499.730
 92.170    523.000    555.910    -32.910    499.568    547.229    499.568    508.227    499.568
 92.270    553.522    566.796    -13.274    499.404    556.407    499.404    509.766    499.404
 92.370    513.000    579.899    -66.899    499.239    567.451    499.239    511.654    499.239
 92.470    596.642    595.279      1.363    499.073    580.395    499.073    513.917    499.073
 92.570    642.996    612.862     30.133    498.906    595.159    498.906    516.562    498.906
 92.670    631.000    632.423     -1.423    498.737    611.530    498.737    519.576    498.737
 92.770    642.818    653.566    -10.747    498.568    629.153    498.568    522.919    498.568
 92.870    701.991    675.719     26.272    498.397    647.530    498.397    526.518    498.397
 92.970    676.000    698.158    -22.158    498.225    666.043    498.225    530.267    498.225
 93.070    684.254    720.055    -35.801    498.052    684.010    498.052    534.019    498.052
 93.170    676.000    740.582    -64.582    497.878    700.789    497.878    537.590    497.878
 93.270    697.000    759.044    -62.044    497.702    715.906    497.702    540.759    497.702
 93.370    807.000    774.997     32.003    497.526    729.157    497.526    543.286    497.526
 93.470    746.000    788.329    -42.329    497.348    740.660    497.348    544.938    497.348
 93.570    816.000    799.176     16.824    497.169    750.731    497.169    545.537    497.169
 93.670    847.032    807.874     39.158    496.990    759.786    496.990    545.003    496.990
 93.770    831.000    814.890     16.110    496.809    768.249    496.809    543.378    496.809
 93.870    782.649    820.777    -38.128    496.627    776.525    496.627    540.810    496.627
 93.970    857.010    826.168     30.842    496.444    785.027    496.444    537.519    496.444
 94.070    893.000    831.754     61.246    496.260    794.203    496.260    533.746    496.260
 94.170    838.000    838.194     -0.194    496.074    804.486    496.074    529.721    496.074
 94.270    832.500    845.969    -13.468    495.888    816.156    495.888    525.642    495.888
 94.370    872.000    855.200     16.800    495.701    829.177    495.701    521.667    495.701
 94.470    901.049    865.533     35.516    495.513    843.075    495.513    517.917    495.513
 94.570    932.757    876.105     56.652    495.323    856.903    495.323    514.475    495.323
 94.670    919.000    885.603     33.397    495.133    869.299    495.133    511.393    495.133
 94.770    925.080    892.410     32.671    494.942    878.621    494.942    508.692    494.942
 94.870    907.000    894.840     12.160    494.750    883.188    494.750    506.372    494.750
 94.970    920.000    891.472     28.528    494.556    881.596    494.556    504.412    494.556
 95.070    892.448    881.492     10.957    494.362    873.062    494.362    502.780    494.362
 95.170    917.000    864.923     52.077    494.167    857.651    494.167    501.436    494.167
 95.270    858.000    842.636     15.364    493.971    836.274    493.971    500.338    493.971
 95.370    800.000    816.142    -16.142    493.774    810.484    493.774    499.442    493.774
 95.470    773.000    787.319    -14.319    493.576    782.198    493.576    498.710    493.576
 95.570    814.000    758.159     55.841    493.377    753.444    493.377    498.107    493.377
 95.670    739.000    730.602      8.398    493.177    726.189    493.177    497.604    493.177
 95.770    735.158    706.448     28.709    492.976    702.258    492.976    497.178    492.976
 95.870    685.000    687.327     -2.327    492.775    683.299    492.775    496.810    492.775
 95.970    647.000    674.615    -27.615    492.572    670.702    492.572    496.486    492.572
 96.070    698.000    669.490     28.510    492.369    665.658    492.369    496.196    492.369
 96.170    634.151    672.941    -38.789    492.165    669.159    492.165    495.932    492.165
 96.270    644.163    685.767    -41.605    491.960    682.014    491.960    495.688    491.960
 96.370    700.000    708.581     -8.581    491.754    704.838    491.754    495.462    491.754
 96.470    733.000    741.762     -8.762    491.548    738.013    491.548    495.249    491.548
 96.570    790.000    785.390      4.610    491.340    781.621    491.340    495.050    491.340
 96.670    886.126    839.137     46.989    491.132    835.336    491.132    494.862    491.132
 96.770    861.000    902.160    -41.160    490.923    898.315    490.923    494.685    490.923
 96.870    964.000    972.999     -8.999    490.713    969.100    490.713    494.519    490.713
 96.970   1016.840   1049.497    -32.657    490.503   1045.536    490.503    494.363    490.503
 97.070   1124.000   1128.768     -4.768    490.292   1124.736    490.292    494.217    490.292
 97.170   1171.000   1207.236    -36.236    490.080   1203.126    490.080    494.082    490.080
 97.270   1281.000   1280.739      0.261    489.868   1276.544    489.868    493.958    489.868
 97.370   1288.000   1344.761    -56.761    489.654   1340.474    489.654    493.845    489.654
 97.470   1428.000   1394.833     33.167    489.440   1390.447    489.440    493.744    489.440
 97.570   1352.000   1427.129    -75.129    489.226   1422.635    489.226    493.656    489.226
 97.670   1384.092   1439.137    -55.045    489.011   1434.523    489.011    493.582    489.011
 97.770   1413.000   1430.176    -17.176    488.795   1425.427    488.795    493.524    488.795
 97.870   1420.000   1401.494     18.506    488.578   1396.592    488.578    493.482    488.578
 97.970   1393.811   1355.927     37.884    488.361   1350.850    488.361    493.459    488.361
 98.070   1364.000   1297.313     66.687    488.144   1292.034    488.144    493.459    488.144
 98.170   1296.000   1229.924     66.076    487.925   1224.413    487.925    493.484    487.925
 98.270   1133.169   1158.044    -24.874    487.707   1152.263    487.707    493.541    487.707
 98.370   1145.559   1085.684     59.876    487.487   1079.592    487.487    493.636    487.487
 98.470   1080.539   1016.411     64.128    487.268   1009.954    487.268    493.779    487.268
 98.570    980.000    953.251     26.749    487.047    946.363    487.047    493.985    487.047
 98.670    898.000    898.667     -0.667    486.826    891.265    486.826    494.271    486.826
 98.770    841.207    854.588    -13.381    486.605    846.565    486.605    494.663    486.605
 98.870    822.000    822.472     -0.472    486.383    813.688    486.383    495.192    486.383
 98.970    777.000    803.384    -26.384    486.161    793.658    486.161    495.902    486.161
 99.070    836.000    798.082     37.918    485.938    787.179    485.938    496.847    485.938
 99.170    757.700    807.080    -49.379    485.715    794.698    485.715    498.094    485.715
 99.270    804.000    830.683    -26.683    485.492    816.440    485.492    499.723    485.492
 99.370    907.000    869.041     37.959    485.268    852.461    485.268    501.830    485.268
 99.470    893.029    922.017    -28.989    485.044    902.516    485.044    504.522    485.044
 99.570   1013.000    989.178     23.822    484.819    966.054    484.819    507.917    484.819
 99.670   1089.000   1069.688     19.312    484.594   1042.118    484.594    512.138    484.594
 99.770   1181.000   1162.211     18.789    484.369   1129.252    484.369    517.305    484.369
 99.870   1246.316   1264.816    -18.500    484.144   1225.417    484.144    523.527    484.144
 99.970   1279.000   1374.912    -95.912    483.918   1327.934    483.918    530.891    483.918
100.070   1531.000   1489.228     41.772    483.692   1433.480    483.692    539.448    483.692
100.170   1630.000   1603.873     26.127    483.466   1538.162    483.466    549.204    483.466
100.270   1735.858   1714.528     21.330    483.239   1637.712    483.239    560.104    483.239
100.370   1926.000   1816.769    109.231    483.013   1727.833    483.013    572.022    483.013
100.470   1879.199   1906.489    -27.291    482.786   1804.621    482.786    584.752    482.786
100.570   1982.543   1980.265      2.278    482.559   1864.943    482.559    598.003    482.559
100.670   2014.000   2035.523    -21.523    482.331   1906.609    482.331    611.391    482.331
100.770   2061.000   2070.483     -9.483    482.104   1928.312    482.104    624.441    482.104
100.870   2088.000   2084.021      3.979    481.877   1929.488    481.877    636.592    481.877
100.970   2098.000   2075.654     22.346    481.649   1910.281    481.649    647.217    481.649
101.070   2101.000   2045.740     55.260    481.422   1871.698    481.422    655.667    481.422
101.170   1992.001   1995.777     -3.776    481.194   1815.835    481.194    661.343    481.194
101.270   1958.000   1928.572     29.428    480.966   1745.951    480.966    663.792    480.966
101.370   1865.000   1848.106     16.894    480.739   1666.248    480.739    662.798    480.739
101.470   1682.000   1759.113    -77.113    480.511   1581.392    480.511    658.423    480.511
101.570   1588.279   1666.513    -78.234    480.283   1495.973    480.283    651.003    480.283
101.670   1661.000   1574.890     86.110    480.056   1414.044    480.056    641.067    480.056
101.770   1478.000   1488.110    -10.110    479.828   1338.843    479.828    629.245    479.828
101.870   1343.000   1409.096    -66.096    479.601   1272.648    479.601    616.185    479.601
101.970   1319.000   1339.733    -20.733    479.374   1216.743    479.374    602.485    479.374
102.070   1311.618   1280.862     30.756    479.147   1171.447    479.147    588.670    479.147
102.170   1277.000   1232.346     44.654    478.920   1136.188    478.920    575.175    478.920
102.270   1207.000   1193.177     13.823    478.693   1109.617    478.693    562.343    478.693
102.370   1164.834   1161.635      3.199    478.466   1089.761    478.466    550.424    478.466
102.470   1060.000   1135.477    -75.477    478.240   1074.209    478.240    539.589    478.240
102.570   1109.000   1112.196     -3.196    478.014   1060.359    478.014    529.931    478.014
102.670   1038.000   1089.321    -51.321    477.788   1045.714    477.788    521.475    477.788
102.770   1061.000   1064.749     -3.749    477.562   1028.197    477.562    514.196    477.562
102.870   1042.000   1037.025      4.975    477.337   1006.421    477.337    508.023    477.337
102.970    985.905   1005.479    -19.574    477.112    979.814    477.112    502.859    477.112
103.070    964.000    970.189     -6.189    476.887    948.569    476.887    498.589    476.887
103.170    980.667    931.807     48.860    476.663    913.458    476.663    495.090    476.663
103.270    922.261    891.331     30.930    476.439    875.604    476.439    492.241    476.439
103.370    865.000    849.913     15.087    476.216    836.269    476.216    489.929    476.216
103.470    818.000    808.710      9.290    475.993    796.716    475.993    488.051    475.993
103.570    801.000    768.791     32.209    475.770    758.100    475.770    486.519    475.770
103.670    743.000    731.067     11.933    475.548    721.409    475.548    485.258    475.548
103.770    732.000    696.256     35.744    475.327    687.421    475.327    484.206    475.327
103.870    693.000    664.857     28.143    475.106    656.685    475.106    483.316    475.106
103.970    622.000    637.158    -15.158    474.885    629.526    474.885    482.549    474.885
104.070    607.000    613.232     -6.232    474.666    606.050    474.666    481.874    474.666
104.170    583.779    592.983     -9.204    474.447    586.181    474.447    481.270    474.447
104.270    596.000    576.197     19.803    474.228    569.716    474.228    480.725    474.228
104.370    599.447    562.542     36.905    474.010    556.339    474.010    480.226    474.010
104.470    591.647    551.640     40.006    473.793    545.681    473.793    479.762    473.793
104.570    531.000    543.102    -12.102    473.577    537.358    473.577    479.328    473.577
104.670    587.000    536.546     50.454    473.361    530.994    473.361    478.918    473.361
104.770    535.000    531.629      3.371    473.146    526.249    473.146    478.529    473.146
104.870    500.000    528.049    -28.049    472.932    522.828    472.932    478.155    472.932
104.970    506.000    525.564    -19.564    472.719    520.490    472.719    477.793    472.719
105.070    540.000    524.000     16.000    472.506    519.051    472.506    477.454    472.506
105.170    561.000    523.220     37.780    472.295    518.383    472.295    477.129    472.295
105.270    521.339    523.142     -1.804    472.084    518.406    472.084    476.817    472.084
105.370    501.339    523.737    -22.397    471.875    519.089    471.875    476.516    471.875
105.470    508.303    525.010    -16.707    471.666    520.443    471.666    476.227    471.666
105.570    539.000    527.008     11.992    471.458    522.510    471.458    475.947    471.458
105.670    545.000    529.801     15.199    471.251    525.365    471.251    475.677    471.251
105.770    539.000    533.481      5.519    471.046    529.098    471.046    475.416    471.046
105.870    570.000    538.149     31.851    470.841    533.812    470.841    475.164    470.841
105.970    515.401    543.902    -28.501    470.637    539.602    470.637    474.920    470.637
106.070    545.920    550.817     -4.897    470.435    546.548    470.435    474.684    470.435
106.170    599.000    558.937     40.063    470.234    554.692    470.234    474.455    470.234
106.270    609.615    568.260     41.355    470.034    564.032    470.034    474.234    470.034
106.370    592.000    578.720     13.280    469.835    574.504    469.835    474.020    469.835
106.470    616.230    590.188     26.042    469.637    585.978    469.637    473.813    469.637
106.570    577.000    602.463    -25.463    469.441    598.253    469.441    473.612    469.441
106.670    602.000    615.273    -13.273    469.246    611.059    469.246    473.419    469.246
106.770    656.714    628.281     28.433    469.052    624.057    469.052    473.232    469.052
106.870    625.000    641.094    -16.094    468.860    636.857    468.860    473.051    468.860
106.970    675.000    653.283     21.717    468.669    649.026    468.669    472.877    468.669
107.070    652.000    664.400    -12.400    468.479    660.121    468.479    472.710    468.479
107.170    651.000    674.022    -23.022    468.291    669.716    468.291    472.549    468.291
107.270    626.000    681.794    -55.794    468.104    677.458    468.104    472.394    468.104
107.370    643.819    687.484    -43.665    467.919    683.113    467.919    472.246    467.919
107.470    629.000    691.029    -62.029    467.736    686.619    467.736    472.105    467.736
107.570    654.000    692.554    -38.554    467.554    688.101    467.554    471.970    467.554
107.670    673.014    692.356    -19.341    467.373    687.855    467.373    471.842    467.373
107.770    726.000    690.856     35.144    467.195    686.302    467.195    471.721    467.195
107.870    669.000    688.535    -19.535    467.018    683.923    467.018    471.607    467.018
107.970    694.533    685.870      8.663    466.842    681.194    466.842    471.500    466.842
108.070    715.639    683.283     32.356    466.669    678.537    466.669    471.401    466.669
108.170    665.068    681.107    -16.039    466.497    676.285    466.497    471.309    466.497
108.270    619.000    679.562    -60.562    466.327    674.658    466.327    471.225    466.327
108.370    663.000    678.741    -15.741    466.158    673.748    466.158    471.149    466.158
108.470    705.000    678.610     26.390    465.992    673.521    465.992    471.082    465.992
108.570    676.387    679.007     -2.620    465.827    673.816    465.827    471.024    465.827
108.670    659.710    679.662    -19.953    465.665    674.361    465.665    470.974    465.665
108.770    718.301    680.215     38.085    465.504    674.796    465.504    470.934    465.504
108.870    652.000    680.256    -28.256    465.346    674.711    465.346    470.904    465.346
108.970    673.640    679.369     -5.729    465.189    673.689    465.189    470.884    465.189
109.070    679.000    677.190      1.810    465.034    671.367    465.034    470.875    465.034
109.170    647.224    673.459    -26.235    464.882    667.484    464.882    470.877    464.882
109.270    623.000    668.057    -45.057    464.732    661.919    464.732    470.892    464.732
109.370    692.000    661.016     30.984    464.584    654.703    464.584    470.918    464.584
109.470    618.000    652.501    -34.501    464.438    646.002    464.438    470.959    464.438
109.570    682.000    642.773     39.227    464.294    636.076    464.294    471.013    464.294
109.670    632.000    632.124     -0.124    464.152    625.216    464.152    471.082    464.152
109.770    656.490    620.969     35.522    464.013    613.835    464.013    471.167    464.013
109.870    579.793    609.628    -29.835    463.877    602.254    463.877    471.269    463.877
109.970    584.000    598.411    -14.411    463.742    590.781    463.742    471.389    463.742
110.070    611.000    587.601     23.399    463.610    579.697    463.610    471.529    463.610
110.170    592.000    577.434     14.566    463.481    569.238    463.481    471.690    463.481
110.270    560.000    568.099     -8.099    463.354    559.590    463.354    471.875    463.354
110.370    594.000    559.733     34.267    463.229    550.888    463.229    472.084    463.229
110.470    572.773    552.422     20.351    463.107    543.215    463.107    472.323    463.107
110.570    562.000    546.206     15.794    462.988    536.608    462.988    472.593    462.988
110.670    561.000    541.085     19.915    462.871    531.061    462.871    472.899    462.871
110.770    533.000    537.024     -4.024    462.757    526.537    462.757    473.247    462.757
110.870    539.897    533.966      5.931    462.646    522.968    462.646    473.645    462.646
110.970    550.000    531.834     18.166    462.537    520.271    462.537    474.100    462.537
111.070    537.000    530.545      6.455    462.432    518.352    462.432    474.624    462.432
111.170    588.000    530.015     57.985    462.329    517.109    462.329    475.232    462.329
111.270    507.011    530.164    -23.153    462.229    516.446    462.229    475.944    462.229
111.370    502.635    530.922    -28.287    462.131    516.269    462.131    476.781    462.131
111.470    490.587    532.233    -41.645    462.037    516.491    462.037    477.774    462.037
111.570    539.000    534.055      4.945    461.946    517.037    461.946    478.958    461.946
111.670    536.000    536.368     -0.368    461.858    517.840    461.858    480.379    461.858
111.770    503.000    539.170    -36.170    461.773    518.846    461.773    482.090    461.773
111.870    509.222    542.482    -33.260    461.690    520.009    461.690    484.155    461.690
111.970    590.000    546.345     43.655    461.612    521.298    461.612    486.651    461.612
112.070    506.919    550.826    -43.907    461.536    522.690    461.536    489.663    461.536
112.170    545.000    556.014    -11.014    461.463    524.176    461.463    493.293    461.463
112.270    536.512    562.021    -25.508    461.394    525.757    461.394    497.649    461.394
112.370    554.184    568.978    -14.794    461.328    527.444    461.328    502.854    461.328
112.470    527.000    577.034    -50.034    461.266    529.257    461.266    509.034    461.266
112.570    561.830    586.350    -24.521    461.206    531.224    461.206    516.324    461.206
112.670    585.201    597.096    -11.895    461.151    533.382    461.151    524.855    461.151
112.770    552.000    609.444    -57.444    461.098    535.778    461.098    534.754    461.098
112.870    613.000    623.566    -10.566    461.050    538.469    461.050    546.137    461.050
112.970    597.792    639.632    -41.840    461.004    541.529    461.004    559.098    461.004
113.070    636.000    657.802    -21.802    460.963    545.051    460.963    573.703    460.963
113.170    703.000    678.229     24.771    460.925    549.158    460.925    589.984    460.925
113.270    740.000    701.060     38.940    460.890    554.011    460.890    607.927    460.890
113.370    673.873    726.440    -52.567    460.860    559.822    460.860    627.465    460.860
113.470    731.917    754.523    -22.606    460.833    566.868    460.833    648.473    460.833
113.570    807.914    785.482     22.432    460.810    575.516    460.810    670.759    460.810
113.670    888.000    819.530     68.470    460.791    586.238    460.791    694.063    460.791
113.770    868.194    856.940     11.254    460.776    599.642    460.776    718.049    460.776
113.870    858.182    898.071    -39.889    460.764    616.498    460.764    742.308    460.764
113.970    945.181    943.401      1.780    460.757    637.770    460.757    766.353    460.757
114.070    931.004    993.555    -62.551    460.754    664.641    460.754    789.625    460.754
114.170   1035.000   1049.339    -14.339    460.755    698.541    460.755    811.499    460.755
114.270   1164.000   1111.775     52.225    460.760    741.165    460.760    831.304    460.760
114.370   1193.000   1182.140     10.860    460.769    794.482    460.769    848.345    460.769
114.470   1247.000   1262.001    -15.001    460.782    860.730    460.782    861.952    460.782
114.570   1380.792   1353.245     27.547    460.800    942.387    460.800    871.535    460.800
114.670   1504.000   1458.093     45.907    460.821   1042.122    460.821    876.642    460.821
114.770   1631.000   1579.075     51.925    460.848   1162.718    460.848    877.024    460.848
114.870   1733.784   1718.961     14.823    460.878   1306.961    460.878    872.662    460.878
114.970   1938.000   1880.621     57.379    460.913   1477.505    460.913    863.773    460.913
115.070   2179.000   2066.830    112.170    460.953   1676.703    460.953    850.781    460.953
115.170   2281.242   2280.024      1.218    460.997   1906.416    460.997    834.259    460.997
115.270   2562.257   2522.031     40.226    461.046   2167.811    461.046    814.872    461.046
115.370   2865.000   2793.807     71.193    461.099   2461.154    461.099    793.312    461.099
115.470   3055.000   3095.197    -40.197    461.157   2785.611    461.157    770.257    461.157
115.570   3478.980   3424.729     54.251    461.220   3139.079    461.220    746.339    461.220
115.670   3793.000   3779.466     13.534    461.288   3518.056    461.288    722.130    461.288
115.770   4128.000   4154.922    -26.922    461.360   3917.560    461.360    698.126    461.360
115.870   4400.000   4545.036   -145.036    461.437   4331.109    461.437    674.750    461.437
115.970   4883.000   4942.224    -59.224    461.520   4750.776    461.520    652.346    461.520
116.070   5238.000   5337.503    -99.503    461.607   5167.308    461.607    631.188    461.607
116.170   5800.223   5720.691     79.532    461.699   5570.324    461.699    611.477    461.699
116.270   6051.000   6080.700    -29.700    461.796   5948.601    461.796    593.348    461.796
116.370   6244.000   6405.932   -161.932    461.899   6290.467    461.899    576.875    461.899
116.470   6844.000   6684.807    159.193    462.006   6584.319    462.006    562.081    462.006
116.570   6878.740   6906.439    -27.699    462.119   6819.296    462.119    548.940    462.119
116.670   7079.000   7061.430     17.570    462.237   6986.058    462.237    537.391    462.237
116.770   7080.652   7142.770    -62.118    462.361   7077.682    462.361    527.342    462.361
116.870   7222.000   7146.536     75.464    462.489   7090.353    462.489    518.683    462.489
116.970   7135.000   7072.324     62.676    462.624   7023.785    462.624    511.286    462.624
117.070   6815.089   6923.317   -108.228    462.763   6881.289    462.763    505.020    462.763
117.170   6640.000   6705.880    -65.880    462.909   6669.360    462.909    499.752    462.909
117.270   6360.000   6428.856    -68.856    463.059   6396.964    463.059    495.353    463.059
117.370   6209.619   6102.720    106.900    463.216   6074.698    463.216    491.701    463.216
117.470   5536.000   5738.776   -202.776    463.378   5713.978    463.378    488.684    463.378
117.570   5250.265   5348.472    -98.207    463.546   5326.352    463.546    486.201    463.546
117.670   4890.000   4942.856    -52.856    463.720   4922.959    463.720    484.163    463.720
117.770   4632.000   4532.181     99.819    463.899   4514.130    463.899    482.492    463.899
117.870   4259.074   4125.604    133.471    464.085   4109.090    464.085    481.123    464.085
117.970   3823.227   3730.987     92.239    464.276   3715.760    464.276    480.001    464.276
118.070   3494.000   3354.776    139.224    464.474   3340.631    464.474    479.080    464.474
118.170   3151.000   3001.949    149.051    464.677   2988.724    464.677    478.322    464.677
118.270   2702.004   2676.049     25.955    464.887   2663.613    464.887    477.698    464.887
118.370   2427.000   2379.264     47.736    465.102   2367.512    465.102    477.183    465.102
118.470   2077.114   2112.568    -35.454    465.324   2101.417    465.324    476.758    465.324
118.570   1916.000   1875.890     40.110    465.553   1865.273    465.553    476.408    465.553
118.670   1599.000   1668.298    -69.298    465.787   1658.161    465.787    476.121    465.787
118.770   1411.000   1488.199    -77.199    466.028   1478.498    466.028    475.888    466.028
118.870   1296.823   1333.519    -36.696    466.276   1324.219    466.276    475.702    466.276
118.970   1161.676   1201.883    -40.207    466.530   1192.953    466.530    475.558    466.530
119.070   1071.000   1090.766    -19.766    466.791   1082.180    466.791    475.450    466.791
119.170    955.000    997.627    -42.627    467.058    989.363    467.058    475.375    467.058
119.270    902.000    920.011    -18.011    467.332    912.049    467.332    475.332    467.332
119.370    886.976    855.623     31.352    467.612    847.944    467.612    475.317    467.612
119.470    854.979    802.383     52.596    467.900    794.970    467.900    475.330    467.900
119.570    705.332    758.446    -53.115    468.194    751.283    468.194    475.368    468.194
119.670    703.000    722.217    -19.217    468.495    715.287    468.495    475.431    468.495
119.770    667.000    692.335    -25.335    468.803    685.624    468.803    475.518    468.803
119.870    648.000    667.668    -19.668    469.118    661.158    469.118    475.629    469.118
119.970    590.000    647.278    -57.278    469.440    640.955    469.440    475.764    469.440
120.070    633.945    630.404      3.540    469.770    624.253    469.770    475.922    469.770
120.170    573.162    616.434    -43.272    470.106    610.439    470.106    476.103    470.106
120.270    560.000    604.879    -44.879    470.450    599.023    470.450    476.308    470.450
120.370    599.000    595.351      3.649    470.801    589.617    470.801    476.538    470.801
120.470    577.000    587.545    -10.545    471.160    581.915    471.160    476.793    471.160
120.570    621.808    581.222     40.586    471.526    575.678    471.526    477.073    471.526
120.670    589.000    576.194     12.806    471.899    570.717    471.899    477.380    471.899
120.770    587.000    572.316     14.684    472.280    566.886    472.280    477.716    472.280
120.870    555.534    569.472    -13.938    472.669    564.067    472.669    478.080    472.669
120.970    558.000    567.574     -9.574    473.065    562.171    473.065    478.474    473.065
121.070    563.272    566.548     -3.277    473.470    561.125    473.470    478.900    473.470
121.170    576.000    566.337      9.663    473.881    560.868    473.881    479.359    473.881
121.270    608.980    566.888     42.092    474.301    561.348    474.301    479.851    474.301
121.370    533.000    568.156    -35.156    474.729    562.519    474.729    480.377    474.729
121.470    518.000    570.095    -52.095    475.165    564.334    475.165    480.938    475.165
121.570    588.000    572.657     15.343    475.608    566.745    475.608    481.534    475.608
121.670    570.632    575.790     -5.158    476.060    569.701    476.060    482.165    476.060
121.770    598.000    579.433     18.567    476.520    573.141    476.520    482.831    476.520
121.870    580.000    583.518     -3.518    476.989    576.999    476.989    483.527    476.989
121.970    581.000    587.971     -6.971    477.465    581.201    477.465    484.258    477.465
122.070    591.492    592.704     -1.212    477.950    585.662    477.950    485.018    477.950
122.170    604.181    597.621      6.560    478.444    590.288    478.444    485.805    478.444
122.270    582.250    602.614    -20.365    478.946    594.977    478.946    486.614    478.946
122.370    634.000    607.571     26.429    479.456    599.619    479.456    487.443    479.456
122.470    639.153    612.371     26.782    479.975    604.098    479.975    488.285    479.975
122.570    670.000    616.889     53.111    480.503    608.297    480.503    489.135    480.503
122.670    595.763    621.003    -25.240    481.040    612.098    481.040    489.988    481.040
122.770    663.210    624.594     38.616    481.585    615.390    481.585    490.834    481.585
122.870    613.654    627.556    -13.902    482.139    618.074    482.139    491.669    482.139
122.970    637.996    629.799      8.197    482.703    620.068    482.703    492.482    482.703
123.070    602.000    631.256    -29.256    483.275    621.314    483.275    493.268    483.275
123.170    646.000    631.889     14.111    483.856    621.779    483.856    494.017    483.856
123.270    624.000    631.687     -7.687    484.447    621.461    484.447    494.724    484.447
123.370    583.270    630.671    -47.401    485.047    620.385    485.047    495.383    485.047
123.470    654.739    628.883     25.856    485.656    618.598    485.656    495.990    485.656
123.570    627.000    626.386      0.614    486.274    616.166    486.274    496.543    486.274
123.670    662.000    623.261     38.739    486.902    613.166    486.902    497.044    486.902
123.770    625.133    619.596      5.537    487.539    609.685    487.539    497.494    487.539
123.870    625.000    615.484      9.516    488.186    605.813    488.186    497.899    488.186
123.970    632.126    611.021     21.105    488.843    601.639    488.843    498.264    488.843
124.070    623.000    606.303     16.697    489.509    597.250    489.509    498.598    489.509
124.170    642.715    601.419     41.297    490.185    592.730    490.185    498.907    490.185
124.270    570.951    596.452    -25.500    490.871    588.153    490.871    499.199    490.871
124.370    586.000    591.477     -5.477    491.567    583.587    491.567    499.483    491.567
124.470    581.000    586.560     -5.560    492.273    579.091    492.273    499.765    492.273
124.570    594.049    581.756     12.293    492.989    574.713    492.989    500.052    492.989
124.670    586.000    577.109      8.891    493.715    570.491    493.715    500.350    493.715
124.770    585.000    572.654     12.346    494.451    566.455    494.451    500.664    494.451
124.870    570.000    568.416      1.584    495.197    562.626    495.197    500.999    495.197
124.970    583.000    564.413     18.587    495.954    559.018    495.954    501.359    495.954
