neutron_powder_diffraction_0136
R_wp: 3.713
Temperature (K): 1067.433
Counts: 83685.00
Wavelength (Ã…): 2.52098
COMMENTS
Test file for demonstrating the .xyy file format in Reel1.0
END OF HEADER
   tth       Y_obs     Y_calc      Y_res    Background    Phase_1_Nuc    Phase_1_Mag    Phase_2_Nuc    Phase_2_Mag
  9.970    564.000    566.824     -2.824    566.049    566.768    566.049    566.104    566.049
 10.070    556.000    567.010    -11.010    566.172    566.954    566.172    566.228    566.172
 10.170    588.000    567.198     20.802    566.289    567.142    566.289    566.345    566.289
 10.270    528.040    567.391    -39.352    566.400    567.334    566.400    566.457    566.400
 10.370    634.000    567.591     66.409    566.505    567.534    566.505    566.562    566.505
 10.470    547.000    567.802    -20.802    566.604    567.745    566.604    566.661    566.604
 10.570    615.000    568.027     46.973    566.697    567.969    566.697    566.754    566.697
 10.670    544.000    568.272    -24.272    566.784    568.214    566.784    566.841    566.784
 10.770    560.000    568.543     -8.543    566.865    568.485    566.865    566.923    566.865
 10.870    577.000    568.851      8.149    566.941    568.792    566.941    566.998    566.941
 10.970    545.538    569.208    -23.669    567.010    569.148    567.010    567.068    567.010
 11.070    568.471    569.633     -1.162    567.074    569.574    567.074    567.133    567.074
 11.170    568.000    570.156     -2.156    567.133    570.096    567.133    567.191    567.133
 11.270    552.000    570.818    -18.818    567.185    570.757    567.185    567.244    567.185
 11.370    538.621    571.695    -33.074    567.233    571.634    567.233    567.291    567.233
 11.470    546.736    572.955    -26.219    567.274    572.893    567.274    567.333    567.274
 11.570    603.000    575.051     27.949    567.310    574.987    567.310    567.370    567.310
 11.670    620.000    579.199     40.801    567.341    579.133    567.341    567.401    567.341
 11.770    587.995    588.059     -0.064    567.367    587.988    567.367    567.427    567.367
 11.870    675.000    605.663     69.337    567.387    605.582    567.387    567.447    567.387
 11.970    627.000    634.876     -7.876    567.402    634.778    567.402    567.463    567.402
 12.070    716.742    671.803     44.939    567.412    671.685    567.412    567.473    567.412
 12.170    677.194    700.736    -23.542    567.417    700.601    567.417    567.478    567.417
 12.270    663.923    701.991    -38.068    567.417    701.855    567.417    567.478    567.417
 12.370    677.000    674.458      2.542    567.411    674.337    567.411    567.473    567.411
 12.470    606.367    637.351    -30.983    567.401    637.250    567.401    567.463    567.401
 12.570    580.315    607.300    -26.985    567.386    607.216    567.386    567.448    567.386
 12.670    564.000    588.927    -24.927    567.366    588.853    567.366    567.429    567.366
 12.770    595.000    579.611     15.389    567.341    579.541    567.341    567.404    567.341
 12.870    580.000    575.256      4.744    567.312    575.189    567.312    567.375    567.312
 12.970    590.000    573.081     16.919    567.277    573.014    567.277    567.341    567.277
 13.070    549.000    571.791    -22.791    567.239    571.725    567.239    567.302    567.239
 13.170    534.677    570.901    -36.224    567.195    570.835    567.195    567.259    567.195
 13.270    563.000    570.234     -7.234    567.147    570.168    567.147    567.211    567.147
 13.370    560.000    569.711     -9.711    567.094    569.646    567.094    567.159    567.094
 13.470    609.681    569.289     40.391    567.037    569.223    567.037    567.102    567.037
 13.570    551.000    568.939    -17.939    566.976    568.873    566.976    567.041    566.976
 13.670    547.000    568.641    -21.641    566.910    568.575    566.910    566.975    566.910
 13.770    583.000    568.384     14.616    566.840    568.317    566.840    566.906    566.840
 13.870    588.962    568.156     20.806    566.765    568.089    566.765    566.831    566.765
 13.970    553.000    567.948    -14.948    566.687    567.881    566.687    566.753    566.687
 14.070    594.503    567.755     26.748    566.604    567.688    566.604    566.671    566.604
 14.170    542.000    567.575    -25.575    566.517    567.507    566.517    566.584    566.517
 14.270    553.000    567.404    -14.404    566.426    567.336    566.426    566.493    566.426
 14.370    553.364    567.239    -13.875    566.331    567.171    566.331    566.399    566.331
 14.470    565.000    567.081     -2.081    566.232    567.012    566.232    566.300    566.232
 14.570    574.000    566.925      7.075    566.129    566.857    566.129    566.197    566.129
 14.670    570.000    566.773      3.227    566.022    566.704    566.022    566.091    566.022
 14.770    554.000    566.622    -12.622    565.911    566.552    565.911    565.980    565.911
 14.870    541.000    566.472    -25.472    565.796    566.402    565.796    565.866    565.796
 14.970    589.818    566.323     23.496    565.678    566.252    565.678    565.748    565.678
 15.070    603.000    566.173     36.827    565.556    566.102    565.556    565.627    565.556
 15.170    567.000    566.024      0.976    565.430    565.951    565.430    565.503    565.430
 15.270    529.000    565.873    -36.873    565.301    565.799    565.301    565.374    565.301
 15.370    586.378    565.720     20.657    565.168    565.646    565.168    565.242    565.168
 15.470    545.000    565.566    -20.566    565.032    565.492    565.032    565.106    565.032
 15.570    552.000    565.410    -13.410    564.892    565.335    564.892    564.966    564.892
 15.670    552.000    565.252    -13.252    564.748    565.177    564.748    564.823    564.748
 15.770    525.352    565.093    -39.740    564.602    565.017    564.602    564.677    564.602
 15.870    574.910    564.931      9.979    564.451    564.855    564.451    564.527    564.451
 15.970    576.000    564.767     11.233    564.298    564.691    564.298    564.374    564.298
 16.070    570.000    564.601      5.399    564.141    564.524    564.141    564.218    564.141
 16.170    562.000    564.433     -2.433    563.981    564.355    563.981    564.058    563.981
 16.270    581.000    564.262     16.738    563.818    564.184    563.818    563.896    563.818
 16.370    581.000    564.089     16.911    563.652    564.011    563.652    563.730    563.652
 16.470    566.000    563.916      2.084    563.482    563.837    563.482    563.561    563.482
 16.570    531.202    563.739    -32.538    563.310    563.660    563.310    563.389    563.310
 16.670    586.000    563.560     22.440    563.134    563.480    563.134    563.214    563.134
 16.770    559.000    563.377     -4.377    562.956    563.297    562.956    563.036    562.956
 16.870    565.000    563.193      1.807    562.774    563.112    562.774    562.855    562.774
 16.970    587.000    563.005     23.995    562.590    562.924    562.590    562.671    562.590
 17.070    539.935    562.816    -22.881    562.403    562.734    562.403    562.484    562.403
 17.170    559.091    562.624     -3.532    562.213    562.542    562.213    562.295    562.213
 17.270    537.567    562.429    -24.863    562.020    562.347    562.020    562.102    562.020
 17.370    569.000    562.233      6.767    561.824    562.149    561.824    561.907    561.824
 17.470    583.952    562.033     21.919    561.626    561.950    561.626    561.710    561.626
 17.570    594.011    561.832     32.179    561.425    561.748    561.425    561.509    561.425
 17.670    530.387    561.629    -31.242    561.222    561.544    561.222    561.306    561.222
 17.770    594.525    561.423     33.102    561.015    561.338    561.015    561.101    561.015
 17.870    556.085    561.215     -5.130    560.807    561.129    560.807    560.893    560.807
 17.970    576.000    561.006     14.994    560.596    560.919    560.596    560.682    560.596
 18.070    582.001    560.794     21.206    560.382    560.707    560.382    560.469    560.382
 18.170    559.000    560.580     -1.580    560.166    560.492    560.166    560.253    560.166
 18.270    584.000    560.363     23.637    559.947    560.275    559.947    560.036    559.947
 18.370    574.000    560.145     13.855    559.727    560.056    559.727    559.815    559.727
 18.470    590.000    559.924     30.076    559.503    559.835    559.503    559.593    559.503
 18.570    562.411    559.702      2.709    559.278    559.612    559.278    559.368    559.278
 18.670    553.000    559.477     -6.477    559.050    559.386    559.050    559.141    559.050
 18.770    567.085    559.251      7.834    558.820    559.159    558.820    558.912    558.820
 18.870    534.000    559.024    -25.024    558.588    558.932    558.588    558.681    558.588
 18.970    542.000    558.807    -16.807    558.354    558.714    558.354    558.447    558.354
 19.070    537.000    558.587    -21.587    558.118    558.493    558.118    558.212    558.118
 19.170    544.000    558.354    -14.354    557.880    558.260    557.880    557.974    557.880
 19.270    537.907    558.119    -20.212    557.639    558.024    557.639    557.734    557.639
 19.370    580.258    557.882     22.375    557.397    557.787    557.397    557.493    557.397
 19.470    589.000    557.644     31.356    557.153    557.548    557.153    557.249    557.153
 19.570    593.198    557.412     35.785    556.907    557.315    556.907    557.004    556.907
 19.670    586.000    557.252     28.748    556.658    557.153    556.658    556.757    556.658
 19.770    593.652    557.038     36.614    556.409    556.939    556.409    556.507    556.409
 19.870    518.000    556.797    -38.797    556.157    556.697    556.157    556.257    556.157
 19.970    576.626    556.551     20.075    555.903    556.451    555.903    556.004    555.903
 20.070    589.100    556.305     32.796    555.648    556.203    555.648    555.750    555.648
 20.170    581.801    556.057     25.744    555.391    555.955    555.391    555.493    555.391
 20.270    564.000    555.808      8.192    555.132    555.705    555.132    555.236    555.132
 20.370    553.000    555.558     -2.558    554.872    555.454    554.872    554.976    554.872
 20.470    533.000    555.307    -22.307    554.610    555.202    554.610    554.715    554.610
 20.570    536.000    555.056    -19.056    554.347    554.949    554.347    554.453    554.347
 20.670    508.000    554.803    -46.803    554.082    554.695    554.082    554.189    554.082
 20.770    540.000    554.549    -14.549    553.815    554.441    553.815    553.923    553.815
 20.870    548.085    554.295     -6.210    553.547    554.186    553.547    553.657    553.547
 20.970    522.284    554.040    -31.756    553.278    553.930    553.278    553.388    553.278
 21.070    581.000    553.785     27.215    553.007    553.673    553.007    553.118    553.007
 21.170    563.347    553.529      9.817    552.735    553.417    552.735    552.847    552.735
 21.270    545.344    553.274     -7.929    552.461    553.160    552.461    552.575    552.461
 21.370    538.000    553.019    -15.019    552.186    552.904    552.186    552.301    552.186
 21.470    525.000    552.770    -27.770    551.910    552.654    551.910    552.026    551.910
 21.570    550.000    552.543     -2.543    551.632    552.425    551.632    551.750    551.632
 21.670    562.000    552.362      9.638    551.354    552.243    551.354    551.473    551.354
 21.770    525.000    552.131    -27.131    551.074    552.011    551.074    551.194    551.074
 21.870    567.000    551.880     15.120    550.793    551.758    550.793    550.915    550.793
 21.970    559.000    551.628      7.372    550.511    551.505    550.511    550.634    550.511
 22.070    553.000    551.378      1.622    550.227    551.253    550.227    550.352    550.227
 22.170    517.000    551.130    -34.130    549.943    551.003    549.943    550.069    549.943
 22.270    586.208    550.884     35.325    549.658    550.756    549.658    549.786    549.658
 22.370    526.000    550.641    -24.641    549.371    550.511    549.371    549.501    549.371
 22.470    549.000    550.401     -1.401    549.084    550.270    549.084    549.215    549.084
 22.570    514.000    550.166    -36.166    548.795    550.033    548.795    548.929    548.795
 22.670    550.000    549.935      0.065    548.506    549.801    548.506    548.641    548.506
 22.770    583.759    549.712     34.047    548.216    549.575    548.216    548.353    548.216
 22.870    553.000    549.496      3.504    547.925    549.357    547.925    548.064    547.925
 22.970    581.000    549.290     31.710    547.633    549.149    547.633    547.774    547.633
 23.070    583.593    549.095     34.498    547.340    548.953    547.340    547.484    547.340
 23.170    538.000    548.916    -10.916    547.047    548.771    547.047    547.193    547.047
 23.270    548.000    548.756     -0.756    546.753    548.609    546.753    546.901    546.753
 23.370    509.000    548.624    -39.624    546.458    548.474    546.458    546.608    546.458
 23.470    525.000    548.520    -23.520    546.162    548.368    546.162    546.315    546.162
 23.570    579.471    548.458     31.013    545.866    548.304    545.866    546.021    545.866
 23.670    542.000    548.451     -6.451    545.569    548.294    545.569    545.727    545.569
 23.770    552.000    548.521      3.479    545.271    548.362    545.271    545.432    545.271
 23.870    535.000    548.703    -13.703    544.973    548.541    544.973    545.137    544.973
 23.970    589.477    549.065     40.412    544.675    548.900    544.675    544.842    544.675
 24.070    577.829    549.745     28.083    544.375    549.578    544.375    544.546    544.375
 24.170    524.871    551.153    -26.282    544.076    550.983    544.076    544.249    544.076
 24.270    543.000    554.312    -11.312    543.775    554.141    543.775    543.953    543.775
 24.370    533.982    561.155    -27.173    543.475    560.985    543.475    543.656    543.475
 24.470    603.918    574.171     29.746    543.174    574.008    543.174    543.359    543.174
 24.570    570.000    594.393    -24.393    542.872    594.239    542.872    543.061    542.872
 24.670    606.535    617.888    -11.353    542.570    617.747    542.570    542.764    542.570
 24.770    635.085    633.509      1.576    542.268    633.376    542.268    542.466    542.268
 24.870    604.000    630.146    -26.146    541.965    630.006    541.965    542.169    541.965
 24.970    640.000    610.437     29.563    541.662    610.277    541.662    541.871    541.662
 25.070    591.000    586.726      4.274    541.359    586.543    541.359    541.573    541.359
 25.170    579.000    568.034     10.966    541.056    567.832    541.056    541.276    541.056
 25.270    532.051    556.515    -24.464    540.752    556.299    540.752    540.978    540.752
 25.370    578.030    550.486     27.544    540.448    550.258    540.448    540.681    540.448
 25.470    541.000    547.507     -6.507    540.144    547.271    540.144    540.384    540.144
 25.570    524.505    545.874    -21.369    539.840    545.629    539.840    540.087    539.840
 25.670    549.116    544.826      4.290    539.535    544.572    539.535    539.791    539.535
 25.770    600.000    544.057     55.943    539.231    543.794    539.231    539.495    539.231
 25.870    564.000    543.452     20.548    538.926    543.179    538.926    539.200    538.926
 25.970    556.000    542.957     13.043    538.621    542.674    538.621    538.905    538.621
 26.070    531.000    542.548    -11.548    538.317    542.254    538.317    538.612    538.317
 26.170    552.786    542.218     10.568    538.012    541.912    538.012    538.319    538.012
 26.270    564.000    541.963     22.037    537.707    541.644    537.707    538.027    537.707
 26.370    549.000    541.737      7.263    537.402    541.404    537.402    537.736    537.402
 26.470    556.000    541.561     14.439    537.098    541.213    537.098    537.446    537.098
 26.570    524.000    541.439    -17.439    536.793    541.074    536.793    537.158    536.793
 26.670    552.000    541.375     10.625    536.489    540.992    536.489    536.872    536.489
 26.770    541.000    541.378     -0.378    536.184    540.975    536.184    536.587    536.184
 26.870    525.000    541.470    -16.470    535.880    541.045    535.880    536.305    535.880
 26.970    517.000    541.668    -24.668    535.576    541.218    535.576    536.025    535.576
 27.070    547.000    541.982      5.018    535.272    541.506    535.272    535.748    535.272
 27.170    570.000    542.446     27.554    534.968    541.940    534.968    535.474    534.968
 27.270    546.000    543.123      2.877    534.664    542.582    534.664    535.204    534.664
 27.370    575.605    544.101     31.503    534.361    543.522    534.361    534.939    534.361
 27.470    549.000    545.544      3.456    534.058    544.922    534.058    534.678    534.058
 27.570    610.000    547.875     62.125    533.755    547.204    533.755    534.424    533.755
 27.670    574.000    552.569     21.431    533.453    551.841    533.453    534.177    533.453
 27.770    600.000    564.413     35.587    533.151    563.617    533.151    533.939    533.151
 27.870    594.000    594.951     -0.951    532.849    594.072    532.849    533.711    532.849
 27.970    663.856    661.232      2.624    532.547    660.247    532.547    533.495    532.547
 28.070    779.870    769.747     10.123    532.246    768.631    532.246    533.295    532.246
 28.170    894.903    889.819      5.084    531.945    888.558    531.945    533.114    531.945
 28.270    983.000    949.590     33.410    531.645    948.188    531.645    532.958    531.645
 28.370    931.612    901.556     30.056    531.345    900.012    531.345    532.834    531.345
 28.470    750.721    795.194    -44.473    531.046    793.462    531.046    532.755    531.046
 28.570    753.643    711.356     42.286    530.747    709.355    530.747    532.737    530.747
 28.670    688.477    692.994     -4.517    530.448    690.621    530.448    532.808    530.448
 28.770    748.000    736.301     11.699    530.150    733.430    530.150    533.005    530.150
 28.870    836.735    802.694     34.041    529.853    799.158    529.853    533.380    529.853
 28.970    790.000    834.363    -44.363    529.556    829.930    529.556    533.995    529.556
 29.070    782.000    796.549    -14.549    529.259    790.903    529.259    534.921    529.259
 29.170    688.000    717.913    -29.913    528.964    710.673    528.964    536.219    528.964
 29.270    636.000    644.007     -8.007    528.668    634.770    528.668    537.915    528.668
 29.370    632.440    596.151     36.288    528.374    584.582    528.374    539.947    528.374
 29.470    530.648    572.686    -42.038    528.080    558.699    528.080    542.067    528.080
 29.570    558.396    563.190     -4.795    527.787    547.219    527.787    543.757    527.787
 29.670    553.931    558.946     -5.015    527.494    542.091    527.494    544.348    527.494
 29.770    560.920    555.626      5.294    527.202    539.362    527.202    543.465    527.202
 29.870    551.000    552.070     -1.070    526.911    537.608    526.911    541.371    526.911
 29.970    549.000    548.478      0.522    526.620    536.382    526.620    538.715    526.620
 30.070    544.259    545.273     -1.014    526.330    535.544    526.330    536.058    526.330
 30.170    550.000    542.730      7.270    526.041    535.069    526.041    533.700    526.041
 30.270    578.612    541.065     37.547    525.753    535.080    525.753    531.735    525.753
 30.370    589.000    540.725     48.275    525.465    536.034    525.465    530.152    525.465
 30.470    603.000    542.817     60.183    525.178    539.095    525.178    528.893    525.178
 30.570    580.000    549.336     30.664    524.892    546.326    524.892    527.890    524.892
 30.670    566.114    562.359      3.755    524.607    559.866    524.607    527.078    524.607
 30.770    575.000    581.598     -6.598    524.323    579.483    524.323    526.402    524.323
 30.870    558.851    601.404    -42.553    524.040    599.573    524.040    525.821    524.040
 30.970    619.556    610.543      9.013    523.757    608.939    523.757    525.309    523.757
 31.070    560.000    601.518    -41.518    523.475    600.106    523.475    524.844    523.475
 31.170    560.000    581.008    -21.008    523.194    579.760    523.194    524.414    523.194
 31.270    589.356    560.267     29.089    522.914    559.155    522.914    524.010    522.914
 31.370    534.000    545.350    -11.350    522.635    544.349    522.635    523.628    522.635
 31.470    554.000    536.804     17.196    522.357    535.895    522.357    523.263    522.357
 31.570    556.468    532.579     23.889    522.080    531.746    522.080    522.911    522.080
 31.670    572.000    530.550     41.450    521.804    529.782    521.804    522.570    521.804
 31.770    527.000    529.463     -2.463    521.529    528.751    521.529    522.239    521.529
 31.870    557.000    528.780     28.220    521.255    528.117    521.255    521.917    521.255
 31.970    525.000    528.308     -3.308    520.982    527.688    520.982    521.601    520.982
 32.070    518.006    527.984     -9.977    520.710    527.401    520.710    521.292    520.710
 32.170    530.000    527.781      2.219    520.438    527.231    520.438    520.987    520.438
 32.270    552.397    527.693     24.704    520.168    527.172    520.168    520.688    520.168
 32.370    508.037    527.719    -19.681    519.899    527.224    519.899    520.393    519.899
 32.470    538.000    527.868     10.132    519.631    527.397    519.631    520.102    519.631
 32.570    528.364    528.158      0.205    519.364    527.708    519.364    519.814    519.364
 32.670    533.000    528.617      4.383    519.099    528.185    519.099    519.529    519.099
 32.770    506.000    529.283    -23.283    518.834    528.868    518.834    519.248    518.834
 32.870    544.000    530.217     13.783    518.570    529.817    518.570    518.969    518.570
 32.970    565.110    531.504     33.606    518.308    531.118    518.308    518.693    518.308
 33.070    572.301    533.281     39.020    518.047    532.908    518.047    518.419    518.047
 33.170    567.000    535.801     31.199    517.787    535.439    517.787    518.147    517.787
 33.270    522.000    539.649    -17.649    517.528    539.297    517.528    517.878    517.528
 33.370    548.000    546.390      1.610    517.270    546.046    517.270    517.611    517.270
 33.470    557.273    559.968     -2.696    517.013    559.630    517.013    517.345    517.013
 33.570    550.026    588.559    -38.533    516.758    588.224    516.758    517.082    516.758
 33.670    611.432    644.523    -33.091    516.503    644.186    516.503    516.820    516.503
 33.770    789.000    738.427     50.573    516.250    738.083    516.250    516.561    516.250
 33.870    896.000    865.862     30.138    515.999    865.509    515.999    516.303    515.999
 33.970    994.487    992.854      1.632    515.748    992.499    515.748    516.047    515.748
 34.070   1029.000   1055.922    -26.922    515.499   1055.581    515.499    515.793    515.499
 34.170   1029.000   1011.476     17.524    515.251   1011.164    515.251    515.540    515.251
 34.270    897.000    891.839      5.161    515.004    891.554    515.004    515.289    515.004
 34.370    741.000    760.878    -19.878    514.759    760.607    514.759    515.039    514.759
 34.470    692.197    658.901     33.296    514.514    658.633    514.514    514.792    514.514
 34.570    565.106    595.300    -30.193    514.271    595.032    514.271    514.546    514.271
 34.670    567.053    561.492      5.561    514.030    561.224    514.030    514.301    514.030
 34.770    511.000    544.940    -33.940    513.790    544.673    513.790    514.058    513.790
 34.870    514.241    536.568    -22.327    513.551    536.302    513.551    513.817    513.551
 34.970    537.000    531.700      5.300    513.313    531.436    513.313    513.577    513.313
 35.070    495.000    528.401    -33.401    513.077    528.139    513.077    513.338    513.077
 35.170    553.000    525.931     27.069    512.842    525.670    512.842    513.102    512.842
 35.270    555.149    523.986     31.162    512.608    523.728    512.608    512.867    512.608
 35.370    535.099    522.411     12.688    512.376    522.154    512.376    512.633    512.376
 35.470    527.369    521.108      6.261    512.145    520.852    512.145    512.401    512.145
 35.570    505.000    520.011    -15.011    511.916    519.757    511.916    512.170    511.916
 35.670    481.000    519.073    -38.073    511.688    518.819    511.688    511.941    511.688
 35.770    486.000    518.260    -32.260    511.461    518.007    511.461    511.714    511.461
 35.870    503.051    517.547    -14.496    511.236    517.295    511.236    511.488    511.236
 35.970    515.000    516.916     -1.916    511.012    516.664    511.012    511.264    511.012
 36.070    541.000    516.352     24.648    510.790    516.101    510.790    511.041    510.790
 36.170    532.000    515.846     16.154    510.569    515.595    510.569    510.820    510.569
 36.270    533.200    515.389     17.812    510.349    515.138    510.349    510.600    510.349
 36.370    529.000    514.976     14.024    510.131    514.725    510.131    510.382    510.131
 36.470    517.472    514.603      2.868    509.915    514.353    509.915    510.165    509.915
 36.570    475.000    514.270    -39.270    509.699    514.020    509.699    509.950    509.699
 36.670    536.000    513.978     22.022    509.486    513.727    509.486    509.737    509.486
 36.770    510.000    513.735     -3.735    509.273    513.483    509.273    509.525    509.273
 36.870    532.000    513.561     18.439    509.063    513.309    509.063    509.315    509.063
 36.970    507.000    513.512     -6.512    508.853    513.260    508.853    509.106    508.853
 37.070    477.000    513.715    -36.715    508.646    513.463    508.646    508.899    508.646
 37.170    548.000    514.397     33.603    508.439    514.144    508.439    508.693    508.439
 37.270    515.000    515.865     -0.865    508.235    515.612    508.235    508.489    508.235
 37.370    501.999    518.357    -16.358    508.031    518.103    508.031    508.287    508.031
 37.470    521.184    521.764     -0.580    507.830    521.510    507.830    508.086    507.830
 37.570    479.000    525.329    -46.329    507.629    525.074    507.629    507.887    507.629
 37.670    527.182    527.600     -0.418    507.431    527.346    507.431    507.689    507.431
 37.770    511.000    527.338    -16.338    507.234    527.085    507.234    507.493    507.234
 37.870    521.000    524.795     -3.795    507.038    524.543    507.038    507.299    507.038
 37.970    532.000    521.283     10.717    506.844    521.031    506.844    507.106    506.844
 38.070    478.645    517.868    -39.223    506.651    517.615    506.651    506.915    506.651
 38.170    517.000    515.015      1.985    506.460    514.759    506.460    506.726    506.460
 38.270    500.000    512.861    -12.861    506.271    512.601    506.271    506.538    506.271
 38.370    484.000    511.360    -27.360    506.083    511.096    506.083    506.352    506.083
 38.470    538.181    510.356     27.825    505.897    510.088    505.897    506.167    505.897
 38.570    536.650    509.687     26.963    505.712    509.417    505.712    505.984    505.712
 38.670    513.000    509.225      3.775    505.529    508.952    505.529    505.803    505.529
 38.770    488.000    508.879    -20.879    505.347    508.603    505.347    505.623    505.347
 38.870    524.000    508.597     15.403    505.167    508.319    505.167    505.445    505.167
 38.970    493.000    508.351    -15.351    504.989    508.071    504.989    505.269    504.989
 39.070    488.000    508.129    -20.129    504.812    507.847    504.812    505.095    504.812
 39.170    473.000    507.923    -34.923    504.637    507.638    504.637    504.922    504.637
 39.270    490.000    507.730    -17.730    504.463    507.444    504.463    504.750    504.463
 39.370    528.000    507.549     20.451    504.291    507.260    504.291    504.581    504.291
 39.470    458.000    507.379    -49.379    504.121    507.087    504.121    504.413    504.121
 39.570    514.125    507.217      6.908    503.952    506.923    503.952    504.247    503.952
 39.670    475.000    507.065    -32.065    503.785    506.768    503.785    504.082    503.785
 39.770    515.670    506.921      8.749    503.619    506.621    503.619    503.920    503.619
 39.870    546.000    506.785     39.215    503.455    506.482    503.455    503.759    503.455
 39.970    495.000    506.658    -11.658    503.293    506.352    503.293    503.599    503.293
 40.070    484.998    506.540    -21.542    503.132    506.231    503.132    503.442    503.132
 40.170    543.000    506.431     36.569    502.973    506.118    502.973    503.286    502.973
 40.270    491.000    506.331    -15.331    502.816    506.016    502.816    503.132    502.816
 40.370    491.000    506.242    -15.242    502.660    505.923    502.660    502.979    502.660
 40.470    464.000    506.166    -42.166    502.506    505.843    502.506    502.829    502.506
 40.570    515.572    506.102      9.471    502.353    505.775    502.353    502.680    502.353
 40.670    494.000    506.053    -12.053    502.202    505.723    502.202    502.533    502.202
 40.770    495.000    506.021    -11.021    502.053    505.687    502.053    502.387    502.053
 40.870    489.000    506.010    -17.010    501.905    505.672    501.905    502.244    501.905
 40.970    492.156    506.022    -13.866    501.759    505.680    501.759    502.102    501.759
 41.070    518.000    506.063     11.937    501.615    505.717    501.615    501.962    501.615
 41.170    469.913    506.140    -36.227    501.472    505.789    501.472    501.823    501.472
 41.270    471.723    506.260    -34.537    501.331    505.905    501.331    501.687    501.331
 41.370    498.000    506.437     -8.437    501.191    506.077    501.191    501.552    501.191
 41.470    485.000    506.687    -21.687    501.054    506.322    501.054    501.419    501.054
 41.570    522.000    507.036     14.964    500.918    506.667    500.918    501.288    500.918
 41.670    466.000    507.536    -41.536    500.783    507.162    500.783    501.159    500.783
 41.770    514.015    508.296      5.720    500.650    507.917    500.650    501.032    500.650
 41.870    483.000    509.574    -26.574    500.519    509.190    500.519    500.906    500.519
 41.970    510.000    511.945     -1.945    500.390    511.556    500.390    500.782    500.390
 42.070    534.000    516.505     17.495    500.262    516.113    500.262    500.660    500.262
 42.170    472.000    524.940    -52.940    500.135    524.545    500.135    500.540    500.135
 42.270    522.000    539.101    -17.101    500.011    538.707    500.011    500.422    500.011
 42.370    551.000    559.867     -8.867    499.888    559.476    499.888    500.306    499.888
 42.470    543.906    585.499    -41.593    499.767    585.115    499.767    500.192    499.767
 42.570    624.949    610.196     14.752    499.647    609.819    499.647    500.079    499.647
 42.670    592.000    624.558    -32.558    499.529    624.183    499.529    499.969    499.529
 42.770    612.841    621.263     -8.421    499.413    620.882    499.413    499.860    499.413
 42.870    618.000    602.201     15.799    499.298    601.804    499.298    499.754    499.298
 42.970    591.000    576.248     14.752    499.185    575.829    499.185    499.649    499.185
 43.070    548.000    551.768     -3.768    499.074    551.326    499.074    499.546    499.074
 43.170    506.000    533.081    -27.081    498.964    532.619    498.964    499.446    498.964
 43.270    553.000    520.870     32.130    498.856    520.391    498.856    499.347    498.856
 43.370    502.000    513.781    -11.781    498.750    513.288    498.750    499.250    498.750
 43.470    539.257    509.948     29.309    498.645    509.442    498.645    499.156    498.645
 43.570    489.792    507.879    -18.087    498.542    507.361    498.542    499.063    498.542
 43.670    512.000    506.673      5.327    498.441    506.143    498.441    498.973    498.441
 43.770    472.000    505.881    -33.881    498.341    505.339    498.341    498.885    498.341
 43.870    519.000    505.307     13.693    498.243    504.752    498.243    498.799    498.243
 43.970    517.272    504.865     12.408    498.146    504.297    498.146    498.715    498.146
 44.070    479.469    504.515    -25.046    498.051    503.934    498.051    498.633    498.051
 44.170    510.956    504.235      6.721    497.958    503.639    497.958    498.554    497.958
 44.270    515.000    504.008     10.992    497.866    503.399    497.866    498.477    497.866
 44.370    470.000    503.827    -33.827    497.777    503.201    497.777    498.403    497.777
 44.470    537.064    503.681     33.383    497.688    503.039    497.688    498.331    497.688
 44.570    515.000    503.567     11.433    497.602    502.908    497.602    498.261    497.602
 44.670    472.000    503.479    -31.479    497.517    502.802    497.517    498.194    497.517
 44.770    510.004    503.415      6.589    497.433    502.719    497.433    498.129    497.433
 44.870    503.257    503.372     -0.115    497.351    502.656    497.351    498.068    497.351
 44.970    514.000    503.349     10.651    497.271    502.612    497.271    498.009    497.271
 45.070    490.907    503.346    -12.438    497.193    502.586    497.193    497.953    497.193
 45.170    540.746    503.360     37.386    497.116    502.577    497.116    497.899    497.116
 45.270    531.000    503.392     27.608    497.041    502.584    497.041    497.849    497.041
 45.370    482.877    503.443    -20.565    496.967    502.607    496.967    497.803    496.967
 45.470    511.444    503.511      7.933    496.895    502.647    496.895    497.759    496.895
 45.570    532.000    503.599     28.401    496.824    502.704    496.824    497.719    496.824
 45.670    466.037    503.707    -37.671    496.756    502.780    496.756    497.683    496.756
 45.770    476.000    503.837    -27.837    496.688    502.874    496.688    497.651    496.688
 45.870    481.000    503.990    -22.990    496.623    502.989    496.623    497.623    496.623
 45.970    509.000    504.168      4.832    496.559    503.128    496.559    497.599    496.559
 46.070    529.000    504.376     24.624    496.496    503.292    496.496    497.580    496.496
 46.170    492.000    504.616    -12.616    496.436    503.485    496.436    497.567    496.436
 46.270    455.000    504.894    -49.894    496.376    503.711    496.376    497.558    496.376
 46.370    531.000    505.215     25.785    496.319    503.977    496.319    497.556    496.319
 46.470    467.306    505.589    -38.282    496.263    504.290    496.263    497.560    496.263
 46.570    488.000    506.025    -18.025    496.208    504.661    496.208    497.571    496.208
 46.670    495.000    506.541    -11.541    496.155    505.105    496.155    497.590    496.155
 46.770    506.000    507.168     -1.168    496.104    505.652    496.104    497.618    496.104
 46.870    513.783    507.965      5.818    496.054    506.362    496.054    497.655    496.054
 46.970    529.749    509.068     20.681    496.006    507.368    496.006    497.704    496.006
 47.070    496.655    510.754    -14.099    495.959    508.946    495.959    497.764    495.959
 47.170    516.000    513.540      2.460    495.914    511.611    495.914    497.838    495.914
 47.270    537.000    518.234     18.766    495.871    516.168    495.871    497.928    495.871
 47.370    535.965    525.809     10.156    495.829    523.588    495.829    498.036    495.829
 47.470    582.000    537.014     44.986    495.788    534.615    495.788    498.165    495.788
 47.570    562.378    551.704     10.673    495.749    549.102    495.749    498.319    495.749
 47.670    566.000    568.150     -2.150    495.712    565.316    495.712    498.502    495.712
 47.770    614.000    582.616     31.384    495.676    579.519    495.676    498.720    495.676
 47.870    560.000    590.104    -30.104    495.642    586.707    495.642    498.982    495.642
 47.970    564.360    587.568    -23.209    495.609    583.828    495.609    499.298    495.609
 48.070    610.000    576.871     33.129    495.578    572.722    495.578    499.684    495.578
 48.170    566.000    562.842      3.158    495.548    558.194    495.548    500.164    495.548
 48.270    567.519    549.805     17.714    495.519    544.529    495.519    500.775    495.519
 48.370    521.417    540.175    -18.758    495.493    534.087    495.493    501.567    495.493
 48.470    517.200    534.639    -17.439    495.467    527.480    495.467    502.619    495.467
 48.570    562.000    532.816     29.184    495.444    524.222    495.444    504.032    495.444
 48.670    536.000    533.956      2.044    495.421    523.432    495.421    505.941    495.421
 48.770    515.623    537.431    -21.809    495.400    524.325    495.400    508.503    495.400
 48.870    570.186    542.923     27.263    495.381    526.422    495.381    511.879    495.381
 48.970    561.000    550.417     10.583    495.363    529.566    495.363    516.210    495.363
 49.070    542.000    560.158    -18.158    495.347    533.937    495.347    521.564    495.347
 49.170    600.880    572.784     28.096    495.332    540.246    495.332    527.865    495.332
 49.270    569.484    589.897    -20.414    495.318    550.419    495.318    534.789    495.318
 49.370    629.528    615.475     14.053    495.306    569.146    495.306    541.623    495.306
 49.470    638.000    658.388    -20.388    495.296    606.467    495.296    547.194    495.296
 49.570    754.573    735.358     19.215    495.286    680.479    495.286    550.124    495.286
 49.670    837.000    871.485    -34.485    495.279    817.172    495.279    549.519    495.279
 49.770   1227.000   1093.350    133.650    495.272   1042.927    495.272    545.586    495.272
 49.870   1443.868   1411.838     32.030    495.267   1367.499    495.267    539.465    495.267
 49.970   1834.000   1800.013     33.987    495.264   1762.618    495.264    532.512    495.264
 50.070   2244.000   2179.483     64.517    495.262   2148.891    495.262    525.748    495.262
 50.170   2363.859   2432.406    -68.548    495.261   2407.911    495.261    519.744    495.261
 50.270   2395.000   2456.031    -61.031    495.262   2436.665    495.262    514.731    495.262
 50.370   2316.191   2237.814     78.377    495.264   2222.536    495.264    510.728    495.264
 50.470   1826.464   1867.711    -41.247    495.267   1855.551    495.267    507.639    495.267
 50.570   1516.697   1468.441     48.256    495.272   1458.592    495.272    505.312    495.272
 50.670   1134.000   1130.526      3.474    495.278   1122.368    495.278    503.584    495.278
 50.770    850.000    892.356    -42.356    495.286    885.438    495.286    502.306    495.286
 50.870    706.516    749.330    -42.814    495.295    743.342    495.295    501.353    495.295
 50.970    690.000    674.589     15.411    495.305    669.314    495.305    500.632    495.305
 51.070    676.207    638.036     38.171    495.317    633.320    495.317    500.075    495.317
 51.170    647.901    617.197     30.704    495.330    612.930    495.330    499.634    495.330
 51.270    637.000    600.352     36.648    495.344    596.448    495.344    499.280    495.344
 51.370    550.536    584.209    -33.673    495.360    580.604    495.360    498.990    495.360
 51.470    579.000    569.350      9.650    495.376    565.994    495.376    498.751    495.376
 51.570    524.126    556.966    -32.840    495.395    553.822    495.395    498.553    495.395
 51.670    574.000    547.673     26.327    495.414    544.709    495.414    498.388    495.414
 51.770    502.648    541.387    -38.739    495.435    538.577    495.435    498.251    495.435
 51.870    529.178    537.583     -8.405    495.457    534.906    495.457    498.139    495.457
 51.970    505.868    535.620    -29.752    495.480    533.058    495.480    498.047    495.480
 52.070    529.000    534.983     -5.983    495.505    532.519    495.505    497.972    495.505
 52.170    564.000    535.380     28.620    495.531    532.999    495.531    497.914    495.531
 52.270    552.123    536.763     15.360    495.558    534.454    495.558    497.870    495.558
 52.370    562.703    539.378     23.325    495.586    537.129    495.586    497.838    495.586
 52.470    563.000    543.925     19.075    495.616    541.726    495.616    497.817    495.616
 52.570    555.157    551.902      3.254    495.647    549.744    495.647    497.806    495.647
 52.670    600.691    566.106     34.585    495.679    563.981    495.679    497.805    495.679
 52.770    608.000    591.047     16.953    495.712    588.947    495.712    497.812    495.712
 52.870    622.911    632.801     -9.890    495.747    630.719    495.747    497.828    495.747
 52.970    697.627    697.673     -0.046    495.782    695.602    495.782    497.850    495.782
 53.070    871.000    789.360     81.640    495.819    787.297    495.819    497.880    495.819
 53.170    945.000    905.108     39.892    495.857    903.048    495.857    497.917    495.857
 53.270   1056.000   1032.034     23.966    495.896   1029.976    495.896    497.961    495.896
 53.370   1126.000   1145.309    -19.309    495.937   1143.252    495.937    498.010    495.937
 53.470   1226.016   1212.287     13.728    495.978   1210.228    495.978    498.066    495.978
 53.570   1166.772   1208.334    -41.562    496.021   1206.268    496.021    498.128    496.021
 53.670   1163.150   1135.264     27.886    496.065   1133.180    496.065    498.196    496.065
 53.770   1043.000   1019.662     23.338    496.110   1017.547    496.110    498.270    496.110
 53.870    902.000    893.711      8.289    496.156    891.556    496.156    498.351    496.156
 53.970    766.322    780.913    -14.591    496.203    778.710    496.203    498.437    496.203
 54.070    730.563    692.889     37.674    496.252    690.632    496.252    498.530    496.252
 54.170    630.066    631.495     -1.429    496.301    629.181    496.301    498.629    496.301
 54.270    582.000    592.578    -10.578    496.352    590.204    496.352    498.735    496.352
 54.370    562.752    569.768     -7.016    496.403    567.329    496.403    498.848    496.403
 54.470    536.288    557.130    -20.843    496.456    554.622    496.456    498.968    496.456
 54.570    616.000    550.355     65.645    496.510    547.772    496.510    499.096    496.510
 54.670    587.000    546.810     40.190    496.565    544.145    496.565    499.232    496.565
 54.770    509.500    545.091    -35.591    496.621    542.337    496.621    499.377    496.621
 54.870    524.000    544.527    -20.527    496.677    541.676    496.677    499.530    496.677
 54.970    618.000    544.824     73.176    496.735    541.868    496.735    499.694    496.735
 55.070    550.000    545.872      4.128    496.794    542.801    496.794    499.868    496.794
 55.170    569.000    547.651     21.349    496.854    544.454    496.854    500.053    496.854
 55.270    558.000    550.200      7.800    496.915    546.866    496.915    500.251    496.915
 55.370    550.000    553.617     -3.617    496.977    550.134    496.977    500.462    496.977
 55.470    617.000    558.089     58.911    497.040    554.443    497.040    500.688    497.040
 55.570    525.454    563.978    -38.524    497.104    560.154    497.104    500.930    497.104
 55.670    573.000    572.037      0.963    497.169    568.017    497.169    501.190    497.169
 55.770    579.000    583.863     -4.863    497.235    579.629    497.235    501.470    497.235
 55.870    563.213    602.731    -39.519    497.302    598.260    497.302    501.772    497.302
 55.970    605.472    634.833    -29.361    497.370    630.100    497.370    502.099    497.370
 56.070    730.438    690.596     39.843    497.438    685.571    497.438    502.453    497.438
 56.170    722.000    785.151    -63.151    497.508    779.801    497.508    502.839    497.508
 56.270    911.000    936.461    -25.461    497.579    930.749    497.579    503.260    497.579
 56.370   1121.000   1159.815    -38.815    497.650   1153.703    497.650    503.722    497.650
 56.470   1398.000   1458.899    -60.899    497.722   1452.347    497.722    504.230    497.722
 56.570   1828.676   1815.874     12.802    497.796   1808.844    497.796    504.792    497.796
 56.670   2215.000   2184.207     30.793    497.870   2176.660    497.870    505.415    497.870
 56.770   2569.829   2488.807     81.022    497.945   2480.700    497.945    506.111    497.945
 56.870   2662.000   2643.639     18.361    498.021   2634.908    498.021    506.893    498.021
 56.970   2665.159   2595.797     69.363    498.097   2586.338    498.097    507.777    498.097
 57.070   2316.044   2363.929    -47.885    498.175   2353.587    498.175    508.788    498.175
 57.170   2095.000   2022.761     72.239    498.253   2011.334    498.253    509.955    498.253
 57.270   1635.905   1656.245    -20.341    498.332   1643.495    498.332    511.327    498.332
 57.370   1355.853   1326.709     29.144    498.412   1312.346    498.412    512.970    498.412
 57.470   1075.000   1066.851      8.149    498.493   1050.502    498.493    514.983    498.493
 57.570    912.680    883.633     29.047    498.574    864.791    498.574    517.510    498.574
 57.670    728.391    767.312    -38.921    498.657    745.274    498.657    520.753    498.657
 57.770    671.000    701.446    -30.446    498.740    675.236    498.740    524.982    498.740
 57.870    711.000    670.544     40.456    498.824    638.840    498.824    530.543    498.824
 57.970    683.096    663.944     19.152    498.908    625.013    498.908    537.843    498.908
 58.070    701.335    676.462     24.873    498.994    628.127    498.994    547.322    498.994
 58.170    731.370    707.103     24.267    499.080    646.768    499.080    559.400    499.080
 58.270    742.000    756.978    -14.978    499.167    681.726    499.167    574.393    499.167
 58.370    842.145    827.091     15.054    499.254    733.897    499.254    592.414    499.254
 58.470    880.000    916.345    -36.345    499.342    802.419    499.342    613.227    499.342
 58.570    971.198   1019.985    -48.787    499.431    883.326    499.431    636.048    499.431
 58.670   1073.690   1128.984    -55.294    499.521    969.189    499.521    659.279    499.521
 58.770   1246.000   1231.406     14.594    499.611   1050.719    499.611    680.274    499.611
 58.870   1356.000   1315.481     40.519    499.702   1119.680    499.702    695.495    499.702
 58.970   1392.420   1371.358     21.062    499.794   1169.609    499.794    701.555    499.794
 59.070   1443.000   1391.307     51.693    499.886   1194.316    499.886    696.907    499.886
 59.170   1356.973   1372.466    -15.493    499.979   1189.680    499.979    682.808    499.979
 59.270   1355.992   1321.429     34.563    500.072   1159.031    500.072    662.514    500.072
 59.370   1199.935   1253.404    -53.469    500.166   1113.997    500.166    639.603    500.166
 59.470   1242.000   1185.781     56.219    500.261   1069.207    500.261    616.839    500.261
 59.570   1095.377   1133.921    -38.544    500.356   1038.312    500.356    595.934    500.356
 59.670   1213.000   1111.282    101.718    500.452   1033.902    500.452    577.757    500.452
 59.770   1119.000   1128.532     -9.532    500.548   1066.356    500.548    562.599    500.548
 59.870   1168.370   1189.022    -20.652    500.645   1139.107    500.645    550.383    500.645
 59.970   1322.000   1284.302     37.698    500.743   1244.008    500.743    540.811    500.743
 60.070   1372.662   1392.799    -20.137    500.841   1359.907    500.841    533.473    500.841
 60.170   1495.000   1482.276     12.724    500.939   1455.018    500.939    527.927    500.939
 60.270   1572.000   1518.318     53.682    501.038   1495.345    501.038    523.763    501.038
 60.370   1516.000   1480.402     35.598    501.138   1460.712    501.138    520.629    501.138
 60.470   1350.000   1374.240    -24.240    501.238   1357.091    501.238    518.247    501.238
 60.570   1168.000   1226.091    -58.091    501.339   1210.932    501.339    516.411    501.339
 60.670   1107.000   1066.968     40.032    501.440   1053.388    501.440    514.974    501.440
 60.770    948.486    921.532     26.954    501.541    909.217    501.541    513.836    501.541
 60.870    814.122    804.236      9.886    501.643    792.940    501.643    512.932    501.643
 60.970    724.000    719.881      4.119    501.745    709.406    501.745    512.217    501.745
 61.070    654.000    666.609    -12.609    501.848    656.790    501.848    511.662    501.848
 61.170    616.338    639.840    -23.502    501.951    630.534    501.951    511.246    501.951
 61.270    635.000    635.708     -0.708    502.055    626.793    502.055    510.950    502.055
 61.370    631.079    653.061    -21.982    502.159    644.431    502.159    510.758    502.159
 61.470    675.000    693.692    -18.692    502.263    685.259    502.263    510.648    502.263
 61.570    733.550    760.927    -27.377    502.368    752.631    502.368    510.593    502.368
 61.670    860.000    856.951      3.049    502.473    848.771    502.473    510.556    502.473
 61.770    943.073    979.562    -36.489    502.579    971.522    502.579    510.493    502.579
 61.870   1099.000   1119.335    -20.335    502.685   1111.506    502.685    510.363    502.685
 61.970   1223.930   1258.170    -34.240    502.791   1250.654    502.791    510.142    502.791
 62.070   1417.446   1370.343     47.103    502.898   1363.243    502.898    509.836    502.898
 62.170   1329.000   1428.404    -99.404    503.004   1421.799    503.004    509.471    503.004
 62.270   1321.000   1415.289    -94.289    503.112   1409.217    503.112    509.084    503.112
 62.370   1321.000   1334.759    -13.759    503.219   1329.214    503.219    508.707    503.219
 62.470   1235.000   1208.713     26.287    503.327   1203.659    503.327    508.360    503.327
 62.570    994.000   1064.876    -70.876    503.435   1060.259    503.435    508.054    503.435
 62.670    911.000    926.677    -15.677    503.543    922.438    503.543    507.795    503.543
 62.770    802.000    809.154     -7.154    503.652    805.239    503.652    507.583    503.652
 62.870    689.000    718.739    -29.739    503.760    715.098    503.760    507.415    503.760
 62.970    642.222    655.048    -12.825    503.869    651.640    503.869    507.287    503.869
 63.070    564.000    613.618    -49.618    503.979    610.409    503.979    507.192    503.979
 63.170    554.101    588.593    -34.492    504.088    585.555    504.088    507.127    504.088
 63.270    602.000    574.640     27.360    504.198    571.751    504.198    507.085    504.198
 63.370    597.000    567.903     29.097    504.307    565.143    504.307    507.062    504.307
 63.470    578.000    566.221     11.779    504.417    563.576    504.417    507.056    504.417
 63.570    593.000    568.975     24.025    504.527    566.432    504.527    507.061    504.527
 63.670    611.364    576.829     34.535    504.638    574.376    504.638    507.078    504.638
 63.770    578.000    591.430    -13.430    504.748    589.055    504.748    507.103    504.748
 63.870    640.088    615.014     25.074    504.859    612.707    504.859    507.136    504.859
 63.970    680.000    649.797     30.203    504.969    647.549    504.969    507.175    504.969
 64.070    726.847    697.117     29.730    505.080    694.918    505.080    507.220    505.080
 64.170    787.000    756.424     30.576    505.191    754.266    505.191    507.271    505.191
 64.270    811.393    824.346    -12.953    505.302    822.225    505.302    507.326    505.302
 64.370    927.000    894.081     32.919    505.413    891.995    505.413    507.385    505.413
 64.470    970.571    955.603     14.968    505.524    953.557    505.524    507.448    505.524
 64.570    999.753    997.723      2.031    505.635    995.723    505.635    507.516    505.635
 64.670    989.000   1012.367    -23.367    505.746   1010.422    505.746    507.586    505.746
 64.770   1007.449    998.164      9.285    505.858    996.279    505.858    507.660    505.858
 64.870    991.139    960.126     31.014    505.969    958.302    505.969    507.736    505.969
 64.970    861.882    906.896    -45.013    506.080    905.130    506.080    507.815    506.080
 65.070    849.000    847.878      1.122    506.191    846.165    506.191    507.897    506.191
 65.170    761.662    790.741    -29.079    506.303    789.072    506.303    507.982    506.303
 65.270    740.000    739.987      0.013    506.414    738.354    506.414    508.068    506.414
 65.370    724.982    697.137     27.845    506.525    695.531    506.525    508.157    506.525
 65.470    648.000    661.984    -13.984    506.636    660.399    506.636    508.248    506.636
 65.570    612.000    633.790    -21.790    506.747    632.221    506.747    508.341    506.747
 65.670    577.653    611.737    -34.085    506.859    610.180    506.859    508.436    506.859
 65.770    545.000    594.960    -49.960    506.970    593.411    506.970    508.532    506.970
 65.870    575.000    582.601     -7.601    507.080    581.060    507.080    508.631    507.080
 65.970    572.000    573.890     -1.890    507.191    572.356    507.191    508.731    507.191
 66.070    589.000    568.167     20.833    507.302    566.639    507.302    508.833    507.302
 66.170    533.000    564.883    -31.883    507.413    563.360    507.413    508.936    507.413
 66.270    534.000    563.591    -29.591    507.523    562.073    507.523    509.042    507.523
 66.370    556.000    563.967     -7.967    507.633    562.453    507.633    509.148    507.633
 66.470    551.000    565.843    -14.843    507.743    564.331    507.743    509.256    507.743
 66.570    595.758    569.282     26.476    507.853    567.771    507.853    509.366    507.853
 66.670    581.000    574.702      6.298    507.963    573.190    507.963    509.478    507.963
 66.770    545.000    583.079    -38.079    508.073    581.563    508.073    509.591    508.073
 66.870    617.000    596.281     20.719    508.182    594.760    508.182    509.705    508.182
 66.970    636.424    617.501     18.923    508.292    615.972    508.292    509.821    508.292
 67.070    633.000    651.692    -18.692    508.401    650.152    508.401    509.939    508.401
 67.170    749.922    705.771     44.151    508.510    704.217    508.510    510.058    508.510
 67.270    771.555    788.258    -16.703    508.618    786.688    508.618    510.180    508.618
 67.370    902.124    907.987     -5.863    508.727    906.401    508.727    510.303    508.727
 67.470   1116.000   1071.738     44.262    508.835   1070.138    508.835    510.427    508.835
 67.570   1334.629   1281.044     53.585    508.942   1279.435    508.942    510.554    508.942
 67.670   1547.132   1528.868     18.264    509.050   1527.260    509.050    510.683    509.050
 67.770   1780.000   1797.097    -17.097    509.157   1795.502    509.157    510.814    509.157
 67.870   2144.000   2055.704     88.296    509.264   2054.133    509.264    510.947    509.264
 67.970   2254.191   2264.917    -10.726    509.371   2263.384    509.371    511.083    509.371
 68.070   2363.206   2383.272    -20.066    509.477   2381.777    509.477    511.221    509.477
 68.170   2437.000   2382.907     54.093    509.583   2381.439    509.583    511.362    509.583
 68.270   2237.000   2263.970    -26.970    509.689   2262.499    509.689    511.506    509.689
 68.370   2077.076   2054.524     22.552    509.794   2053.014    509.794    511.653    509.794
 68.470   1829.000   1796.074     32.926    509.899   1794.493    509.899    511.803    509.899
 68.570   1543.000   1528.321     14.679    510.004   1526.647    510.004    511.957    510.004
 68.670   1260.000   1281.191    -21.191    510.108   1279.409    510.108    512.115    510.108
 68.770   1019.143   1072.690    -53.547    510.212   1070.796    510.212    512.278    510.212
 68.870    903.000    909.764     -6.764    510.315    907.759    510.315    512.445    510.315
 68.970    797.367    790.819      6.548    510.418    788.706    510.418    512.618    510.418
 69.070    696.000    709.042    -13.042    510.521    706.825    510.521    512.796    510.521
 69.170    701.000    655.591     45.409    510.623    653.271    510.623    512.981    510.623
 69.270    647.000    621.949     25.051    510.725    619.526    510.725    513.173    510.725
 69.370    641.145    601.205     39.939    510.826    598.676    510.826    513.373    510.826
 69.470    597.736    588.403      9.333    510.927    585.761    510.927    513.581    510.927
 69.570    591.105    580.328     10.777    511.027    577.565    511.027    513.800    511.027
 69.670    570.417    575.063     -4.646    511.127    572.167    511.127    514.029    511.127
 69.770    541.000    571.536    -30.536    511.227    568.497    511.227    514.270    511.227
 69.870    583.000    569.185     13.815    511.325    565.988    511.325    514.526    511.325
 69.970    602.352    567.723     34.629    511.424    564.353    511.424    514.797    511.424
 70.070    561.000    567.018     -6.018    511.522    563.456    511.522    515.085    511.522
 70.170    580.000    567.027     12.973    511.619    563.253    511.619    515.394    511.619
 70.270    602.311    567.784     34.527    511.716    563.773    511.716    515.726    511.716
 70.370    596.862    569.415     27.447    511.812    565.140    511.812    516.086    511.812
 70.470    569.333    572.197     -2.864    511.907    567.626    511.907    516.476    511.907
 70.570    599.000    576.661     22.339    512.003    571.757    512.003    516.903    512.003
 70.670    582.000    583.756     -1.756    512.097    578.471    512.097    517.375    512.097
 70.770    562.000    595.058    -33.058    512.191    589.337    512.191    517.901    512.191
 70.870    563.000    613.011    -50.011    512.284    606.782    512.284    518.496    512.284
 70.970    608.000    641.105    -33.105    512.377    634.274    512.377    519.180    512.377
 71.070    680.127    683.852     -3.725    512.469    676.295    512.469    519.986    512.469
 71.170    699.599    746.418    -46.819    512.560    737.962    512.560    520.958    512.560
 71.270    826.000    833.752     -7.752    512.651    824.161    512.651    522.161    512.651
 71.370    895.259    949.234    -53.975    512.741    938.178    512.741    523.690    512.741
 71.470   1099.000   1093.000      6.000    512.831   1080.024    512.831    525.672    512.831
 71.570   1245.000   1260.318    -15.318    512.920   1244.806    512.920    528.271    512.920
 71.670   1427.000   1440.440    -13.440    513.008   1421.575    513.008    531.692    513.008
 71.770   1587.000   1616.251    -29.251    513.095   1592.987    513.095    536.170    513.095
 71.870   1749.000   1765.294    -16.294    513.182   1736.341    513.182    541.951    513.182
 71.970   1791.293   1863.413    -72.120    513.268   1827.254    513.268    549.267    513.268
 72.070   1874.000   1892.093    -18.093    513.353   1847.032    513.353    558.287    513.353
 72.170   1911.000   1846.836     64.164    513.438   1791.108    513.438    569.077    513.438
 72.270   1762.000   1739.651     22.349    513.522   1671.586    513.522    581.533    513.522
 72.370   1561.000   1592.876    -31.876    513.605   1511.128    513.605    595.326    513.605
 72.470   1468.481   1430.266     38.215    513.687   1334.111    513.687    609.834    513.687
 72.570   1312.415   1271.222     41.194    513.769   1160.923    513.769    624.069    513.769
 72.670   1129.934   1128.617      1.316    513.850   1005.815    513.850    636.658    513.850
 72.770   1000.000   1008.694     -8.694    513.930    876.668    513.930    645.962    513.930
 72.870    862.000    912.242    -50.242    514.009    775.794    514.009    650.462    514.009
 72.970    866.086    836.608     29.478    514.087    701.370    514.087    649.328    514.087
 73.070    757.000    777.780    -20.780    514.165    649.147    514.165    642.800    514.165
 73.170    742.032    731.830     10.202    514.242    614.001    514.242    632.071    514.242
 73.270    679.631    695.525    -15.895    514.318    591.076    514.318    618.767    514.318
 73.370    622.000    666.444    -44.444    514.393    576.400    514.393    604.437    514.393
 73.470    622.489    642.903    -20.414    514.467    567.077    514.467    590.294    514.467
 73.570    616.000    623.810     -7.810    514.541    561.191    514.541    577.162    514.541
 73.670    624.998    608.498     16.500    514.613    557.580    514.613    565.535    514.613
 73.770    585.685    596.542    -10.857    514.685    555.594    514.685    555.640    514.685
 73.870    602.000    587.619     14.381    514.756    554.884    514.756    547.501    514.756
 73.970    554.037    581.403    -27.365    514.826    555.238    514.826    541.005    514.826
 74.070    576.373    577.509     -1.136    514.895    556.474    514.895    535.950    514.895
 74.170    597.000    575.472     21.528    514.963    558.367    514.963    532.094    514.963
 74.270    615.000    574.739     40.261    515.030    560.607    515.030    529.193    515.030
 74.370    614.000    574.684     39.316    515.097    562.794    515.097    527.024    515.097
 74.470    612.000    574.654     37.346    515.162    564.459    515.162    525.399    515.162
 74.570    648.000    574.045     73.955    515.227    565.148    515.227    524.168    515.227
 74.670    606.000    572.453     33.547    515.290    564.568    515.290    523.220    515.290
 74.770    613.000    569.794     43.206    515.353    562.717    515.353    522.473    515.353
 74.870    599.450    566.308     33.142    515.414    559.891    515.414    521.871    515.414
 74.970    617.000    562.438     54.562    515.475    556.571    515.475    521.375    515.475
 75.070    622.000    558.692     63.308    515.535    553.295    515.535    520.959    515.535
 75.170    557.317    555.573      1.744    515.593    550.582    515.593    520.605    515.593
 75.270    584.332    553.563     30.769    515.651    548.928    515.651    520.300    515.651
 75.370    563.000    553.136      9.864    515.708    548.817    515.708    520.035    515.708
 75.470    569.000    554.780     14.220    515.763    550.741    515.763    519.805    515.763
 75.570    566.000    558.995      7.005    515.818    555.206    515.818    519.603    515.818
 75.670    586.000    566.264     19.736    515.872    562.701    515.872    519.426    515.872
 75.770    574.000    576.979     -2.979    515.924    573.617    515.924    519.270    515.924
 75.870    563.649    591.310    -27.661    515.976    588.130    515.976    519.133    515.976
 75.970    628.000    609.069     18.931    516.026    606.052    516.026    519.012    516.026
 76.070    649.000    629.560     19.440    516.076    626.691    516.076    518.905    516.076
 76.170    667.948    651.488     16.460    516.124    648.754    516.124    518.810    516.124
 76.270    666.506    672.934     -6.427    516.171    670.323    516.171    518.727    516.171
 76.370    689.000    691.433     -2.433    516.218    688.938    516.218    518.653    516.218
 76.470    701.225    704.280     -3.055    516.263    701.894    516.263    518.588    516.263
 76.570    723.000    709.179     13.821    516.307    706.896    516.307    518.530    516.307
 76.670    712.241    705.117      7.125    516.350    702.934    516.350    518.479    516.350
 76.770    656.866    692.843    -35.977    516.392    690.754    516.392    518.434    516.392
 76.870    695.000    674.494     20.506    516.432    672.496    516.432    518.393    516.432
 76.970    678.000    652.745     25.255    516.472    650.830    516.472    518.358    516.472
 77.070    634.000    630.098      3.902    516.510    628.260    516.510    518.327    516.510
 77.170    598.051    608.537    -10.485    516.548    606.770    516.548    518.299    516.548
 77.270    598.000    589.410      8.590    516.584    587.708    516.584    518.275    516.584
 77.370    602.911    573.439     29.472    516.619    571.797    516.619    518.254    516.619
 77.470    553.982    560.805     -6.823    516.653    559.218    516.653    518.236    516.653
 77.570    531.000    551.287    -20.287    516.686    549.750    516.686    518.219    516.686
 77.670    583.439    544.419     39.020    516.717    542.929    516.717    518.205    516.717
 77.770    506.543    539.641    -33.099    516.748    538.195    516.748    518.192    516.748
 77.870    507.622    536.411    -28.789    516.777    535.005    516.777    518.181    516.777
 77.970    532.000    534.262     -2.262    516.805    532.894    516.805    518.172    516.805
 78.070    534.000    532.840      1.160    516.832    531.507    516.832    518.163    516.832
 78.170    496.000    531.889    -35.889    516.857    530.590    516.857    518.156    516.857
 78.270    533.000    531.245      1.755    516.882    529.976    516.882    518.149    516.882
 78.370    544.000    530.803     13.197    516.905    529.564    516.905    518.144    516.905
 78.470    558.024    530.508     27.516    516.927    529.295    516.927    518.139    516.927
 78.570    509.000    530.331    -21.331    516.948    529.143    516.948    518.135    516.948
 78.670    470.000    530.266    -60.266    516.967    529.101    516.967    518.131    516.967
 78.770    544.000    530.316     13.684    516.985    529.172    516.985    518.129    516.985
 78.870    524.000    530.482     -6.482    517.002    529.357    517.002    518.127    517.002
 78.970    551.831    530.798     21.033    517.018    529.689    517.018    518.126    517.018
 79.070    570.734    531.327     39.407    517.033    530.232    517.033    518.126    517.033
 79.170    527.000    532.077     -5.077    517.046    530.993    517.046    518.128    517.046
 79.270    526.000    533.074     -7.074    517.058    531.998    517.058    518.132    517.058
 79.370    569.091    534.347     34.744    517.069    533.276    517.069    518.138    517.069
 79.470    561.000    535.929     25.071    517.078    534.858    517.078    518.146    517.078
 79.570    568.000    537.856     30.144    517.086    536.782    517.086    518.157    517.086
 79.670    489.000    540.183    -51.183    517.093    539.101    517.093    518.171    517.093
 79.770    526.072    542.997    -16.925    517.099    541.903    517.099    518.188    517.099
 79.870    515.000    546.437    -31.437    517.103    545.327    517.103    518.208    517.103
 79.970    520.000    550.712    -30.712    517.106    549.583    517.106    518.230    517.106
 80.070    559.000    556.129      2.871    517.108    554.978    517.108    518.255    517.108
 80.170    599.000    563.089     35.911    517.108    561.914    517.108    518.281    517.108
 80.270    595.610    572.041     23.568    517.107    570.842    517.107    518.306    517.107
 80.370    542.000    583.398    -41.398    517.105    582.176    517.105    518.329    517.105
 80.470    587.000    597.418    -10.418    517.101    596.179    517.101    518.346    517.101
 80.570    592.592    614.111    -21.519    517.096    612.863    517.096    518.355    517.096
 80.670    596.000    633.154    -37.154    517.090    631.908    517.090    518.352    517.090
 80.770    693.146    653.856     39.290    517.082    652.624    517.082    518.337    517.082
 80.870    656.000    675.178    -19.178    517.073    673.971    517.073    518.308    517.073
 80.970    688.000    695.838     -7.838    517.063    694.668    517.063    518.268    517.063
 81.070    731.091    714.499     16.592    517.051    713.374    517.051    518.219    517.051
 81.170    718.000    729.938    -11.938    517.038    728.862    517.038    518.164    517.038
 81.270    742.000    741.159      0.841    517.024    740.133    517.024    518.105    517.024
 81.370    708.000    747.464    -39.464    517.008    746.487    517.008    518.046    517.008
 81.470    778.000    748.528     29.472    516.991    747.597    516.991    517.987    516.991
 81.570    718.324    744.415    -26.091    516.972    743.527    516.972    517.929    516.972
 81.670    772.514    735.545     36.969    516.952    734.694    516.952    517.874    516.952
 81.770    740.000    722.675     17.325    516.931    721.856    516.931    517.822    516.931
 81.870    743.092    706.880     36.212    516.908    706.087    516.908    517.772    516.908
 81.970    691.615    689.415      2.200    516.884    688.642    516.884    517.724    516.884
 82.070    673.575    671.456      2.119    516.859    670.700    516.859    517.679    516.859
 82.170    629.000    653.885    -24.885    516.832    653.142    516.832    517.635    516.832
 82.270    652.000    637.222     14.778    516.804    636.489    516.804    517.593    516.804
 82.370    649.623    621.715     27.907    516.774    620.989    516.774    517.551    516.774
 82.470    629.000    607.496     21.504    516.743    606.775    516.743    517.510    516.743
 82.570    612.004    594.698     17.306    516.711    593.978    516.711    517.470    516.711
 82.670    553.000    583.482    -30.482    516.677    582.763    516.677    517.429    516.677
 82.770    565.000    574.011     -9.011    516.641    573.291    516.641    517.388    516.641
 82.870    528.000    566.418    -38.418    516.605    565.695    516.605    517.346    516.605
 82.970    575.000    560.790     14.210    516.567    560.064    516.567    517.304    516.567
 83.070    553.639    557.166     -3.528    516.527    556.437    516.527    517.261    516.527
 83.170    576.738    555.521     21.217    516.486    554.788    516.486    517.217    516.486
 83.270    549.000    555.745     -6.745    516.444    555.007    516.444    517.172    516.444
 83.370    542.000    557.633    -15.633    516.400    556.890    516.400    517.126    516.400
 83.470    592.000    560.868     31.132    516.355    560.120    516.355    517.079    516.355
 83.570    568.000    565.027      2.973    516.308    564.274    516.308    517.031    516.308
 83.670    539.000    569.586    -30.586    516.260    568.829    516.260    516.982    516.260
 83.770    551.000    573.948    -22.948    516.210    573.187    516.210    516.932    516.210
 83.870    575.000    577.484     -2.484    516.159    576.720    516.159    516.880    516.159
 83.970    584.000    579.616      4.384    516.107    578.851    516.107    516.828    516.107
 84.070    576.000    579.929     -3.929    516.053    579.164    516.053    516.774    516.053
 84.170    570.000    578.284     -8.284    515.998    577.522    515.998    516.719    515.998
 84.270    564.000    574.855    -10.855    515.941    574.096    515.941    516.663    515.941
 84.370    595.535    570.052     25.483    515.882    569.296    515.882    516.606    515.882
 84.470    602.357    564.393     37.964    515.823    563.641    515.823    516.547    515.823
 84.570    533.000    558.394    -25.394    515.762    557.645    515.762    516.487    515.762
 84.670    562.000    552.498      9.502    515.699    551.751    515.699    516.427    515.699
 84.770    505.665    547.047    -41.382    515.635    546.302    515.635    516.365    515.635
 84.870    530.000    542.268    -12.268    515.569    541.525    515.569    516.301    515.569
 84.970    530.260    538.280     -8.019    515.503    537.536    515.503    516.237    515.503
 85.070    518.000    535.105    -17.105    515.434    534.360    515.434    516.171    515.434
 85.170    504.226    532.697    -28.471    515.364    531.951    515.364    516.105    515.364
 85.270    581.000    530.969     50.031    515.293    530.220    515.293    516.037    515.293
 85.370    557.000    529.818     27.182    515.220    529.066    515.220    515.968    515.220
 85.470    537.000    529.146      7.854    515.146    528.390    515.146    515.897    515.146
 85.570    574.000    528.878     45.122    515.070    528.118    515.070    515.826    515.070
 85.670    526.467    528.973     -2.506    514.993    528.208    514.993    515.753    514.993
 85.770    524.159    529.427     -5.268    514.914    528.656    514.914    515.679    514.914
 85.870    556.275    530.280     25.995    514.834    529.503    514.834    515.604    514.834
 85.970    496.000    531.613    -35.613    514.753    530.828    514.753    515.528    514.753
 86.070    512.823    533.548    -20.725    514.670    532.755    514.670    515.451    514.670
 86.170    517.000    536.241    -19.241    514.585    535.438    514.585    515.372    514.585
 86.270    510.626    539.869    -29.243    514.499    539.055    514.499    515.293    514.499
 86.370    565.000    544.611     20.389    514.412    543.784    514.412    515.212    514.412
 86.470    562.645    550.619     12.026    514.323    549.778    514.323    515.130    514.323
 86.570    552.000    557.986     -5.986    514.233    557.129    514.233    515.047    514.233
 86.670    556.000    566.707    -10.707    514.141    565.833    514.141    514.963    514.141
 86.770    564.000    576.643    -12.643    514.048    575.749    514.048    514.878    514.048
 86.870    594.000    587.492      6.508    513.953    586.577    513.953    514.792    513.953
 86.970    602.556    598.771      3.784    513.857    597.836    513.857    514.705    513.857
 87.070    596.395    609.824    -13.429    513.760    608.869    513.760    514.617    513.760
 87.170    600.949    619.841    -18.893    513.661    618.868    513.661    514.528    513.661
 87.270    599.000    627.934    -28.934    513.560    626.944    513.560    514.438    513.560
 87.370    621.000    633.265    -12.265    513.459    632.262    513.459    514.347    513.459
 87.470    609.080    635.241    -26.161    513.355    634.230    513.355    514.255    513.355
 87.570    616.025    633.689    -17.664    513.250    632.672    513.250    514.162    513.250
 87.670    661.813    628.907     32.907    513.144    627.887    513.144    514.069    513.144
 87.770    653.000    621.571     31.429    513.037    620.550    513.037    513.974    513.037
 87.870    642.344    612.565     29.779    512.928    611.543    512.928    513.879    512.928
 87.970    630.743    602.827     27.917    512.817    601.804    512.817    513.783    512.817
 88.070    632.923    593.236     39.688    512.705    592.210    512.705    513.687    512.705
 88.170    592.358    584.581      7.777    512.592    583.551    512.592    513.590    512.592
 88.270    604.000    577.486     26.514    512.477    576.449    512.477    513.492    512.477
 88.370    583.000    572.370     10.630    512.361    571.325    512.361    513.394    512.361
 88.470    575.371    569.468      5.903    512.243    568.414    512.243    513.295    512.243
 88.570    559.140    568.824     -9.683    512.124    567.758    512.124    513.196    512.124
 88.670    596.000    570.301     25.699    512.004    569.222    512.004    513.096    512.004
 88.770    536.062    573.602    -37.540    511.882    572.509    511.882    512.996    511.882
 88.870    550.000    578.289    -28.289    511.758    577.181    511.758    512.896    511.758
 88.970    581.000    583.810     -2.810    511.634    582.683    511.634    512.796    511.634
 89.070    587.000    589.521     -2.521    511.507    588.376    511.507    512.696    511.507
 89.170    605.000    594.734     10.266    511.380    593.568    511.380    512.597    511.380
 89.270    614.000    598.760     15.240    511.251    597.570    511.251    512.497    511.251
 89.370    635.215    601.008     34.207    511.121    599.792    511.121    512.398    511.121
 89.470    605.662    601.088      4.574    510.989    599.840    510.989    512.300    510.989
 89.570    603.000    598.898      4.102    510.856    597.615    510.856    512.203    510.856
 89.670    621.634    594.643     26.991    510.722    593.320    510.722    512.106    510.722
 89.770    569.000    588.754    -19.754    510.586    587.387    510.586    512.011    510.586
 89.870    583.000    581.776      1.224    510.449    580.360    510.449    511.917    510.449
 89.970    573.000    574.261     -1.261    510.310    572.792    510.310    511.825    510.310
 90.070    559.084    566.708     -7.624    510.170    565.182    510.170    511.736    510.170
 90.170    559.000    559.521     -0.521    510.029    557.934    510.029    511.649    510.029
 90.270    501.000    552.998    -51.998    509.886    551.345    509.886    511.565    509.886
 90.370    520.673    547.329    -26.656    509.742    545.606    509.742    511.486    509.742
 90.470    568.737    542.603     26.133    509.597    540.805    509.597    511.412    509.597
 90.570    568.922    538.828     30.094    509.450    536.946    509.450    511.344    509.450
 90.670    564.000    535.946     28.054    509.302    533.973    509.302    511.284    509.302
 90.770    513.000    533.868    -20.868    509.153    531.792    509.153    511.234    509.153
 90.870    574.000    532.485     41.515    509.002    530.294    509.002    511.197    509.002
 90.970    503.000    531.699    -28.699    508.850    529.376    508.850    511.176    508.850
 91.070    527.000    531.429     -4.429    508.697    528.951    508.697    511.176    508.697
 91.170    504.000    531.625    -27.625    508.543    528.966    508.543    511.201    508.543
 91.270    516.556    532.276    -15.720    508.387    529.402    508.387    511.260    508.387
 91.370    528.000    533.413     -5.413    508.230    530.281    508.230    511.359    508.230
 91.470    560.000    535.108     24.892    508.071    531.668    508.071    511.508    508.071
 91.570    531.000    537.480     -6.480    507.912    533.668    507.912    511.717    507.912
 91.670    537.000    540.683     -3.683    507.751    536.428    507.751    511.999    507.751
 91.770    579.000    544.911     34.089    507.588    540.124    507.588    512.365    507.588
 91.870    526.912    550.376    -23.464    507.425    544.959    507.425    512.829    507.425
 91.970    541.000    557.301    -16.301    507.260    551.144    507.260    513.402    507.260
 92.070    537.000    565.895    -28.895    507.094    558.873    507.094    514.094    507.094
 92.170    561.000    576.295    -15.295    506.927    568.280    506.927    514.916    506.927
 92.270    537.000    588.681    -51.681    506.758    579.537    506.758    515.871    506.758
 92.370    617.000    603.074     13.926    506.589    592.666    506.589    516.960    506.589
 92.470    626.000    619.380      6.620    506.418    607.577    506.418    518.176    506.418
 92.570    652.000    637.381     14.619    506.246    624.067    506.246    519.509    506.246
 92.670    648.000    656.721     -8.721    506.073    641.802    506.073    520.935    506.073
 92.770    663.000    676.900    -13.900    505.898    660.313    505.898    522.422    505.898
 92.870    709.091    697.286     11.804    505.722    679.013    505.722    523.927    505.722
 92.970    741.598    717.166     24.432    505.546    697.249    505.546    525.390    505.546
 93.070    775.292    735.838     39.454    505.368    714.392    505.368    526.738    505.368
 93.170    781.000    752.736     28.264    505.188    729.961    505.188    527.888    505.188
 93.270    733.000    767.534    -34.534    505.008    743.719    505.008    528.748    505.008
 93.370    753.000    780.179    -27.179    504.827    755.693    504.827    529.238    504.827
 93.470    794.163    790.833      3.331    504.644    766.106    504.644    529.298    504.644
 93.570    776.000    799.785    -23.785    504.460    775.267    504.460    528.908    504.460
 93.670    840.000    807.378     32.622    504.276    783.497    504.276    528.089    504.276
 93.770    859.000    813.998     45.002    504.090    791.123    504.090    526.900    504.090
 93.870    819.687    820.115     -0.428    503.903    798.532    503.903    525.424    503.903
 93.970    865.000    826.285     38.715    503.715    806.190    503.715    523.749    503.715
 94.070    809.942    833.065    -23.123    503.526    814.570    503.526    521.962    503.526
 94.170    847.000    840.882      6.118    503.335    824.027    503.335    520.135    503.335
 94.270    818.227    849.864    -31.637    503.144    834.629    503.144    518.326    503.144
 94.370    820.465    859.720    -39.254    502.952    846.042    502.952    516.580    502.952
 94.470    871.000    869.714      1.286    502.758    857.498    502.758    514.928    502.758
 94.570    880.000    878.713      1.287    502.564    867.843    502.564    513.394    502.564
 94.670    906.000    885.313     20.687    502.369    875.659    502.369    511.988    502.369
 94.770    884.157    888.041     -3.884    502.172    879.469    502.172    510.718    502.172
 94.870    928.000    885.633     42.367    501.975    878.008    501.975    509.582    501.975
 94.970    925.590    877.335     48.255    501.777    870.525    501.777    508.576    501.777
 95.070    897.615    863.110     34.505    501.577    856.993    501.577    507.692    501.577
 95.170    877.166    843.670     33.496    501.377    838.133    501.377    506.918    501.377
 95.270    851.000    820.324     30.676    501.176    815.266    501.176    506.244    501.176
 95.370    833.000    794.750     38.250    500.974    790.080    500.974    505.656    500.974
 95.470    830.000    768.775     61.225    500.771    764.417    500.771    505.142    500.771
 95.570    740.059    744.226     -4.167    500.567    740.115    500.567    504.691    500.567
 95.670    731.798    722.834      8.964    500.362    718.915    500.362    504.292    500.362
 95.770    676.000    706.181    -30.181    500.156    702.408    500.156    503.936    500.156
 95.870    698.000    695.668      2.332    499.949    692.002    499.949    503.616    499.949
 95.970    663.792    692.500    -28.708    499.742    688.911    499.742    503.325    499.742
 96.070    688.000    697.686     -9.686    499.533    694.148    499.533    503.058    499.533
 96.170    750.670    712.026     38.644    499.324    708.517    499.324    502.811    499.324
 96.270    767.940    736.092     31.848    499.114    732.593    499.114    502.581    499.114
 96.370    830.000    770.172     59.828    498.903    766.668    498.903    502.365    498.903
 96.470    875.000    814.263     60.737    498.692    810.740    498.692    502.161    498.692
 96.570    867.000    867.910     -0.910    498.479    864.357    498.479    501.969    498.479
 96.670    933.000    930.150      2.850    498.266    926.557    498.266    501.787    498.266
 96.770   1019.283    999.445     19.839    498.052    995.801    498.052    501.615    498.052
 96.870   1093.207   1073.618     19.589    497.838   1069.916    497.838    501.453    497.838
 96.970   1136.000   1149.846    -13.846    497.622   1146.079    497.622    501.300    497.622
 97.070   1247.570   1224.692     22.878    497.406   1220.853    497.406    501.158    497.406
 97.170   1347.000   1294.211     52.789    497.189   1290.292    497.189    501.026    497.189
 97.270   1378.000   1354.171     23.829    496.972   1350.167    496.972    500.904    496.972
 97.370   1372.000   1400.448    -28.448    496.754   1396.350    496.754    500.794    496.754
 97.470   1478.000   1429.582     48.418    496.535   1425.381    496.535    500.696    496.535
 97.570   1382.336   1439.401    -57.066    496.316   1435.085    496.316    500.612    496.316
 97.670   1394.000   1429.455    -35.455    496.095   1425.008    496.095    500.543    496.095
 97.770   1439.124   1401.067     38.057    495.875   1396.470    495.875    500.491    495.875
 97.870   1343.000   1356.989    -13.989    495.653   1352.218    495.653    500.461    495.653
 97.970   1290.000   1300.837    -10.837    495.432   1295.864    495.432    500.454    495.432
 98.070   1277.000   1236.588     40.412    495.209   1231.380    495.209    500.476    495.209
 98.170   1091.000   1168.210    -77.210    494.986   1162.727    494.986    500.533    494.986
 98.270   1120.967   1099.423     21.544    494.763   1093.618    494.763    500.632    494.763
 98.370   1066.000   1033.559     32.441    494.539   1027.376    494.539    500.783    494.539
 98.470    935.000    973.496    -38.496    494.314    966.869    494.314    500.998    494.314
 98.570    897.533    921.632    -24.099    494.089    914.477    494.089    501.293    494.089
 98.670    919.000    879.891     39.109    493.864    872.110    493.864    501.686    493.864
 98.770    816.076    849.764    -33.688    493.638    841.235    493.638    502.198    493.638
 98.870    799.629    832.359    -32.729    493.411    822.936    493.411    502.856    493.411
 98.970    787.365    828.461    -41.096    493.185    817.969    493.185    503.689    493.185
 99.070    857.586    838.591     18.995    492.957    826.821    492.957    504.730    492.957
 99.170    875.000    863.028     11.972    492.730    849.738    492.730    506.016    492.730
 99.270    873.000    901.820    -28.820    492.502    886.727    492.502    507.586    492.502
 99.370   1008.437    954.747     53.691    492.274    937.530    492.274    509.477    492.274
 99.470    989.000   1021.261    -32.261    492.045   1001.562    492.045    511.729    492.045
 99.570   1133.153   1100.415     32.737    491.816   1077.843    491.816    514.376    491.816
 99.670   1234.000   1190.776     43.224    491.587   1164.909    491.587    517.447    491.587
 99.770   1348.000   1290.348     57.652    491.357   1260.745    491.357    520.962    491.357
 99.870   1335.000   1396.515    -61.515    491.128   1362.728    491.128    524.930    491.128
 99.970   1604.000   1506.030     97.970    490.898   1467.617    490.898    529.342    490.898
100.070   1638.000   1615.072     22.928    490.668   1571.615    490.668    534.176    490.668
100.170   1649.719   1719.471    -69.752    490.437   1670.600    490.437    539.384    490.437
100.270   1832.000   1814.963     17.037    490.207   1760.376    490.207    544.896    490.207
100.370   1954.452   1897.578     56.875    489.976   1837.071    489.976    550.613    489.976
100.470   2020.000   1963.976     56.024    489.745   1897.474    489.745    556.403    489.745
100.570   1985.000   2011.606    -26.606    489.514   1939.201    489.514    562.101    489.514
100.670   1960.696   2038.694    -77.997    489.283   1960.675    489.283    567.505    489.283
100.770   2084.000   2044.198     39.802    489.052   1961.090    489.052    572.382    489.052
100.870   2004.000   2027.899    -23.899    488.821   1940.479    488.821    576.475    488.821
100.970   1972.000   1990.632    -18.632    488.589   1899.931    488.589    579.533    488.589
101.070   1960.000   1934.530     25.470    488.358   1841.796    488.358    581.336    488.358
101.170   1870.893   1863.029      7.863    488.127   1769.660    488.127    581.737    488.127
101.270   1732.533   1780.566    -48.034    487.895   1688.006    487.895    580.689    487.895
101.370   1646.000   1692.034    -46.034    487.664   1601.666    487.664    578.252    487.664
101.470   1626.763   1602.210     24.553    487.433   1515.260    487.433    574.589    487.433
101.570   1512.000   1515.308     -3.308    487.202   1432.775    487.202    569.923    487.202
101.670   1457.000   1434.695     22.305    486.971   1357.326    486.971    564.511    486.971
101.770   1350.000   1362.753    -12.753    486.740   1291.042    486.740    558.605    486.740
101.870   1274.000   1300.846    -26.846    486.510   1235.058    486.510    552.436    486.510
101.970   1263.000   1249.355     13.645    486.279   1189.557    486.279    546.201    486.279
102.070   1211.591   1207.757      3.835    486.049   1153.858    486.049    540.061    486.049
102.170   1120.701   1174.754    -54.053    485.819   1126.536    485.819    534.141    485.819
102.270   1174.000   1148.434     25.566    485.589   1105.584    485.589    528.537    485.589
102.370   1142.000   1126.474     15.526    485.359   1088.612    485.359    523.317    485.359
102.470   1107.000   1106.398      0.602    485.130   1073.101    485.130    518.522    485.130
102.570   1110.646   1085.874     24.772    484.901   1056.694    484.901    514.175    484.901
102.670   1070.000   1063.012      6.988    484.672   1037.498    484.672    510.281    484.672
102.770   1073.719   1036.595     37.125    484.444   1014.304    484.444    506.830    484.444
102.870   1016.000   1006.166      9.834    484.216    986.678    484.216    503.799    484.216
102.970    954.000    971.955    -17.955    483.988    954.876    483.988    501.160    483.988
103.070    929.712    934.694     -4.982    483.761    919.669    483.761    498.876    483.761
103.170    878.000    895.406    -17.406    483.535    882.116    483.535    496.910    483.535
103.270    879.000    855.227     23.773    483.309    843.393    483.309    495.223    483.309
103.370    789.000    815.274    -26.274    483.083    804.654    483.083    493.776    483.083
103.470    803.000    776.561     26.439    482.858    766.952    482.858    492.533    482.858
103.570    729.513    739.949    -10.436    482.633    731.179    482.633    491.461    482.633
103.670    707.000    706.110      0.890    482.409    698.038    482.409    490.532    482.409
103.770    688.843    675.516     13.328    482.186    668.024    482.186    489.721    482.186
103.870    680.013    648.434     31.578    481.963    641.429    481.963    489.005    481.963
103.970    654.000    624.948     29.052    481.741    618.352    481.741    488.367    481.741
104.070    612.000    604.978      7.022    481.519    598.730    481.519    487.792    481.519
104.170    652.000    588.321     63.679    481.299    582.371    481.299    487.269    481.299
104.270    560.000    574.687    -14.687    481.078    568.993    481.078    486.788    481.078
104.370    591.859    563.732     28.127    480.859    558.263    480.859    486.341    480.859
104.470    545.000    555.097    -10.097    480.641    549.824    480.641    485.923    480.641
104.570    587.300    548.431     38.869    480.423    543.332    480.423    485.529    480.423
104.670    572.000    543.410     28.590    480.206    538.466    480.206    485.154    480.206
104.770    527.225    539.756    -12.531    479.990    534.950    479.990    484.798    479.990
104.870    583.000    537.237     45.763    479.775    532.555    479.775    484.458    479.775
104.970    539.000    535.677      3.323    479.561    531.105    479.561    484.133    479.561
105.070    535.000    534.953      0.047    479.348    530.479    479.348    483.820    479.348
105.170    517.925    534.984    -17.059    479.136    530.598    479.136    483.518    479.136
105.270    533.000    535.732     -2.732    478.924    531.425    478.924    483.227    478.924
105.370    556.000    537.216     18.784    478.714    532.978    478.714    482.946    478.714
105.470    501.035    539.472    -38.438    478.505    535.295    478.505    482.674    478.505
105.570    533.000    542.566     -9.566    478.297    538.442    478.297    482.411    478.297
105.670    578.345    546.578     31.766    478.090    542.500    478.090    482.156    478.090
105.770    551.000    551.598     -0.598    477.884    547.558    477.884    481.909    477.884
105.870    569.000    557.703     11.297    477.680    553.695    477.680    481.670    477.680
105.970    549.000    564.949    -15.949    477.476    560.968    477.476    481.438    477.476
106.070    613.000    573.357     39.643    477.274    569.395    477.274    481.213    477.274
106.170    567.000    582.899    -15.899    477.073    578.951    477.073    480.995    477.073
106.270    585.000    593.490     -8.490    476.873    589.551    476.873    480.783    476.873
106.370    620.511    604.987     15.524    476.675    601.051    476.675    480.578    476.675
106.470    573.000    617.180    -44.180    476.478    613.243    476.478    480.379    476.478
106.570    601.000    629.801    -28.801    476.283    625.857    476.283    480.187    476.283
106.670    600.071    642.523    -42.452    476.088    638.569    476.088    480.001    476.088
106.770    668.816    654.974     13.841    475.896    651.006    475.896    479.821    475.896
106.870    692.029    666.755     25.274    475.705    662.768    475.705    479.647    475.705
106.970    655.000    677.457    -22.457    475.515    673.447    475.515    479.480    475.515
107.070    667.000    686.701    -19.701    475.327    682.666    475.327    479.318    475.327
107.170    697.000    694.185      2.815    475.140    690.120    475.140    479.163    475.140
107.270    652.000    699.728    -47.728    474.955    695.630    474.955    479.014    474.955
107.370    661.534    703.317    -41.783    474.772    699.182    474.772    478.871    474.772
107.470    675.000    705.107    -30.107    474.590    700.930    474.590    478.735    474.590
107.570    682.000    705.402    -23.402    474.410    701.180    474.410    478.605    474.410
107.670    706.000    704.605      1.395    474.232    700.332    474.232    478.482    474.232
107.770    638.000    703.152    -65.152    474.055    698.824    474.055    478.366    474.055
107.870    710.000    701.459      8.541    473.881    697.071    473.881    478.256    473.881
107.970    724.000    699.876     24.124    473.708    695.422    473.708    478.154    473.708
108.070    691.229    698.659     -7.430    473.537    694.133    473.537    478.059    473.537
108.170    735.000    697.949     37.051    473.368    693.346    473.368    477.972    473.368
108.270    679.000    697.772    -18.772    473.201    693.085    473.201    477.892    473.201
108.370    725.000    698.028     26.972    473.036    693.251    473.036    477.821    473.036
108.470    691.000    698.507     -7.507    472.872    693.634    472.872    477.758    472.872
108.570    684.000    698.902    -14.902    472.711    693.926    472.711    477.704    472.711
108.670    722.830    698.837     23.993    472.552    693.750    472.552    477.658    472.552
108.770    679.000    697.909    -18.909    472.395    692.704    472.395    477.623    472.395
108.870    682.000    695.743    -13.743    472.241    690.411    472.241    477.597    472.241
108.970    715.000    692.048     22.952    472.088    686.581    472.088    477.581    472.088
109.070    641.781    686.664    -44.883    471.938    681.053    471.938    477.577    471.938
109.170    650.000    679.584    -29.584    471.789    673.818    471.789    477.584    471.789
109.270    728.000    670.945     57.055    471.644    665.014    471.644    477.603    471.644
109.370    641.574    660.999    -19.425    471.500    654.891    471.500    477.635    471.500
109.470    638.000    650.065    -12.065    471.359    643.770    471.359    477.681    471.359
109.570    606.000    638.497    -32.497    471.220    632.001    471.220    477.742    471.220
109.670    653.000    626.645     26.355    471.084    619.935    471.084    477.818    471.084
109.770    664.000    614.841     49.159    470.950    607.902    470.950    477.911    470.950
109.870    617.000    603.381     13.619    470.819    596.196    470.819    478.023    470.819
109.970    584.000    592.516     -8.516    470.690    585.068    470.690    478.155    470.690
110.070    596.000    582.451     13.549    470.564    574.720    470.564    478.310    470.564
110.170    604.000    573.340     30.660    470.440    565.303    470.440    478.489    470.440
110.270    602.720    565.284     37.435    470.319    556.918    470.319    478.696    470.319
110.370    543.836    558.340    -14.504    470.201    549.614    470.201    478.934    470.201
110.470    600.000    552.518     47.482    470.085    543.401    470.085    479.209    470.085
110.570    540.000    547.797     -7.797    469.972    538.250    469.972    479.524    469.972
110.670    533.000    544.124    -11.124    469.863    534.102    469.863    479.887    469.863
110.770    535.955    541.427     -5.472    469.756    530.877    469.756    480.306    469.756
110.870    562.000    539.599     22.401    469.651    528.460    469.651    480.790    469.651
110.970    588.000    538.579     49.421    469.550    526.777    469.550    481.351    469.550
111.070    552.000    538.303     13.697    469.452    525.751    469.452    482.001    469.452
111.170    540.422    538.670      1.751    469.357    525.265    469.357    482.758    469.357
111.270    574.000    539.607     34.393    469.264    525.228    469.264    483.639    469.264
111.370    580.940    541.056     39.885    469.175    525.559    469.175    484.667    469.175
111.470    528.308    542.970    -14.662    469.089    526.188    469.089    485.866    469.089
111.570    511.631    545.320    -33.688    469.007    527.055    469.007    487.264    469.007
111.670    581.000    548.088     32.912    468.927    528.113    468.927    488.894    468.927
111.770    571.000    551.271     19.729    468.851    529.324    468.851    490.789    468.851
111.870    570.000    554.881     15.119    468.778    530.662    468.778    492.989    468.778
111.970    570.000    558.944     11.056    468.708    532.111    468.708    495.533    468.708
112.070    537.000    563.496    -26.496    468.642    533.666    468.642    498.463    468.642
112.170    573.000    568.587      4.413    468.579    535.334    468.579    501.823    468.579
112.270    594.000    574.276     19.724    468.519    537.130    468.519    505.656    468.519
112.370    578.000    580.628     -2.628    468.463    539.078    468.463    510.004    468.463
112.470    602.000    587.717     14.283    468.411    541.212    468.411    514.906    468.411
112.570    598.465    595.619      2.846    468.362    543.576    468.362    520.396    468.362
112.670    580.000    604.417    -24.417    468.317    546.224    468.317    526.500    468.317
112.770    545.000    614.199    -69.199    468.276    549.227    468.276    533.237    468.276
112.870    624.046    625.062     -1.016    468.238    552.674    468.238    540.615    468.238
112.970    633.000    637.119     -4.119    468.204    556.684    468.204    548.627    468.204
113.070    644.000    650.500     -6.500    468.174    561.407    468.174    557.254    468.174
113.170    652.992    665.366    -12.373    468.148    567.044    468.148    566.456    468.148
113.270    653.000    681.917    -28.917    468.126    573.851    468.126    576.175    468.126
113.370    728.490    700.411     28.079    468.107    582.166    468.107    586.334    468.107
113.470    684.000    721.175    -37.175    468.093    592.419    468.093    596.828    468.093
113.570    712.000    744.631    -32.631    468.082    605.160    468.082    607.528    468.082
113.670    749.000    771.310    -22.310    468.076    621.079    468.076    618.278    468.076
113.770    831.016    801.883     29.132    468.074    641.032    468.074    628.890    468.074
113.870    765.000    837.180    -72.180    468.076    666.065    468.076    639.149    468.076
113.970    853.538    878.212    -24.674    468.082    697.434    468.082    648.809    468.082
114.070    895.104    926.197    -31.093    468.093    736.622    468.093    657.605    468.093
114.170    896.000    982.572    -86.572    468.108    785.345    468.108    665.258    468.108
114.270    994.000   1049.009    -55.009    468.127    845.548    468.127    671.495    468.127
114.370   1114.562   1127.415    -12.853    468.151    919.383    468.151    676.069    468.151
114.470   1221.000   1219.914      1.086    468.179   1009.171    468.179    678.786    468.179
114.570   1309.000   1328.809    -19.809    468.211   1117.334    468.211    679.522    468.211
114.670   1512.000   1456.509     55.491    468.249   1246.317    468.249    678.246    468.249
114.770   1702.000   1605.424     96.576    468.290   1398.468    468.290    675.018    468.290
114.870   1877.000   1777.819     99.181    468.337   1575.907    468.337    669.983    468.337
114.970   1901.178   1975.644    -74.466    468.388   1780.369    468.388    663.355    468.388
115.070   2315.000   2200.339    114.661    468.444   2013.040    468.444    655.392    468.444
115.170   2539.000   2452.641     86.359    468.504   2274.381    468.504    646.370    468.504
115.270   2753.216   2732.396     20.820    468.570   2563.963    468.570    636.566    468.570
115.370   3052.000   3038.394     13.606    468.640   2880.314    468.640    626.241    468.640
115.470   3404.000   3368.239     35.761    468.716   3220.807    468.716    615.632    468.716
115.570   3873.000   3718.264    154.736    468.796   3581.566    468.796    604.945    468.796
115.670   4179.000   4083.494     95.506    468.882   3957.442    468.882    594.359    468.882
115.770   4425.222   4457.664    -32.442    468.972   4342.023    468.972    584.023    468.972
115.870   4812.000   4833.295    -21.295    469.068   4727.712    469.068    574.057    469.068
115.970   5110.000   5201.832    -91.832    469.169   5105.858    469.169    564.557    469.169
116.070   5554.000   5553.837      0.163    469.275   5466.953    469.275    555.596    469.275
116.170   5954.000   5879.276     74.724    469.386   5800.912    469.386    547.226    469.386
116.270   6209.000   6167.889     41.111    469.503   6097.443    469.503    539.479    469.503
116.370   6395.000   6409.690    -14.690    469.625   6346.544    469.625    532.369    469.625
116.470   6750.000   6595.591    154.409    469.753   6539.120    469.753    525.903    469.753
116.570   6717.056   6718.103     -1.047    469.886   6667.694    469.886    520.068    469.886
116.670   6839.000   6772.046     66.954    470.025   6727.103    470.025    514.842    470.025
116.770   6700.000   6755.106    -55.106    470.169   6715.055    470.169    510.196    470.169
116.870   6569.000   6668.087    -99.087    470.319   6632.389    470.319    506.095    470.319
116.970   6486.000   6514.810    -28.810    470.475   6482.960    470.475    502.498    470.475
117.070   6294.215   6301.668     -7.452    470.636   6273.198    470.636    499.364    470.636
117.170   5943.000   6036.963    -93.963    470.804   6011.448    470.804    496.650    470.804
117.270   5662.000   5730.193    -68.193    470.977   5707.248    470.977    494.311    470.977
117.370   5248.000   5391.389   -143.389    471.156   5370.670    471.156    492.307    471.156
117.470   4852.000   5030.566   -178.566    471.341   5011.769    471.341    490.598    471.341
117.570   4710.000   4657.303     52.697    471.533   4640.163    471.533    489.146    471.533
117.670   4241.000   4280.435    -39.435    471.730   4264.720    471.730    487.919    471.730
117.770   3847.000   3907.821    -60.821    471.933   3893.332    471.933    486.885    471.933
117.870   3568.000   3546.184     21.816    472.143   3532.758    472.143    486.011    472.143
117.970   3266.000   3201.059     64.941    472.359   3188.546    472.359    485.286    472.359
118.070   2947.000   2876.772     70.228    472.581   2865.050    472.581    484.684    472.581
118.170   2542.000   2576.385    -34.385    472.810   2565.352    472.810    484.186    472.810
118.270   2307.000   2301.848      5.152    473.045   2291.420    473.045    483.778    473.045
118.370   1950.000   2054.090   -104.090    473.287   2044.197    473.287    483.446    473.287
118.470   1845.000   1833.152     11.848    473.535   1823.734    473.535    483.180    473.535
118.570   1559.000   1638.332    -79.332    473.790   1629.342    473.790    482.971    473.790
118.670   1361.000   1468.344   -107.344    474.051   1459.741    474.051    482.812    474.051
118.770   1215.000   1321.468   -106.468    474.319   1313.219    474.319    482.697    474.319
118.870   1189.000   1195.697     -6.697    474.594   1187.773    474.594    482.621    474.594
118.970   1078.994   1088.867     -9.873    474.876   1081.243    474.876    482.580    474.876
119.070   1036.000    998.772     37.228    475.165    991.428    475.165    482.571    475.165
119.170    935.292    923.255     12.037    475.461    916.172    475.461    482.591    475.461
119.270    860.000    860.280     -0.280    475.763    853.440    475.763    482.638    475.763
119.370    818.000    807.973     10.027    476.073    801.361    476.073    482.710    476.073
119.470    721.000    764.657    -43.657    476.390    758.258    476.390    482.807    476.390
119.570    703.000    728.859    -25.859    476.714    722.659    476.714    482.927    476.714
119.670    679.000    699.309    -20.309    477.046    693.295    477.046    483.070    477.046
119.770    645.955    674.932    -28.977    477.384    669.090    477.384    483.234    477.384
119.870    669.000    654.830     14.170    477.731    649.147    477.731    483.419    477.731
119.970    597.005    638.261    -41.256    478.084    632.725    478.084    483.625    478.084
120.070    633.000    624.621      8.379    478.445    619.219    478.445    483.852    478.445
120.170    601.000    613.423    -12.423    478.814    608.140    478.814    484.100    478.814
120.270    598.000    604.273     -6.273    479.190    599.099    479.190    484.369    479.190
120.370    686.000    596.862     89.138    479.574    591.782    479.574    484.658    479.574
120.470    567.344    590.941    -23.598    479.966    585.944    479.966    484.968    479.966
120.570    563.000    586.317    -23.317    480.365    581.388    480.365    485.299    480.365
120.670    565.597    582.835    -17.238    480.773    577.962    480.773    485.652    480.773
120.770    623.000    580.374     42.626    481.188    575.544    481.188    486.025    481.188
120.870    546.594    578.837    -32.243    481.611    574.036    481.611    486.420    481.611
120.970    586.000    578.145      7.855    482.043    573.359    482.043    486.837    482.043
121.070    596.000    578.232     17.768    482.482    573.449    482.482    487.275    482.482
121.170    562.000    579.041    -17.041    482.930    574.247    482.930    487.734    482.930
121.270    594.000    580.518     13.482    483.386    575.701    483.386    488.215    483.386
121.370    566.000    582.611    -16.611    483.850    577.758    483.850    488.717    483.850
121.470    649.000    585.266     63.734    484.323    580.365    484.323    489.240    484.323
121.570    621.675    588.426     33.249    484.804    583.465    484.804    489.782    484.804
121.670    591.362    592.027     -0.665    485.294    586.995    485.294    490.345    485.294
121.770    602.000    595.999      6.001    485.792    590.887    485.792    490.926    485.792
121.870    566.060    600.265    -34.205    486.299    595.064    486.299    491.525    486.299
121.970    628.251    604.741     23.510    486.815    599.443    486.815    492.139    486.815
122.070    643.299    609.332     33.967    487.339    603.932    487.339    492.769    487.339
122.170    593.233    613.940    -20.708    487.872    608.434    487.872    493.411    487.872
122.270    606.000    618.461    -12.461    488.414    612.846    488.414    494.064    488.414
122.370    637.254    622.785     14.469    488.966    617.062    488.966    494.726    488.966
122.470    594.563    626.805    -32.242    489.526    620.977    489.526    495.394    489.526
122.570    656.000    630.414     25.586    490.095    624.488    490.095    496.064    490.095
122.670    627.000    633.517     -6.517    490.674    627.501    490.674    496.734    490.674
122.770    650.000    636.031     13.969    491.261    629.937    491.261    497.401    491.261
122.870    612.190    637.890    -25.700    491.858    631.735    491.858    498.062    491.858
122.970    667.351    639.054     28.297    492.465    632.855    492.465    498.713    492.465
123.070    642.000    639.508      2.492    493.081    633.287    493.081    499.351    493.081
123.170    602.471    639.261    -36.790    493.706    633.042    493.706    499.975    493.706
123.270    625.000    638.346    -13.346    494.341    632.153    494.341    500.583    494.341
123.370    674.000    636.813     37.187    494.986    630.672    494.986    501.174    494.986
123.470    644.000    634.727      9.273    495.641    628.664    495.641    501.749    495.641
123.570    628.133    632.163     -4.030    496.305    626.203    496.305    502.308    496.305
123.670    645.855    629.200     16.655    496.979    623.365    496.979    502.855    496.979
123.770    625.730    625.917     -0.187    497.663    620.228    497.663    503.390    497.663
123.870    610.000    622.395    -12.395    498.358    616.869    498.358    503.919    498.358
123.970    656.520    618.707     37.813    499.062    613.359    499.062    504.442    499.062
124.070    609.320    614.921     -5.602    499.776    609.763    499.776    504.964    499.776
124.170    652.000    611.098     40.902    500.501    606.137    500.501    505.488    500.501
124.270    634.000    607.288     26.712    501.236    602.530    501.236    506.017    501.236
124.370    610.000    603.532      6.468    501.981    598.980    501.981    506.554    501.981
124.470    612.000    599.860     12.140    502.737    595.515    502.737    507.100    502.737
124.570    619.000    596.294     22.706    503.504    592.155    503.504    507.659    503.504
124.670    608.000    592.848     15.152    504.281    588.910    504.281    508.232    504.281
124.770    549.000    589.527    -40.527    505.068    585.787    505.068    508.820    505.068
124.870    599.988    586.333     13.655    505.867    582.785    505.867    509.425    505.867
124.970    566.914    583.264    -16.350    506.676    579.900    506.676    510.048    506.676
