neutron_powder_diffraction_0161
R_wp: 4.036
Temperature (K): 1074.000
Counts: 84034.00
Wavelength (Ã…): 2.52098
COMMENTS
Test file for demonstrating the .xyy file format in Reel1.0
END OF HEADER
   tth       Y_obs     Y_calc      Y_res    Background    Phase_1_Nuc    Phase_1_Mag    Phase_2_Nuc    Phase_2_Mag
  9.970    575.000    561.863     13.137    561.101    561.789    561.101    561.174    561.101
 10.070    570.000    562.168      7.832    561.346    562.094    561.346    561.420    561.346
 10.170    597.528    562.474     35.054    561.584    562.400    561.584    561.657    561.584
 10.270    556.000    562.783     -6.783    561.814    562.709    561.814    561.888    561.814
 10.370    588.429    563.098     25.330    562.037    563.023    562.037    562.111    562.037
 10.470    559.000    563.421     -4.421    562.252    563.346    562.252    562.327    562.252
 10.570    570.855    563.756      7.098    562.460    563.681    562.460    562.535    562.460
 10.670    543.000    564.109    -21.109    562.661    564.033    562.661    562.737    562.661
 10.770    604.013    564.486     39.527    562.855    564.410    562.855    562.931    562.855
 10.870    524.852    564.898    -40.046    563.042    564.821    563.042    563.118    563.042
 10.970    533.354    565.355    -32.001    563.221    565.278    563.221    563.298    563.221
 11.070    622.000    565.877     56.123    563.394    565.799    563.394    563.471    563.394
 11.170    606.638    566.491     40.147    563.560    566.412    563.560    563.637    563.560
 11.270    570.000    567.238      2.762    563.719    567.159    563.719    563.796    563.719
 11.370    597.150    568.192     28.958    563.871    568.112    563.871    563.948    563.871
 11.470    530.317    569.511    -39.194    564.016    569.430    564.016    564.094    564.016
 11.570    618.960    571.634     47.326    564.155    571.551    564.155    564.233    564.155
 11.670    535.708    575.764    -40.057    564.287    575.679    564.287    564.366    564.287
 11.770    602.000    584.605     17.395    564.413    584.515    564.413    564.492    564.413
 11.870    634.000    602.363     31.637    564.532    602.262    564.532    564.611    564.532
 11.970    678.000    632.131     45.869    564.645    632.013    564.645    564.724    564.645
 12.070    664.000    669.976     -5.976    564.751    669.836    564.751    564.831    564.751
 12.170    676.000    699.596    -23.596    564.851    699.439    564.851    564.931    564.851
 12.270    691.000    700.651     -9.651    564.945    700.493    564.945    565.026    564.945
 12.370    700.525    672.282     28.243    565.032    672.140    565.032    565.114    565.032
 12.470    617.288    634.474    -17.186    565.114    634.353    565.114    565.195    565.114
 12.570    604.086    604.245     -0.160    565.189    604.141    565.189    565.271    565.189
 12.670    606.000    586.092     19.908    565.259    585.998    565.259    565.341    565.259
 12.770    604.000    577.100     26.900    565.322    577.011    565.322    565.405    565.322
 12.870    610.892    573.009     37.883    565.380    572.922    565.380    565.463    565.380
 12.970    595.000    571.020     23.980    565.432    570.934    565.432    565.515    565.432
 13.070    533.000    569.870    -36.870    565.478    569.784    565.478    565.562    565.478
 13.170    586.882    569.098     17.783    565.518    569.012    565.518    565.602    565.518
 13.270    585.000    568.539     16.461    565.553    568.452    565.553    565.637    565.553
 13.370    550.612    568.116    -17.505    565.582    568.030    565.582    565.667    565.582
 13.470    553.789    567.789    -14.000    565.605    567.703    565.605    565.691    565.605
 13.570    541.000    567.530    -26.530    565.623    567.443    565.623    565.709    565.623
 13.670    552.937    567.319    -14.382    565.636    567.232    565.636    565.722    565.636
 13.770    559.000    567.144     -8.144    565.643    567.056    565.643    565.730    565.643
 13.870    547.000    566.995    -19.995    565.645    566.908    565.645    565.732    565.645
 13.970    569.000    566.866      2.134    565.641    566.778    565.641    565.729    565.641
 14.070    570.000    566.752      3.248    565.633    566.664    565.633    565.721    565.633
 14.170    548.000    566.649    -18.649    565.619    566.560    565.619    565.708    565.619
 14.270    554.000    566.553    -12.553    565.600    566.464    565.600    565.689    565.600
 14.370    539.000    566.463    -27.463    565.576    566.373    565.576    565.666    565.576
 14.470    586.000    566.380     19.620    565.547    566.290    565.547    565.637    565.547
 14.570    558.000    566.298     -8.298    565.514    566.207    565.514    565.604    565.514
 14.670    556.000    566.215    -10.215    565.475    566.124    565.475    565.566    565.475
 14.770    520.000    566.133    -46.133    565.431    566.042    565.431    565.522    565.431
 14.870    588.866    566.051     22.815    565.383    565.959    565.383    565.475    565.383
 14.970    535.000    565.968    -30.968    565.330    565.875    565.330    565.422    565.330
 15.070    610.299    565.883     44.416    565.272    565.790    565.272    565.365    565.272
 15.170    529.701    565.797    -36.096    565.209    565.703    565.209    565.303    565.209
 15.270    548.000    565.709    -17.709    565.142    565.615    565.142    565.236    565.142
 15.370    588.626    565.620     23.005    565.071    565.524    565.071    565.167    565.071
 15.470    572.000    565.528      6.472    564.995    565.430    564.995    565.093    564.995
 15.570    529.220    565.432    -36.212    564.914    565.334    564.914    565.013    564.914
 15.670    565.000    565.334     -0.334    564.830    565.235    564.830    564.928    564.830
 15.770    549.382    565.233    -15.852    564.740    565.134    564.740    564.840    564.740
 15.870    572.616    565.131      7.486    564.647    565.031    564.647    564.747    564.647
 15.970    592.634    565.024     27.611    564.549    564.923    564.549    564.650    564.549
 16.070    548.000    564.913    -16.913    564.448    564.812    564.448    564.549    564.448
 16.170    583.057    564.799     18.258    564.342    564.697    564.342    564.443    564.342
 16.270    589.213    564.682     24.530    564.232    564.580    564.232    564.334    564.232
 16.370    599.094    564.562     34.532    564.118    564.459    564.118    564.221    564.118
 16.470    576.000    564.438     11.562    564.000    564.335    564.000    564.103    564.000
 16.570    588.000    564.312     23.688    563.878    564.207    563.878    563.982    563.878
 16.670    511.000    564.181    -53.181    563.752    564.077    563.752    563.857    563.752
 16.770    542.000    564.048    -22.048    563.622    563.943    563.622    563.728    563.622
 16.870    560.000    563.911     -3.911    563.489    563.805    563.489    563.595    563.489
 16.970    543.000    563.772    -20.772    563.352    563.665    563.352    563.458    563.352
 17.070    548.000    563.628    -15.628    563.211    563.521    563.211    563.318    563.211
 17.170    570.196    563.482      6.713    563.066    563.374    563.066    563.174    563.066
 17.270    538.000    563.335    -25.335    562.918    563.226    562.918    563.027    562.918
 17.370    581.000    563.183     17.817    562.767    563.073    562.767    562.876    562.767
 17.470    566.000    563.027      2.973    562.611    562.917    562.611    562.722    562.611
 17.570    550.000    562.868    -12.868    562.453    562.757    562.453    562.564    562.453
 17.670    543.979    562.706    -18.728    562.291    562.595    562.291    562.402    562.291
 17.770    587.000    562.542     24.458    562.125    562.429    562.125    562.238    562.125
 17.870    535.360    562.374    -27.014    561.957    562.261    561.957    562.070    561.957
 17.970    525.219    562.203    -36.984    561.785    562.089    561.785    561.899    561.785
 18.070    543.000    562.030    -19.030    561.609    561.915    561.609    561.724    561.609
 18.170    548.226    561.853    -13.627    561.431    561.738    561.431    561.546    561.431
 18.270    523.281    561.674    -38.392    561.249    561.557    561.249    561.366    561.249
 18.370    607.000    561.491     45.509    561.065    561.374    561.065    561.182    561.065
 18.470    556.000    561.306     -5.306    560.877    561.188    560.877    560.995    560.877
 18.570    562.766    561.118      1.648    560.686    560.999    560.686    560.805    560.686
 18.670    602.845    560.928     41.917    560.492    560.808    560.492    560.612    560.492
 18.770    603.000    560.734     42.266    560.296    560.614    560.296    560.416    560.296
 18.870    553.000    560.539     -7.539    560.096    560.417    560.096    560.218    560.096
 18.970    554.000    560.341     -6.341    559.894    560.219    559.894    560.016    559.894
 19.070    564.000    560.142      3.858    559.689    560.018    559.689    559.812    559.689
 19.170    536.845    559.939    -23.094    559.481    559.814    559.481    559.605    559.481
 19.270    542.290    559.733    -17.443    559.270    559.608    559.270    559.396    559.270
 19.370    554.000    559.525     -5.525    559.057    559.399    559.057    559.183    559.057
 19.470    590.000    559.315     30.685    558.841    559.187    558.841    558.968    558.841
 19.570    594.209    559.102     35.106    558.622    558.974    558.622    558.751    558.622
 19.670    536.000    558.888    -22.888    558.401    558.758    558.401    558.531    558.401
 19.770    543.000    558.672    -15.672    558.178    558.542    558.178    558.308    558.178
 19.870    571.953    558.467     13.486    557.952    558.335    557.952    558.083    557.952
 19.970    584.000    558.257     25.743    557.723    558.124    557.723    557.856    557.723
 20.070    592.000    558.035     33.965    557.492    557.901    557.492    557.626    557.492
 20.170    567.000    557.811      9.189    557.259    557.675    557.259    557.394    557.259
 20.270    569.386    557.584     11.802    557.023    557.448    557.023    557.160    557.023
 20.370    557.250    557.356     -0.106    556.785    557.219    556.785    556.923    556.785
 20.470    591.000    557.127     33.873    556.545    556.988    556.545    556.684    556.545
 20.570    531.301    556.895    -25.594    556.303    556.755    556.303    556.443    556.303
 20.670    543.692    556.663    -12.970    556.059    556.521    556.059    556.200    556.059
 20.770    555.582    556.437     -0.855    555.812    556.294    555.812    555.955    555.812
 20.870    511.617    556.285    -44.668    555.564    556.141    555.564    555.708    555.564
 20.970    520.944    556.070    -35.126    555.313    555.924    555.313    555.459    555.313
 21.070    535.115    555.834    -20.719    555.060    555.687    555.060    555.208    555.060
 21.170    537.000    555.595    -18.595    554.806    555.447    554.806    554.955    554.806
 21.270    538.508    555.356    -16.848    554.549    555.206    554.549    554.700    554.549
 21.370    546.851    555.116     -8.265    554.291    554.964    554.291    554.443    554.291
 21.470    590.211    554.875     35.336    554.030    554.722    554.030    554.184    554.030
 21.570    553.000    554.634     -1.634    553.768    554.479    553.768    553.924    553.768
 21.670    572.000    554.393     17.607    553.504    554.236    553.504    553.662    553.504
 21.770    562.000    554.152      7.848    553.239    553.993    553.239    553.398    553.239
 21.870    543.000    553.911    -10.911    552.971    553.750    552.971    553.132    552.971
 21.970    565.239    553.670     11.569    552.702    553.507    552.702    552.865    552.702
 22.070    590.446    553.432     37.013    552.432    553.267    552.432    552.597    552.432
 22.170    581.116    553.215     27.901    552.159    553.048    552.159    552.326    552.159
 22.270    534.000    553.009    -19.009    551.886    552.840    551.886    552.055    551.886
 22.370    588.887    552.825     36.062    551.610    552.654    551.610    551.782    551.610
 22.470    513.650    552.616    -38.967    551.333    552.443    551.333    551.507    551.333
 22.570    546.000    552.391     -6.391    551.055    552.215    551.055    551.231    551.055
 22.670    598.960    552.168     46.792    550.775    551.989    550.775    550.954    550.775
 22.770    507.260    551.950    -44.690    550.494    551.769    550.494    550.675    550.494
 22.870    528.000    551.740    -23.740    550.212    551.556    550.212    550.395    550.212
 22.970    534.000    551.538    -17.538    549.928    551.352    549.928    550.114    549.928
 23.070    502.000    551.347    -49.347    549.643    551.158    549.643    549.832    549.643
 23.170    541.000    551.171    -10.171    549.356    550.979    549.356    549.548    549.356
 23.270    518.269    551.014    -32.745    549.069    550.819    549.069    549.264    549.069
 23.370    560.000    550.878      9.122    548.780    550.680    548.780    548.978    548.780
 23.470    559.000    550.771      8.229    548.490    550.570    548.490    548.692    548.490
 23.570    557.000    550.703      6.297    548.199    550.498    548.199    548.404    548.199
 23.670    546.578    550.688     -4.110    547.907    550.480    547.907    548.115    547.907
 23.770    537.000    550.747    -13.747    547.613    550.536    547.613    547.826    547.613
 23.870    564.000    550.911     13.089    547.319    550.696    547.319    547.536    547.319
 23.970    553.000    551.240      1.760    547.024    551.021    547.024    547.244    547.024
 24.070    582.601    551.873     30.727    546.727    551.651    546.727    546.952    546.727
 24.170    594.849    553.199     41.650    546.430    552.973    546.430    546.660    546.430
 24.270    567.161    556.220     10.941    546.132    555.992    546.132    546.366    546.132
 24.370    584.872    562.964     21.908    545.833    562.736    545.833    546.072    545.833
 24.470    621.000    576.147     44.853    545.533    575.923    545.533    545.778    545.533
 24.570    618.250    596.998     21.252    545.232    596.783    545.232    545.483    545.232
 24.670    601.000    621.431    -20.431    544.931    621.228    544.931    545.187    544.931
 24.770    657.000    637.541     19.459    544.628    637.343    544.628    544.891    544.628
 24.870    644.000    633.613     10.387    544.325    633.407    544.325    544.594    544.325
 24.970    624.000    612.820     11.180    544.022    612.592    544.022    544.298    544.022
 25.070    637.667    588.324     49.343    543.717    588.072    543.717    544.001    543.717
 25.170    569.106    569.421     -0.316    543.412    569.147    543.412    543.703    543.412
 25.270    512.413    558.070    -45.657    543.107    557.780    543.107    543.406    543.107
 25.370    533.000    552.255    -19.255    542.801    551.952    542.801    543.109    542.801
 25.470    565.000    549.408     15.592    542.494    549.094    542.494    542.811    542.494
 25.570    529.378    547.865    -18.488    542.186    547.540    542.186    542.514    542.186
 25.670    564.000    546.863     17.137    541.879    546.526    541.879    542.217    541.879
 25.770    535.000    546.118    -11.118    541.570    545.769    541.570    541.920    541.570
 25.870    523.000    545.527    -22.527    541.262    545.166    541.262    541.624    541.262
 25.970    577.599    545.046     32.553    540.952    544.671    540.952    541.328    540.952
 26.070    586.000    544.667     41.333    540.643    544.277    540.643    541.033    540.643
 26.170    561.000    544.352     16.648    540.333    543.946    540.333    540.739    540.333
 26.270    553.000    544.074      8.926    540.023    543.651    540.023    540.446    540.023
 26.370    549.058    543.838      5.220    539.712    543.397    539.712    540.154    539.712
 26.470    546.000    543.651      2.349    539.401    543.190    539.401    539.863    539.401
 26.570    516.000    543.515    -27.515    539.090    543.032    539.090    539.574    539.090
 26.670    505.854    543.440    -37.586    538.779    542.933    538.779    539.286    538.779
 26.770    527.000    543.437    -16.437    538.467    542.903    538.467    539.001    538.467
 26.870    553.000    543.505      9.495    538.156    542.942    538.156    538.719    538.156
 26.970    582.000    543.676     38.324    537.844    543.081    537.844    538.439    537.844
 27.070    556.000    543.940     12.060    537.532    543.309    537.532    538.163    537.532
 27.170    581.809    544.353     37.456    537.219    543.681    537.219    537.890    537.219
 27.270    577.000    544.967     32.033    536.907    544.250    536.907    537.623    536.907
 27.370    511.000    545.865    -34.865    536.595    545.097    536.595    537.361    536.595
 27.470    555.000    547.192      7.808    536.283    546.368    536.283    537.106    536.283
 27.570    543.117    549.339     -6.222    535.970    548.449    535.970    536.858    535.970
 27.670    585.000    553.694     31.306    535.658    552.729    535.658    536.619    535.658
 27.770    601.000    565.020     35.980    535.346    563.966    535.346    536.392    535.346
 27.870    615.000    595.406     19.594    535.033    594.243    535.033    536.178    535.033
 27.970    676.000    663.653     12.347    534.721    662.352    534.721    535.980    534.721
 28.070    783.000    777.975      5.025    534.409    776.506    534.409    535.803    534.409
 28.170    859.900    905.693    -45.793    534.097    904.034    534.097    535.650    534.097
 28.270    972.000    968.545      3.455    533.786    966.696    533.786    535.531    533.786
 28.370    900.000    915.308    -15.308    533.474    913.261    533.474    535.454    533.474
 28.470    808.000    800.496      7.504    533.163    798.195    533.163    535.436    533.163
 28.570    718.523    711.695      6.828    532.852    709.034    532.852    535.499    532.852
 28.670    650.000    694.082    -44.082    532.541    690.925    532.541    535.681    532.541
 28.770    734.000    742.213     -8.213    532.230    738.389    532.230    536.032    532.230
 28.870    842.738    814.080     28.658    531.920    809.361    531.920    536.622    531.920
 28.970    901.634    847.988     53.646    531.610    842.060    531.610    537.537    531.610
 29.070    771.887    807.721    -35.835    531.300    800.158    531.300    538.872    531.300
 29.170    687.000    724.793    -37.793    530.990    715.082    530.990    540.712    530.990
 29.270    652.000    648.168      3.832    530.681    635.760    530.681    543.096    530.681
 29.370    584.523    600.082    -15.558    530.373    584.520    530.373    545.937    530.373
 29.470    625.000    577.742     47.258    530.065    558.908    530.065    548.899    530.065
 29.570    581.000    569.430     11.570    529.757    547.915    529.757    551.272    529.757
 29.670    603.000    565.789     37.211    529.450    543.100    529.450    552.138    529.450
 29.770    582.000    562.383     19.617    529.143    540.531    529.143    550.994    529.143
 29.870    567.000    558.240      8.760    528.836    538.860    528.836    548.215    528.836
 29.970    594.160    553.845     40.315    528.531    537.681    528.531    544.693    528.531
 30.070    580.645    549.832     30.814    528.225    536.865    528.225    541.191    528.225
 30.170    579.000    546.574     32.426    527.921    536.388    527.921    538.105    527.921
 30.270    492.000    544.305    -52.305    527.616    536.364    527.616    535.555    527.616
 30.370    586.000    543.454     42.546    527.313    537.241    527.313    533.522    527.313
 30.470    590.000    545.126     44.874    527.010    540.203    527.010    531.926    527.010
 30.570    525.282    551.422    -26.139    526.708    547.444    526.708    530.673    526.708
 30.670    583.000    564.642     18.358    526.406    561.351    526.406    529.673    526.406
 30.770    630.000    584.616     45.384    526.105    581.828    526.105    528.854    526.105
 30.870    651.717    605.334     46.383    525.804    602.923    525.804    528.162    525.804
 30.970    617.000    614.742      2.258    525.505    612.631    525.505    527.558    525.505
 31.070    624.102    604.899     19.203    525.206    603.042    525.206    527.017    525.206
 31.170    589.000    583.158      5.842    524.908    581.514    524.908    526.521    524.908
 31.270    548.000    561.563    -13.563    524.610    560.096    524.610    526.061    524.610
 31.370    512.987    546.379    -33.392    524.314    545.057    524.314    525.627    524.314
 31.470    515.367    537.920    -22.552    524.018    536.718    524.018    525.216    524.018
 31.570    525.893    533.848     -7.954    523.723    532.746    523.723    524.822    523.723
 31.670    569.000    531.912     37.088    523.428    530.896    523.428    524.442    523.428
 31.770    559.000    530.855     28.145    523.135    529.914    523.135    524.075    523.135
 31.870    531.000    530.168      0.832    522.842    529.291    522.842    523.718    522.842
 31.970    548.000    529.678     18.322    522.551    528.857    522.551    523.370    522.551
 32.070    559.000    529.328     29.672    522.260    528.556    522.260    523.030    522.260
 32.170    564.000    529.093     34.907    521.970    528.366    521.970    522.696    521.970
 32.270    513.000    528.968    -15.968    521.681    528.279    521.681    522.369    521.681
 32.370    500.172    528.952    -28.780    521.393    528.298    521.393    522.046    521.393
 32.470    504.506    529.054    -24.548    521.106    528.431    521.106    521.728    521.106
 32.570    552.000    529.290     22.710    520.820    528.695    520.820    521.414    520.820
 32.670    511.000    529.687    -18.687    520.534    529.116    520.534    521.104    520.534
 32.770    544.000    530.283     13.717    520.250    529.734    520.250    520.798    520.250
 32.870    587.000    531.133     55.867    519.967    530.605    519.967    520.494    519.967
 32.970    541.000    532.321      8.679    519.685    531.811    519.685    520.194    519.685
 33.070    580.000    533.975     46.025    519.404    533.481    519.404    519.896    519.404
 33.170    540.000    536.331      3.669    519.124    535.852    519.124    519.601    519.124
 33.270    574.000    539.934     34.066    518.845    539.468    518.845    519.308    518.845
 33.370    571.278    546.275     25.003    518.567    545.820    518.567    519.018    518.567
 33.470    584.000    559.266     24.734    518.290    558.821    518.290    518.729    518.290
 33.570    583.796    587.358     -3.562    518.015    586.918    518.015    518.443    518.015
 33.670    694.000    643.844     50.156    517.740    643.403    517.740    518.159    517.740
 33.770    741.914    740.654      1.261    517.467    740.204    517.467    517.877    517.467
 33.870    915.000    873.750     41.250    517.194    873.290    517.194    517.596    517.194
 33.970    983.000   1006.893    -23.893    516.923   1006.429    516.923    517.318    516.923
 34.070   1036.135   1072.008    -35.873    516.653   1071.560    516.653    517.041    516.653
 34.170   1054.000   1023.063     30.937    516.384   1022.648    516.384    516.766    516.384
 34.270    920.347    896.107     24.239    516.117    895.724    516.117    516.493    516.117
 34.370    711.237    759.606    -48.369    515.850    759.241    515.850    516.221    515.850
 34.470    689.457    655.490     33.967    515.585    655.131    515.585    515.952    515.585
 34.570    603.000    592.237     10.763    515.321    591.880    515.321    515.683    515.321
 34.670    538.000    559.599    -21.599    515.059    559.243    515.059    515.417    515.059
 34.770    576.942    544.029     32.913    514.797    543.675    514.797    515.152    514.797
 34.870    571.000    536.239     34.761    514.537    535.887    514.537    514.888    514.537
 34.970    524.000    531.680     -7.680    514.278    531.332    514.278    514.627    514.278
 35.070    522.000    528.552     -6.552    514.021    528.206    514.021    514.366    514.021
 35.170    520.000    526.192     -6.192    513.765    525.848    513.765    514.108    513.765
 35.270    505.000    524.323    -19.323    513.510    523.982    513.510    513.851    513.510
 35.370    494.720    522.802    -28.083    513.256    522.463    513.256    513.595    513.256
 35.470    554.000    521.538     32.462    513.004    521.201    513.004    513.341    513.004
 35.570    532.861    520.469     12.392    512.753    520.132    512.753    513.089    512.753
 35.670    502.226    519.549    -17.324    512.503    519.214    512.503    512.838    512.503
 35.770    521.212    518.748      2.464    512.255    518.414    512.255    512.589    512.255
 35.870    511.000    518.041     -7.041    512.008    517.708    512.008    512.341    512.008
 35.970    475.000    517.411    -42.411    511.763    517.078    511.763    512.095    511.763
 36.070    532.000    516.844     15.156    511.519    516.513    511.519    511.850    511.519
 36.170    540.000    516.332     23.668    511.276    516.001    511.276    511.607    511.276
 36.270    527.916    515.867     12.049    511.035    515.536    511.035    511.366    511.035
 36.370    558.236    515.443     42.793    510.795    515.112    510.795    511.126    510.795
 36.470    483.663    515.058    -31.395    510.557    514.727    510.557    510.888    510.557
 36.570    488.000    514.710    -26.710    510.320    514.379    510.320    510.651    510.320
 36.670    470.685    514.400    -43.716    510.084    514.069    510.084    510.416    510.084
 36.770    454.000    514.136    -60.136    509.850    513.804    509.850    510.182    509.850
 36.870    492.539    513.937    -21.397    509.618    513.604    509.618    509.950    509.618
 36.970    483.000    513.855    -30.855    509.387    513.522    509.387    509.720    509.387
 37.070    533.492    514.015     19.477    509.157    513.681    509.157    509.491    509.157
 37.170    503.000    514.654    -11.654    508.929    514.319    508.929    509.264    508.929
 37.270    565.000    516.105     48.895    508.702    515.769    508.702    509.038    508.702
 37.370    478.000    518.641    -40.641    508.477    518.305    508.477    508.815    508.477
 37.470    526.000    522.167      3.833    508.254    521.831    508.254    508.592    508.254
 37.570    501.000    525.873    -24.873    508.032    525.536    508.032    508.372    508.032
 37.670    498.615    528.194    -29.579    507.811    527.857    507.811    508.153    507.811
 37.770    549.000    527.819     21.181    507.592    527.483    507.592    507.935    507.592
 37.870    481.299    525.082    -43.783    507.375    524.746    507.375    507.719    507.375
 37.970    549.000    521.410     27.590    507.159    521.074    507.159    507.505    507.159
 38.070    512.000    517.913     -5.913    506.945    517.576    506.945    507.293    506.945
 38.170    538.000    515.038     22.962    506.732    514.697    506.732    507.082    506.732
 38.270    488.000    512.890    -24.890    506.521    512.545    506.521    506.873    506.521
 38.370    480.952    511.398    -30.446    506.311    511.048    506.311    506.666    506.311
 38.470    500.972    510.398     -9.426    506.103    510.044    506.103    506.460    506.103
 38.570    460.000    509.728    -49.728    505.897    509.370    505.897    506.256    505.897
 38.670    485.735    509.258    -23.523    505.692    508.897    505.692    506.054    505.692
 38.770    546.000    508.901     37.099    505.489    508.538    505.489    505.853    505.489
 38.870    522.984    508.605     14.379    505.288    508.239    505.288    505.654    505.288
 38.970    522.000    508.343     13.657    505.088    507.974    505.088    505.457    505.088
 39.070    523.000    508.103     14.897    504.889    507.730    504.889    505.262    504.889
 39.170    486.000    507.878    -21.878    504.693    507.503    504.693    505.068    504.693
 39.270    503.000    507.666     -4.666    504.497    507.288    504.497    504.876    504.497
 39.370    465.553    507.466    -41.913    504.304    507.084    504.304    504.686    504.304
 39.470    473.000    507.275    -34.275    504.112    506.889    504.112    504.498    504.112
 39.570    480.000    507.093    -27.093    503.922    506.704    503.922    504.311    503.922
 39.670    529.703    506.919     22.784    503.734    506.526    503.734    504.126    503.734
 39.770    475.000    506.753    -31.753    503.547    506.357    503.547    503.943    503.547
 39.870    519.000    506.596     12.404    503.362    506.196    503.362    503.762    503.362
 39.970    509.000    506.447      2.553    503.178    506.043    503.178    503.582    503.178
 40.070    490.000    506.306    -16.306    502.996    505.898    502.996    503.405    502.996
 40.170    510.000    506.174      3.826    502.816    505.762    502.816    503.229    502.816
 40.270    507.140    506.052      1.088    502.638    505.635    502.638    503.055    502.638
 40.370    473.000    505.940    -32.940    502.461    505.518    502.461    502.883    502.461
 40.470    547.000    505.839     41.161    502.286    505.413    502.286    502.712    502.286
 40.570    476.000    505.750    -29.750    502.112    505.319    502.112    502.544    502.112
 40.670    476.722    505.676    -28.954    501.941    505.241    501.941    502.377    501.941
 40.770    506.000    505.619      0.381    501.771    505.178    501.771    502.212    501.771
 40.870    526.000    505.581     20.419    501.602    505.135    501.602    502.049    501.602
 40.970    477.000    505.565    -28.565    501.436    505.114    501.436    501.888    501.436
 41.070    498.000    505.578     -7.578    501.271    505.121    501.271    501.729    501.271
 41.170    490.000    505.624    -15.624    501.107    505.161    501.107    501.571    501.107
 41.270    479.506    505.712    -26.206    500.946    505.243    500.946    501.416    500.946
 41.370    523.404    505.854     17.549    500.786    505.379    500.786    501.262    500.786
 41.470    524.618    506.066     18.552    500.628    505.584    500.628    501.111    500.628
 41.570    544.935    506.372     38.562    500.472    505.885    500.472    500.961    500.472
 41.670    466.735    506.820    -40.085    500.317    506.326    500.317    500.813    500.317
 41.770    477.648    507.512    -29.864    500.164    507.011    500.164    500.668    500.164
 41.870    495.000    508.696    -13.696    500.013    508.187    500.013    500.524    500.013
 41.970    531.963    510.939     21.024    499.864    510.424    499.864    500.382    499.864
 42.070    484.000    515.369    -31.369    499.716    514.848    499.716    500.242    499.716
 42.170    540.595    523.774     16.821    499.570    523.249    499.570    500.104    499.570
 42.270    502.222    538.189    -35.967    499.426    537.662    499.426    499.969    499.426
 42.370    531.450    559.653    -28.203    499.283    559.128    499.283    499.835    499.283
 42.470    591.000    586.369      4.631    499.142    585.848    499.142    499.703    499.142
 42.570    594.000    612.118    -18.118    499.003    611.602    499.003    499.574    499.003
 42.670    635.211    626.823      8.388    498.866    626.307    498.866    499.446    498.866
 42.770    554.000    622.803    -68.803    498.730    622.279    498.730    499.321    498.730
 42.870    605.000    602.397      2.603    498.596    601.853    498.596    499.197    498.596
 42.970    593.000    575.189     17.811    498.464    574.620    498.464    499.076    498.464
 43.070    540.036    549.957     -9.922    498.334    549.363    498.334    498.957    498.334
 43.170    550.000    531.069     18.931    498.205    530.452    498.205    498.841    498.205
 43.270    525.000    519.008      5.992    498.078    518.371    498.078    498.726    498.078
 43.370    492.416    512.176    -19.760    497.953    511.521    497.953    498.614    497.953
 43.470    496.000    508.559    -12.559    497.830    507.889    497.830    498.504    497.830
 43.570    535.000    506.626     28.374    497.708    505.940    497.708    498.396    497.708
 43.670    494.000    505.492    -11.492    497.588    504.791    497.588    498.291    497.588
 43.770    519.000    504.736     14.264    497.470    504.020    497.470    498.188    497.470
 43.870    487.413    504.179    -16.765    497.354    503.446    497.354    498.088    497.354
 43.970    516.000    503.744     12.256    497.239    502.994    497.239    497.990    497.239
 44.070    515.000    503.396     11.604    497.126    502.628    497.126    497.895    497.126
 44.170    502.000    503.113     -1.113    497.015    502.327    497.015    497.802    497.015
 44.270    506.036    502.882      3.154    496.905    502.076    496.905    497.712    496.905
 44.370    540.000    502.693     37.307    496.797    501.866    496.797    497.624    496.797
 44.470    485.945    502.538    -16.593    496.691    501.690    496.691    497.540    496.691
 44.570    495.000    502.413     -7.413    496.587    501.543    496.587    497.458    496.587
 44.670    508.000    502.314      5.686    496.485    501.420    496.485    497.379    496.485
 44.770    534.000    502.238     31.762    496.384    501.319    496.384    497.303    496.384
 44.870    510.000    502.182      7.818    496.285    501.237    496.285    497.231    496.285
 44.970    516.000    502.146     13.854    496.187    501.172    496.187    497.161    496.187
 45.070    491.600    502.128    -10.529    496.092    501.125    496.092    497.095    496.092
 45.170    494.000    502.128     -8.128    495.998    501.093    495.998    497.033    495.998
 45.270    519.000    502.146     16.854    495.906    501.077    495.906    496.974    495.906
 45.370    528.014    502.181     25.834    495.815    501.077    495.815    496.919    495.815
 45.470    506.088    502.234      3.854    495.727    501.092    495.727    496.869    495.727
 45.570    483.000    502.306    -19.306    495.640    501.124    495.640    496.822    495.640
 45.670    490.000    502.398    -12.398    495.555    501.172    495.555    496.780    495.555
 45.770    509.000    502.511      6.489    495.471    501.239    495.471    496.743    495.471
 45.870    510.000    502.648      7.352    495.389    501.326    495.389    496.711    495.389
 45.970    516.000    502.810     13.190    495.309    501.434    495.309    496.684    495.309
 46.070    469.473    503.000    -33.528    495.231    501.567    495.231    496.663    495.231
 46.170    507.000    503.223      3.777    495.154    501.728    495.154    496.649    495.154
 46.270    516.667    503.483     13.184    495.079    501.920    495.079    496.641    495.079
 46.370    464.000    503.785    -39.785    495.006    502.149    495.006    496.641    495.006
 46.470    526.000    504.139     21.861    494.934    502.422    494.934    496.649    494.934
 46.570    476.000    504.554    -28.554    494.864    502.750    494.864    496.667    494.864
 46.670    509.000    505.046      3.954    494.796    503.147    494.796    496.694    494.796
 46.770    497.569    505.645     -8.076    494.729    503.641    494.729    496.732    494.729
 46.870    498.000    506.405     -8.405    494.665    504.285    494.665    496.782    494.665
 46.970    530.000    507.455     22.545    494.601    505.207    494.601    496.847    494.601
 47.070    513.072    509.067      4.005    494.540    506.676    494.540    496.927    494.540
 47.170    525.763    511.766     13.997    494.480    509.216    494.480    497.025    494.480
 47.270    543.000    516.402     26.598    494.422    513.671    494.422    497.144    494.422
 47.370    567.000    524.036     42.964    494.366    521.101    494.366    497.287    494.366
 47.470    504.000    535.521    -31.521    494.311    532.352    494.311    497.457    494.311
 47.570    574.000    550.756     23.244    494.258    547.320    494.258    497.659    494.258
 47.670    569.000    567.900      1.100    494.206    564.159    494.206    497.901    494.206
 47.770    622.000    582.952     39.048    494.156    578.865    494.156    498.188    494.156
 47.870    573.000    590.553    -17.553    494.108    586.069    494.108    498.533    494.108
 47.970    627.322    587.532     39.790    494.062    582.590    494.062    498.949    494.062
 48.070    550.389    576.057    -25.667    494.017    570.571    494.017    499.459    494.017
 48.170    620.000    561.368     58.632    493.973    555.216    493.973    500.093    493.973
 48.270    539.000    548.003     -9.003    493.932    541.013    493.932    500.901    493.932
 48.370    536.000    538.424     -2.424    493.892    530.351    493.892    501.951    493.892
 48.470    508.000    533.241    -25.241    493.853    523.738    493.853    503.348    493.853
 48.570    533.000    531.964      1.036    493.817    520.544    493.817    505.231    493.817
 48.670    552.000    533.787     18.213    493.782    519.784    493.782    507.780    493.782
 48.770    534.257    538.093     -3.837    493.748    520.627    493.748    511.210    493.748
 48.870    522.744    544.617    -21.873    493.716    522.589    493.716    515.741    493.716
 48.970    586.000    553.396     32.604    493.686    525.515    493.686    521.562    493.686
 49.070    534.000    564.685    -30.685    493.657    529.572    493.657    528.765    493.657
 49.170    564.000    579.043    -15.043    493.630    535.420    493.630    537.247    493.630
 49.270    607.000    597.853      9.147    493.604    544.886    493.604    546.563    493.604
 49.370    652.252    624.724     27.529    493.580    562.554    493.580    555.736    493.580
 49.470    681.000    668.166     12.834    493.558    598.533    493.558    563.167    493.558
 49.570    813.000    745.052     67.948    493.537    671.556    493.537    566.987    493.537
 49.670    833.000    881.808    -48.808    493.518    809.227    493.518    566.018    493.518
 49.770   1074.178   1107.555    -33.377    493.500   1040.341    493.500    560.586    493.500
 49.870   1412.000   1435.408    -23.408    493.484   1376.451    493.484    552.267    493.484
 49.970   1920.000   1837.757     82.243    493.469   1788.141    493.469    542.891    493.469
 50.070   2276.000   2231.163     44.837    493.456   2190.640    493.456    533.814    493.456
 50.170   2502.000   2490.183     11.817    493.444   2457.764    493.444    525.787    493.444
 50.270   2478.000   2507.270    -29.270    493.434   2481.643    493.434    519.106    493.434
 50.370   2251.026   2272.035    -21.009    493.426   2251.814    493.426    513.786    493.426
 50.470   1795.686   1881.508    -85.822    493.419   1865.414    493.419    509.690    493.419
 50.570   1398.881   1465.577    -66.696    493.413   1452.546    493.413    506.611    493.413
 50.670   1135.858   1118.558     17.300    493.409   1107.770    493.409    504.327    493.409
 50.770    907.069    878.419     28.650    493.406    869.279    493.406    502.638    493.406
 50.870    692.000    737.581    -45.581    493.405    729.673    493.405    501.376    493.405
 50.970    623.000    666.107    -43.107    493.406    659.141    493.406    500.418    493.406
 51.070    681.000    632.070     48.930    493.408    625.844    493.408    499.673    493.408
 51.170    595.415    612.486    -17.071    493.411    606.850    493.411    499.081    493.411
 51.270    619.379    595.945     23.434    493.416    590.788    493.416    498.602    493.416
 51.370    602.435    579.690     22.746    493.422    574.928    493.422    498.206    493.422
 51.470    560.000    564.686     -4.686    493.430    560.255    493.430    497.877    493.430
 51.570    595.000    552.297     42.703    493.439    548.146    493.439    497.602    493.439
 51.670    538.000    543.145     -5.145    493.449    539.233    493.449    497.370    493.449
 51.770    541.852    537.073      4.780    493.461    533.365    493.461    497.174    493.461
 51.870    546.000    533.469     12.531    493.475    529.937    493.475    497.010    493.475
 51.970    563.000    531.644     31.356    493.490    528.263    493.490    496.873    493.490
 52.070    506.304    531.066    -24.762    493.506    527.814    493.506    496.760    493.506
 52.170    564.000    531.443     32.557    493.523    528.302    493.523    496.666    493.523
 52.270    574.000    532.726     41.274    493.542    529.679    493.542    496.591    493.542
 52.370    539.648    535.140      4.508    493.563    532.172    493.563    496.532    493.563
 52.470    573.881    539.341     34.540    493.585    536.439    493.585    496.488    493.585
 52.570    583.784    546.780     37.004    493.608    543.932    493.608    496.456    493.608
 52.670    566.000    560.249      5.751    493.632    557.444    493.632    496.437    493.632
 52.770    642.000    584.402     57.598    493.658    581.630    493.658    496.428    493.658
 52.870    647.000    625.703     21.297    493.685    622.954    493.685    496.430    493.685
 52.970    716.284    691.076     25.208    493.714    688.341    493.714    496.442    493.714
 53.070    828.060    784.819     43.241    493.743    782.092    493.743    496.463    493.743
 53.170    905.000    904.302      0.698    493.774    901.576    493.774    496.492    493.774
 53.270   1029.000   1035.853     -6.853    493.807   1033.126    493.807    496.530    493.807
 53.370   1097.662   1152.869    -55.207    493.841   1150.137    493.841    496.576    493.841
 53.470   1216.000   1220.569     -4.569    493.876   1217.830    493.876    496.630    493.876
 53.570   1166.208   1213.436    -47.228    493.912   1210.684    493.912    496.692    493.912
 53.670   1114.000   1134.684    -20.684    493.950   1131.907    493.950    496.762    493.950
 53.770   1029.000   1013.264     15.736    493.988   1010.450    493.988    496.839    493.988
 53.870    887.000    883.109      3.891    494.028    880.245    494.028    496.924    494.028
 53.970    780.000    768.437     11.563    494.070    765.514    494.070    497.018    494.070
 54.070    657.242    680.646    -23.404    494.112    677.657    494.112    497.119    494.112
 54.170    617.167    620.773     -3.606    494.156    617.712    494.156    497.229    494.156
 54.270    633.000    583.762     49.238    494.201    580.623    494.201    497.347    494.201
 54.370    591.000    562.623     28.377    494.248    559.400    494.248    497.474    494.248
 54.470    563.175    551.191     11.983    494.295    547.878    494.295    497.611    494.295
 54.570    507.138    545.182    -38.044    494.344    541.770    494.344    497.758    494.344
 54.670    591.000    542.088     48.912    494.393    538.568    494.393    497.915    494.393
 54.770    527.581    540.626    -13.045    494.444    536.988    494.444    498.083    494.444
 54.870    527.817    540.203    -12.386    494.497    536.438    494.497    498.263    494.497
 54.970    584.000    540.571     43.429    494.550    536.666    494.550    498.456    494.550
 55.070    556.000    541.637     14.363    494.605    537.580    494.605    498.662    494.605
 55.170    573.000    543.390     29.610    494.660    539.167    494.660    498.884    494.660
 55.270    581.000    545.870     35.130    494.717    541.466    494.717    499.121    494.717
 55.370    531.000    549.169    -18.169    494.775    544.568    494.775    499.377    494.775
 55.470    576.000    553.462     22.538    494.834    548.645    494.834    499.651    494.834
 55.570    593.000    559.084     33.916    494.894    554.032    494.894    499.947    494.894
 55.670    581.000    566.737     14.263    494.955    561.425    494.955    500.266    494.955
 55.770    570.000    577.934     -7.934    495.018    572.339    495.018    500.611    495.018
 55.870    562.000    595.853    -33.853    495.081    589.945    495.081    500.986    495.081
 55.970    639.000    626.649     12.351    495.145    620.395    495.145    501.393    495.145
 56.070    724.595    680.934     43.661    495.211    674.295    495.211    501.836    495.211
 56.170    736.614    774.453    -37.839    495.277    767.384    495.277    502.321    495.277
 56.270    887.000    926.301    -39.301    495.345    918.753    495.345    502.853    495.345
 56.370   1115.000   1153.159    -38.159    495.414   1145.077    495.414    503.438    495.414
 56.470   1535.004   1459.613     75.391    495.483   1450.941    495.483    504.084    495.483
 56.570   1771.000   1827.264    -56.264    495.554   1817.946    495.554    504.802    495.554
 56.670   2192.000   2207.003    -15.003    495.626   2196.981    495.626    505.601    495.626
 56.770   2432.000   2519.554    -87.554    495.698   2508.763    495.698    506.496    495.698
 56.870   2698.268   2674.820     23.448    495.772   2663.175    495.772    507.504    495.772
 56.970   2567.000   2618.916    -51.916    495.846   2606.286    495.846    508.649    495.846
 57.070   2462.482   2373.819     88.663    495.922   2360.010    495.922    509.960    495.922
 57.170   2084.000   2019.109     64.891    495.999   2003.868    495.999    511.480    495.999
 57.270   1741.000   1642.420     98.580    496.076   1625.444    496.076    513.270    496.076
 57.370   1250.000   1307.828    -57.828    496.154   1288.738    496.154    515.420    496.154
 57.470   1063.000   1047.835     15.165    496.234   1026.134    496.234    518.062    496.234
 57.570    888.651    867.852     20.799    496.314    842.860    496.314    521.389    496.314
 57.670    790.000    756.255     33.745    496.395    727.028    496.395    525.672    496.395
 57.770    658.924    695.237    -36.313    496.477    660.465    496.477    531.275    496.477
 57.870    672.000    668.745      3.255    496.560    626.651    496.560    538.665    496.560
 57.970    646.286    666.213    -19.927    496.643    614.463    496.643    548.394    496.643
 58.070    663.000    682.896    -19.896    496.728    618.556    496.728    561.059    496.728
 58.170    678.760    718.336    -39.576    496.813    637.902    496.813    577.227    496.813
 58.270    773.000    774.103     -1.103    496.900    673.641    496.900    597.331    496.900
 58.370    904.973    851.452     53.521    496.987    726.880    496.987    621.517    496.987
 58.470    986.508    949.226     37.282    497.075    796.791    497.075    649.460    497.075
 58.570   1047.055   1062.291    -15.236    497.163    879.312    497.163    680.089    497.163
 58.670   1233.515   1180.814     52.701    497.253    966.793    497.253    711.224    497.253
 58.770   1293.000   1291.707      1.293    497.343   1049.750    497.343    739.260    497.343
 58.870   1452.381   1381.781     70.601    497.434   1119.796    497.434    759.395    497.434
 58.970   1467.816   1439.812     28.004    497.526   1170.266    497.526    767.068    497.526
 59.070   1439.343   1457.338    -17.994    497.618   1194.691    497.618    760.281    497.618
 59.170   1517.000   1432.031     84.969    497.712   1188.906    497.712    740.866    497.712
 59.270   1337.727   1371.977    -34.250    497.806   1156.502    497.806    713.313    497.806
 59.370   1245.513   1293.996    -48.482    497.901   1109.470    497.901    682.445    497.901
 59.470   1243.000   1216.752     26.248    497.996   1062.805    497.996    651.936    497.996
 59.570   1196.000   1156.692     39.308    498.092   1030.712    498.092    624.030    498.092
 59.670   1137.350   1128.362      8.989    498.189   1026.617    498.189    599.846    498.189
 59.770   1157.000   1143.314     13.686    498.286   1061.719    498.286    579.741    498.286
 59.870   1245.000   1205.144     39.856    498.385   1139.744    498.385    563.586    498.385
 59.970   1351.000   1304.664     46.336    498.483   1251.931    498.483    550.964    498.483
 60.070   1343.245   1418.532    -75.287    498.583   1375.512    498.583    541.309    498.583
 60.170   1584.000   1512.034     71.966    498.683   1476.383    498.683    534.027    498.683
 60.270   1663.000   1548.448    114.552    498.784   1518.383    498.784    528.563    498.784
 60.370   1481.266   1506.393    -25.126    498.885   1480.596    498.885    524.450    498.885
 60.470   1365.473   1392.747    -27.274    498.987   1370.248    498.987    521.319    498.987
 60.570   1174.593   1235.977    -61.385    499.089   1216.062    499.089    518.899    499.089
 60.670   1059.000   1069.137    -10.137    499.193   1051.271    499.193    516.999    499.193
 60.770    892.000    918.155    -26.155    499.296    901.932    499.296    515.491    499.296
 60.870    805.000    797.798      7.202    499.400    782.897    499.400    514.289    499.400
 60.970    756.599    712.381     44.218    499.505    698.541    499.505    513.338    499.505
 61.070    688.000    659.186     28.814    499.610    646.190    499.610    512.599    499.610
 61.170    613.000    632.846    -19.846    499.716    620.504    499.716    512.046    499.716
 61.270    600.941    629.036    -28.095    499.822    617.182    499.822    511.655    499.822
 61.370    605.638    646.534    -40.896    499.929    635.026    499.929    511.403    499.929
 61.470    651.735    687.395    -35.660    500.037    676.118    500.037    511.261    500.037
 61.570    715.546    755.406    -39.860    500.144    744.282    500.144    511.191    500.144
 61.670    876.866    853.192     23.674    500.252    842.198    500.252    511.139    500.252
 61.770    945.000    978.712    -33.712    500.361    967.888    500.361    511.044    500.361
 61.870   1085.000   1122.190    -37.190    500.470   1111.642    500.470    510.847    500.470
 61.970   1298.044   1264.613     33.431    500.580   1254.487    500.580    510.516    500.580
 62.070   1373.023   1379.003     -5.980    500.690   1369.442    500.690    510.060    500.690
 62.170   1476.111   1436.835     39.276    500.800   1427.946    500.800    509.521    500.800
 62.270   1369.502   1420.850    -51.348    500.911   1412.684    500.911    508.951    500.911
 62.370   1255.000   1335.723    -80.723    501.022   1328.272    501.022    508.393    501.022
 62.470   1117.000   1204.737    -87.737    501.133   1197.952    501.133    507.878    501.133
 62.570   1032.000   1056.791    -24.791    501.245   1050.602    501.245    507.422    501.245
 62.670    945.719    916.029     29.690    501.357    910.359    501.357    507.031    501.357
 62.770    795.000    797.650     -2.650    501.470    792.424    501.470    506.706    501.470
 62.870    658.713    707.755    -49.041    501.583    702.904    501.583    506.443    501.583
 62.970    684.247    645.365     38.882    501.696    640.833    501.696    506.234    501.696
 63.070    549.000    605.441    -56.441    501.810    601.180    501.810    506.073    501.810
 63.170    601.000    581.735     19.265    501.923    577.706    501.923    505.951    501.923
 63.270    594.404    568.746     25.658    502.037    564.917    502.037    505.862    502.037
 63.370    578.000    562.604     15.396    502.152    558.951    502.152    505.799    502.152
 63.470    614.000    561.216     52.784    502.266    557.717    502.266    505.758    502.266
 63.570    570.295    564.057      6.238    502.381    560.694    502.381    505.734    502.381
 63.670    603.831    571.897     31.934    502.496    568.655    502.496    505.724    502.496
 63.770    609.000    586.522     22.478    502.611    583.386    502.611    505.726    502.611
 63.870    576.350    610.350    -34.000    502.727    607.307    502.727    505.738    502.727
 63.970    670.437    645.804     24.633    502.842    642.842    502.842    505.759    502.842
 64.070    697.000    694.399      2.601    502.958    691.505    502.958    505.787    502.958
 64.170    745.000    755.643    -10.643    503.074    752.809    503.074    505.823    503.074
 64.270    931.000    826.017    104.983    503.191    823.235    503.191    505.865    503.191
 64.370    955.000    898.332     56.668    503.307    895.601    503.307    505.913    503.307
 64.470    957.000    961.992     -4.992    503.423    959.313    503.423    505.967    503.423
 64.570    989.911   1005.227    -15.316    503.540   1002.609    503.540    506.025    503.540
 64.670   1042.000   1019.683     22.317    503.657   1017.133    503.657    506.087    503.657
 64.770   1005.000   1004.149      0.851    503.774   1001.673    503.774    506.154    503.774
 64.870    959.000    964.074     -5.074    503.890    961.672    503.890    506.225    503.890
 64.970    926.003    908.614     17.389    504.007    906.283    504.007    506.300    504.007
 65.070    833.000    847.617    -14.617    504.125    845.350    504.125    506.378    504.125
 65.170    767.611    788.991    -21.380    504.242    786.778    504.242    506.460    504.242
 65.270    753.000    737.242     15.758    504.359    735.074    504.359    506.545    504.359
 65.370    695.000    693.749      1.251    504.476    691.617    504.476    506.632    504.476
 65.470    642.000    658.155    -16.155    504.593    656.050    504.593    506.723    504.593
 65.570    617.000    629.634    -12.634    504.711    627.551    504.711    506.816    504.711
 65.670    611.000    607.334      3.666    504.828    605.267    504.828    506.912    504.828
 65.770    564.000    590.386    -26.386    504.945    588.333    504.945    507.010    504.945
 65.870    559.000    577.940    -18.940    505.062    575.898    505.062    507.111    505.062
 65.970    495.000    569.219    -74.219    505.179    567.187    505.179    507.214    505.179
 66.070    546.000    563.542    -17.542    505.297    561.519    505.297    507.320    505.297
 66.170    588.641    560.324     28.317    505.414    558.310    505.414    507.428    505.414
 66.270    604.962    559.084     45.878    505.531    557.076    505.531    507.538    505.531
 66.370    564.777    559.465      5.313    505.648    557.462    505.648    507.650    505.648
 66.470    552.533    561.280     -8.747    505.764    559.280    505.764    507.764    505.764
 66.570    544.000    564.575    -20.575    505.881    562.575    505.881    507.881    505.881
 66.670    598.929    569.744     29.185    505.998    567.742    505.998    508.000    505.998
 66.770    557.000    577.738    -20.738    506.114    575.731    506.114    508.121    506.114
 66.870    602.000    590.407     11.593    506.231    588.393    506.231    508.244    506.231
 66.970    633.000    610.966     22.034    506.347    608.941    506.347    508.369    506.347
 67.070    675.802    644.482     31.320    506.463    642.442    506.463    508.497    506.463
 67.170    687.000    698.141    -11.141    506.579    696.083    506.579    508.627    506.579
 67.270    750.000    780.928    -30.928    506.694    778.847    506.694    508.759    506.694
 67.370    912.265    902.295      9.970    506.810    900.189    506.810    508.894    506.810
 67.470   1075.000   1069.642      5.358    506.925   1067.511    506.925    509.032    506.925
 67.570   1295.000   1284.845     10.155    507.040   1282.693    507.040    509.172    507.040
 67.670   1577.614   1540.623     36.991    507.155   1538.457    507.155    509.316    507.155
 67.770   1777.626   1817.817    -40.191    507.270   1815.649    507.270    509.462    507.270
 67.870   2080.000   2084.590     -4.590    507.384   2082.433    507.384    509.611    507.384
 67.970   2245.473   2298.971    -53.497    507.498   2296.837    507.498    509.763    507.498
 68.070   2473.482   2417.674     55.808    507.612   2415.567    507.612    509.920    507.612
 68.170   2460.000   2412.405     47.595    507.725   2410.315    507.725    510.080    507.725
 68.270   2309.000   2284.604     24.396    507.838   2282.503    507.838    510.244    507.838
 68.370   2156.699   2064.557     92.142    507.951   2062.409    507.951    510.412    507.951
 68.470   1866.343   1795.918     70.425    508.064   1793.690    508.064    510.585    508.064
 68.570   1483.300   1519.986    -36.686    508.176   1517.653    508.176    510.763    508.176
 68.670   1270.000   1267.556      2.444    508.288   1265.103    508.288    510.947    508.288
 68.770    999.563   1056.721    -57.158    508.399   1054.141    508.399    511.137    508.399
 68.870    860.000    893.867    -33.867    508.511    891.159    508.511    511.333    508.511
 68.970    754.780    776.516    -21.736    508.621    773.679    508.621    511.536    508.621
 69.070    791.000    696.977     94.023    508.732    694.013    508.732    511.748    508.732
 69.170    618.000    645.762    -27.762    508.842    642.670    508.842    511.968    508.842
 69.270    620.726    614.005      6.721    508.951    610.781    508.951    512.197    508.951
 69.370    615.000    594.687     20.313    509.061    591.324    509.061    512.438    509.061
 69.470    593.228    582.893     10.335    509.169    579.382    509.169    512.690    509.169
 69.570    571.000    575.509     -4.509    509.278    571.839    509.278    512.955    509.278
 69.670    605.000    570.717     34.283    509.385    566.873    509.385    513.235    509.385
 69.770    551.000    567.527    -16.527    509.493    563.491    509.493    513.531    509.493
 69.870    625.000    565.424     59.576    509.600    561.179    509.600    513.847    509.600
 69.970    539.000    564.155    -25.155    509.706    559.679    509.706    514.183    509.706
 70.070    592.853    563.601     29.252    509.812    558.871    509.812    514.543    509.812
 70.170    582.688    563.729     18.958    509.917    558.716    509.917    514.930    509.917
 70.270    596.000    564.572     31.428    510.022    559.244    510.022    515.349    510.022
 70.370    618.000    566.251     51.749    510.127    560.572    510.127    515.803    510.127
 70.470    544.000    569.035    -25.035    510.230    562.962    510.230    516.300    510.230
 70.570    569.000    573.444     -4.444    510.334    566.926    510.334    516.846    510.334
 70.670    583.000    580.415      2.585    510.436    573.392    510.436    517.451    510.436
 70.770    542.383    591.533    -49.150    510.538    583.929    510.538    518.129    510.538
 70.870    570.000    609.288    -39.288    510.640    601.008    510.640    518.900    510.640
 70.970    636.000    637.281     -1.281    510.741    628.201    510.741    519.791    510.741
 71.070    673.000    680.237     -7.237    510.841    670.190    510.841    520.844    510.841
 71.170    691.738    743.628    -51.890    510.941    732.385    510.941    522.120    510.941
 71.270    822.000    832.770    -10.770    511.040    820.012    511.040    523.708    511.040
 71.370    906.000    951.375    -45.375    511.138    936.659    511.138    525.735    511.138
 71.470   1096.000   1099.738     -3.738    511.236   1082.450    511.236    528.372    511.236
 71.570   1203.000   1272.969    -69.969    511.333   1252.274    511.333    531.844    511.333
 71.670   1453.000   1459.750     -6.750    511.430   1434.542    511.430    536.429    511.430
 71.770   1577.000   1642.027    -65.027    511.525   1610.886    511.525    542.444    511.525
 71.870   1794.849   1796.238     -1.390    511.620   1757.414    511.620    550.225    511.620
 71.970   1868.000   1897.328    -29.328    511.715   1848.760    511.715    560.084    511.715
 72.070   1943.000   1926.545     16.455    511.808   1865.939    511.808    572.251    511.808
 72.170   1780.000   1879.981    -99.981    511.901   1804.953    511.901    586.808    511.901
 72.270   1764.000   1770.724     -6.724    511.993   1679.028    511.993    603.608    511.993
 72.370   1558.458   1622.177    -63.719    512.085   1512.017    512.085    622.195    512.085
 72.470   1449.884   1458.843     -8.959    512.176   1329.279    512.176    641.713    512.176
 72.570   1330.000   1300.422     29.578    512.266   1151.869    512.266    660.808    512.266
 72.670   1092.487   1159.562    -67.075    512.355    994.310    512.355    677.604    512.355
 72.770   1022.000   1041.807    -19.807    512.443    864.372    512.443    689.880    512.443
 72.870    951.567    947.039      4.529    512.531    763.971    512.531    695.599    512.531
 72.970    881.737    871.854      9.883    512.617    690.778    512.617    693.694    512.617
 73.070    740.000    811.932    -71.932    512.703    640.073    512.703    684.563    512.703
 73.170    704.000    763.478    -59.478    512.789    606.398    512.789    669.868    512.789
 73.270    726.369    723.660      2.709    512.873    584.714    512.873    651.819    512.873
 73.370    639.439    690.531    -51.092    512.956    570.996    512.956    632.492    512.956
 73.470    628.383    662.827    -34.444    513.039    562.371    513.039    613.496    513.039
 73.570    621.000    639.778    -18.778    513.121    556.982    513.121    595.919    513.121
 73.670    588.441    620.931    -32.490    513.202    553.734    513.202    580.403    513.202
 73.770    639.271    605.979     33.292    513.282    552.033    513.282    567.235    513.282
 73.870    612.000    594.633     17.367    513.361    551.568    513.361    556.436    513.361
 73.970    610.000    586.544     23.456    513.439    552.158    513.439    547.839    513.439
 74.070    588.000    581.261      6.739    513.516    553.630    513.516    541.166    513.516
 74.170    596.000    578.228     17.772    513.593    555.760    513.593    536.086    513.593
 74.270    631.000    576.796     54.204    513.668    558.225    513.668    532.270    513.668
 74.370    580.000    576.241      3.759    513.742    560.602    513.742    529.418    513.742
 74.470    595.661    575.821     19.840    513.816    562.398    513.816    527.280    513.816
 74.570    592.333    574.867     17.466    513.889    563.141    513.889    525.659    513.889
 74.670    633.000    572.936     60.064    513.960    562.535    513.960    524.406    513.960
 74.770    654.000    569.934     84.066    514.031    560.591    514.031    523.416    514.031
 74.870    630.000    566.111     63.889    514.101    557.635    514.101    522.615    514.101
 74.970    604.000    561.923     42.077    514.169    554.172    514.169    521.953    514.169
 75.070    568.450    557.891     10.560    514.237    550.759    514.237    521.394    514.237
 75.170    569.249    554.524     14.724    514.304    547.930    514.304    520.917    514.304
 75.270    613.000    552.310     60.690    514.369    546.187    514.369    520.505    514.369
 75.370    593.000    551.725     41.275    514.434    546.020    514.434    520.147    514.434
 75.470    549.462    553.263     -3.801    514.497    547.930    514.497    519.833    514.497
 75.570    533.000    557.441    -24.441    514.560    552.440    514.560    519.557    514.560
 75.670    557.480    564.768     -7.288    514.621    560.065    514.621    519.314    514.621
 75.770    580.637    575.666      4.971    514.682    571.231    514.682    519.099    514.682
 75.870    621.285    590.336     30.949    514.741    586.142    514.741    518.909    514.741
 75.970    597.981    608.596    -10.614    514.799    604.620    514.799    518.741    514.799
 76.070    600.862    629.723    -28.861    514.857    625.944    514.857    518.592    514.857
 76.170    668.000    652.352     15.648    514.913    648.753    514.913    518.460    514.913
 76.270    653.000    674.453    -21.453    514.968    671.019    514.968    518.342    514.968
 76.370    683.000    693.427    -10.427    515.022    690.147    515.022    518.237    515.022
 76.470    713.000    706.438      6.562    515.074    703.301    515.074    518.144    515.074
 76.570    704.221    711.110     -6.889    515.126    708.112    515.126    518.060    515.126
 76.670    675.000    706.458    -31.458    515.176    703.590    515.176    517.986    515.176
 76.770    663.000    693.350    -30.350    515.226    690.605    515.226    517.920    515.226
 76.870    663.000    674.084    -11.084    515.274    671.455    515.274    517.862    515.274
 76.970    636.000    651.476    -15.476    515.321    648.955    515.321    517.810    515.321
 77.070    645.000    628.129     16.871    515.367    625.708    515.367    517.764    515.367
 77.170    603.000    606.083     -3.083    515.411    603.754    515.411    517.724    515.411
 77.270    590.000    586.702      3.298    515.455    584.458    515.455    517.687    515.455
 77.370    526.127    570.681    -44.554    515.497    568.516    515.497    517.655    515.497
 77.470    547.000    558.149    -11.149    515.538    556.055    515.538    517.627    515.538
 77.570    558.683    548.822      9.861    515.578    546.794    515.578    517.602    515.578
 77.670    565.290    542.178     23.112    515.617    540.212    515.617    517.580    515.617
 77.770    498.987    537.617    -38.630    515.654    535.708    515.654    517.561    515.654
 77.870    550.892    534.570     16.321    515.690    532.716    515.690    517.544    515.690
 77.970    517.000    532.567    -15.567    515.725    530.762    515.725    517.529    515.725
 78.070    514.218    531.250    -17.032    515.759    529.492    515.759    517.516    515.759
 78.170    506.000    530.372    -24.372    515.791    528.657    515.791    517.505    515.791
 78.270    542.000    529.756     12.244    515.822    528.082    515.822    517.495    515.822
 78.370    517.000    529.320    -12.320    515.852    527.684    515.852    517.487    515.852
 78.470    503.000    529.041    -26.041    515.881    527.442    515.881    517.480    515.881
 78.570    518.000    528.873    -10.873    515.908    527.306    515.908    517.474    515.908
 78.670    515.284    528.810    -13.526    515.934    527.274    515.934    517.470    515.934
 78.770    522.000    528.860     -6.860    515.959    527.352    515.959    517.467    515.959
 78.870    503.259    529.040    -25.781    515.983    527.557    515.983    517.465    515.983
 78.970    550.610    529.377     21.234    516.005    527.915    516.005    517.465    516.005
 79.070    483.000    529.899    -46.899    516.026    528.456    516.026    517.467    516.026
 79.170    525.000    530.641     -5.641    516.045    529.213    516.045    517.471    516.045
 79.270    525.000    531.634     -6.634    516.063    530.217    516.063    517.478    516.063
 79.370    518.961    532.908    -13.947    516.080    531.497    516.080    517.488    516.080
 79.470    544.471    534.492      9.980    516.096    533.082    516.096    517.502    516.096
 79.570    567.000    536.421     30.579    516.110    535.007    516.110    517.519    516.110
 79.670    519.000    538.747    -19.747    516.123    537.324    516.123    517.541    516.123
 79.770    549.000    541.557      7.443    516.134    540.118    516.134    517.567    516.134
 79.870    533.493    544.990    -11.497    516.144    543.531    516.144    517.597    516.144
 79.970    540.000    549.269     -9.269    516.153    547.784    516.153    517.632    516.153
 80.070    600.142    554.718     45.424    516.161    553.205    516.161    517.669    516.161
 80.170    537.000    561.767    -24.767    516.167    560.222    516.167    517.708    516.167
 80.270    539.000    570.901    -31.901    516.171    569.324    516.171    517.746    516.171
 80.370    548.774    582.559    -33.785    516.174    580.953    516.174    517.782    516.174
 80.470    627.381    597.021     30.360    516.176    595.392    516.176    517.810    516.176
 80.570    575.934    614.298    -38.363    516.177    612.656    516.177    517.827    516.177
 80.670    632.000    634.048     -2.048    516.176    632.406    516.176    517.830    516.176
 80.770    647.000    655.538     -8.538    516.173    653.913    516.173    517.816    516.173
 80.870    699.543    677.671     21.872    516.169    676.078    516.169    517.786    516.169
 80.970    712.000    699.095     12.905    516.164    697.548    516.164    517.741    516.164
 81.070    737.000    718.402     18.598    516.158    716.912    516.158    517.685    516.158
 81.170    776.625    734.311     42.314    516.149    732.882    516.149    517.621    516.149
 81.270    751.000    745.779      5.221    516.140    744.415    516.140    517.554    516.140
 81.370    744.352    752.089     -7.736    516.129    750.787    516.129    517.487    516.129
 81.470    807.433    752.919     54.514    516.117    751.676    516.117    517.420    516.117
 81.570    752.000    748.365      3.635    516.103    747.176    516.103    517.355    516.103
 81.670    773.000    738.897     34.103    516.087    737.755    516.087    517.295    516.087
 81.770    726.000    725.341      0.659    516.071    724.241    516.071    517.237    516.071
 81.870    734.000    708.853     25.147    516.052    707.787    516.052    517.184    516.052
 81.970    684.000    690.755     -6.755    516.033    689.718    516.033    517.134    516.033
 82.070    683.404    672.261     11.143    516.011    671.247    516.011    517.087    516.011
 82.170    695.408    654.259     41.148    515.989    653.263    515.989    517.042    515.989
 82.270    645.000    637.253      7.747    515.964    636.271    515.964    517.000    515.964
 82.370    669.825    621.467     48.357    515.939    620.496    515.939    516.959    515.939
 82.470    593.000    607.012    -14.012    515.912    606.048    515.912    516.919    515.912
 82.570    586.000    594.007     -8.007    515.883    593.048    515.883    516.880    515.883
 82.670    564.000    582.609    -18.609    515.853    581.652    515.853    516.841    515.853
 82.770    595.000    572.982     22.018    515.821    572.027    515.821    516.802    515.821
 82.870    586.000    565.268     20.732    515.788    564.312    515.788    516.763    515.788
 82.970    488.000    559.566    -71.566    515.754    558.608    515.754    516.723    515.754
 83.070    513.000    555.927    -42.927    515.717    554.967    515.717    516.682    515.717
 83.170    548.000    554.334     -6.334    515.680    553.370    515.680    516.640    515.680
 83.270    520.000    554.680    -34.680    515.641    553.712    515.641    516.598    515.641
 83.370    556.000    556.753     -0.753    515.600    555.781    515.600    516.554    515.600
 83.470    529.000    560.224    -31.224    515.558    559.247    515.558    516.510    515.558
 83.570    597.194    564.644     32.550    515.514    563.662    515.514    516.464    515.514
 83.670    549.000    569.459    -20.459    515.469    568.472    515.469    516.418    515.469
 83.770    599.000    574.037     24.963    515.422    573.047    515.422    516.370    515.422
 83.870    576.000    577.720     -1.720    515.374    576.727    515.374    516.321    515.374
 83.970    578.000    579.906     -1.906    515.324    578.912    515.324    516.271    515.324
 84.070    535.661    580.173    -44.511    515.272    579.179    515.272    516.220    515.272
 84.170    530.500    578.392    -47.892    515.220    577.401    515.220    516.167    515.220
 84.270    610.467    574.760     35.708    515.165    573.772    515.165    516.114    515.165
 84.370    537.000    569.713    -32.713    515.109    568.729    515.109    516.059    515.109
 84.470    548.000    563.801    -15.801    515.052    562.821    515.052    516.003    515.052
 84.570    599.172    557.564     41.609    514.992    556.586    514.992    515.946    514.992
 84.670    533.000    551.465    -18.465    514.932    550.490    514.932    515.887    514.932
 84.770    563.168    545.859     17.309    514.870    544.885    514.870    515.828    514.870
 84.870    542.000    540.976      1.024    514.806    540.003    514.806    515.767    514.806
 84.970    569.000    536.930     32.070    514.741    535.956    514.741    515.705    514.741
 85.070    549.000    533.735     15.265    514.674    532.760    514.674    515.642    514.674
 85.170    562.984    531.333     31.651    514.605    530.355    514.605    515.578    514.605
 85.270    526.000    529.626     -3.626    514.535    528.644    514.535    515.512    514.535
 85.370    495.969    528.500    -32.531    514.464    527.514    514.464    515.445    514.464
 85.470    513.000    527.851    -14.851    514.391    526.860    514.391    515.377    514.391
 85.570    560.706    527.601     33.105    514.316    526.604    514.316    515.308    514.316
 85.670    552.000    527.705     24.295    514.240    526.702    514.240    515.238    514.240
 85.770    498.000    528.158    -30.158    514.162    527.148    514.162    515.166    514.162
 85.870    524.000    529.000     -5.000    514.083    527.982    514.083    515.094    514.083
 85.970    555.303    530.315     24.988    514.002    529.288    514.002    515.020    514.002
 86.070    526.000    532.229     -6.229    513.920    531.192    513.920    514.945    513.920
 86.170    558.932    534.903     24.029    513.836    533.855    513.836    514.868    513.836
 86.270    494.000    538.524    -44.524    513.750    537.462    513.750    514.791    513.750
 86.370    515.000    543.279    -28.279    513.663    542.203    513.663    514.713    513.663
 86.470    545.000    549.335     -4.335    513.575    548.242    513.575    514.633    513.575
 86.570    549.420    556.793     -7.374    513.484    555.681    513.484    514.553    513.484
 86.670    603.636    565.655     37.981    513.393    564.522    513.393    514.471    513.393
 86.770    626.084    575.778     50.306    513.299    574.622    513.299    514.389    513.299
 86.870    587.000    586.847      0.153    513.205    585.668    513.205    514.305    513.205
 86.970    579.000    598.358    -19.358    513.108    597.156    513.108    514.220    513.108
 87.070    573.174    609.619    -36.445    513.010    608.393    513.010    514.135    513.010
 87.170    664.224    619.773     44.451    512.911    618.525    512.911    514.048    512.911
 87.270    687.000    627.911     59.089    512.809    626.644    512.809    513.961    512.809
 87.370    689.000    633.181     55.819    512.707    631.898    512.707    513.872    512.707
 87.470    683.000    634.979     48.021    512.603    633.683    512.603    513.783    512.603
 87.570    635.000    633.150      1.850    512.497    631.846    512.497    513.693    512.497
 87.670    632.322    628.026      4.296    512.390    626.716    512.390    513.602    512.390
 87.770    656.382    620.320     36.062    512.281    619.005    512.281    513.511    512.281
 87.870    621.000    610.954     10.046    512.170    609.634    512.170    513.419    512.170
 87.970    628.000    600.898     27.102    512.059    599.573    512.059    513.326    512.059
 88.070    655.000    591.075     63.925    511.945    589.743    511.945    513.232    511.945
 88.170    612.000    582.280     29.720    511.830    580.939    511.830    513.139    511.830
 88.270    539.562    575.141    -35.578    511.714    573.788    511.714    513.044    511.714
 88.370    585.000    570.089     14.911    511.596    568.723    511.596    512.950    511.596
 88.470    581.000    567.355     13.645    511.476    565.973    511.476    512.855    511.476
 88.570    595.000    566.967     28.033    511.355    565.567    511.355    512.760    511.355
 88.670    524.000    568.769    -44.769    511.232    567.350    511.232    512.665    511.232
 88.770    559.458    572.441    -12.983    511.108    571.000    511.108    512.569    511.108
 88.870    564.000    577.515    -13.515    510.982    576.051    510.982    512.474    510.982
 88.970    584.068    583.407      0.661    510.855    581.918    510.855    512.380    510.855
 89.070    595.000    589.445      5.555    510.727    587.929    510.727    512.285    510.727
 89.170    614.749    594.907     19.843    510.596    593.361    510.596    512.192    510.596
 89.270    581.000    599.082    -18.082    510.465    597.504    510.465    512.098    510.465
 89.370    614.000    601.366     12.634    510.331    599.750    510.331    512.006    510.331
 89.470    642.228    601.368     40.860    510.197    599.712    510.197    511.915    510.197
 89.570    597.000    599.007     -2.007    510.060    597.304    510.060    511.826    510.060
 89.670    543.000    594.511    -51.511    509.923    592.757    509.923    511.738    509.923
 89.770    576.000    588.344    -12.344    509.784    586.532    509.784    511.652    509.784
 89.870    537.951    581.078    -43.127    509.643    579.204    509.643    511.568    509.643
 89.970    553.000    573.292    -20.292    509.501    571.350    509.501    511.487    509.501
 90.070    534.000    565.503    -31.503    509.357    563.489    509.357    511.410    509.357
 90.170    557.000    558.130     -1.130    509.212    556.037    509.212    511.336    509.212
 90.270    531.000    551.476    -20.476    509.066    549.299    509.066    511.268    509.066
 90.370    575.049    545.729     29.319    508.918    543.462    508.918    511.205    508.918
 90.470    517.315    540.973    -23.658    508.768    538.608    508.768    511.149    508.768
 90.570    520.000    537.203    -17.203    508.617    534.730    508.617    511.101    508.617
 90.670    528.000    534.353     -6.353    508.465    531.761    508.465    511.065    508.465
 90.770    534.000    532.320      1.680    508.311    529.594    508.311    511.042    508.311
 90.870    533.000    530.989      2.011    508.156    528.112    508.156    511.036    508.156
 90.970    485.000    530.253    -45.253    507.999    527.202    507.999    511.052    507.999
 91.070    532.000    530.031      1.969    507.841    526.776    507.841    511.096    507.841
 91.170    506.000    530.271    -24.271    507.682    526.777    507.682    511.175    507.682
 91.270    517.000    530.964    -13.964    507.521    527.186    507.521    511.297    507.521
 91.370    567.258    532.140     35.118    507.359    528.021    507.359    511.474    507.359
 91.470    515.000    533.840    -18.840    507.195    529.312    507.195    511.718    507.195
 91.570    529.075    536.254     -7.179    507.030    531.236    507.030    512.043    507.030
 91.670    527.845    539.540    -11.695    506.864    533.931    506.864    512.464    506.864
 91.770    528.337    543.886    -15.550    506.696    537.573    506.696    512.999    506.696
 91.870    527.000    549.516    -22.516    506.527    542.366    506.527    513.664    506.527
 91.970    556.000    556.664     -0.664    506.356    548.528    506.356    514.474    506.356
 92.070    575.319    565.553      9.766    506.185    556.270    506.185    515.445    506.185
 92.170    583.000    576.370      6.630    506.011    565.767    506.011    516.588    506.011
 92.270    598.000    589.237      8.763    505.837    577.132    505.837    517.908    505.837
 92.370    606.000    604.180      1.820    505.661    590.394    505.661    519.407    505.661
 92.470    580.598    621.110    -40.512    505.484    605.472    505.484    521.075    505.484
 92.570    646.000    639.801      6.199    505.305    622.156    505.305    522.896    505.305
 92.670    667.000    659.874      7.126    505.125    640.099    505.125    524.839    505.125
 92.770    655.645    680.795    -25.150    504.944    658.810    504.944    526.861    504.944
 92.870    791.000    701.896     89.104    504.762    677.682    504.762    528.903    504.762
 92.970    663.000    722.421    -59.421    504.578    696.038    504.578    530.883    504.578
 93.070    755.000    741.622     13.378    504.393    713.228    504.393    532.706    504.393
 93.170    786.000    758.898     27.102    504.207    728.766    504.207    534.258    504.207
 93.270    771.093    773.900     -2.807    504.020    742.418    504.020    535.419    504.020
 93.370    817.069    786.545     30.524    503.831    754.212    503.831    536.084    503.831
 93.470    849.000    796.986     52.014    503.641    764.371    503.641    536.177    503.641
 93.570    827.000    805.512     21.488    503.450    773.212    503.450    535.673    503.450
 93.670    818.384    812.493      5.891    503.257    781.070    503.257    534.606    503.257
 93.770    878.000    818.367     59.633    503.064    788.303    503.064    533.055    503.064
 93.870    834.376    823.667     10.709    502.869    795.334    502.869    531.132    502.869
 93.970    881.131    829.016     52.115    502.673    802.668    502.673    528.954    502.673
 94.070    818.000    835.046    -17.046    502.476    810.822    502.476    526.634    502.476
 94.170    799.000    842.226    -43.226    502.277    820.173    502.277    524.266    502.277
 94.270    795.708    850.695    -54.987    502.078    830.783    502.078    521.928    502.078
 94.370    817.849    860.151    -42.302    501.877    842.291    501.877    519.678    501.877
 94.470    931.000    869.818     61.182    501.676    853.881    501.676    517.556    501.676
 94.570    844.773    878.515    -33.742    501.473    864.344    501.473    515.591    501.473
 94.670    891.000    884.783      6.217    501.269    872.206    501.269    513.799    501.269
 94.770    913.653    887.104     26.549    501.064    875.941    501.064    512.187    501.064
 94.870    839.600    884.190    -44.590    500.857    874.262    500.857    510.754    500.857
 94.970    887.000    875.282     11.718    500.650    866.416    500.650    509.493    500.650
 95.070    913.000    860.363     52.637    500.442    852.397    500.442    508.393    500.442
 95.170    913.000    840.175     72.825    500.232    832.962    500.232    507.438    500.232
 95.270    860.000    816.065     43.935    500.022    809.472    500.022    506.614    500.022
 95.370    754.668    789.743    -35.074    499.810    783.654    499.810    505.903    499.810
 95.470    805.000    763.070     41.930    499.598    757.385    499.598    505.288    499.598
 95.570    808.000    737.900     70.100    499.385    732.534    499.385    504.756    499.385
 95.670    707.283    715.983     -8.700    499.170    710.866    499.170    504.292    499.170
 95.770    720.000    698.896     21.104    498.955    693.968    498.955    503.884    498.955
 95.870    715.000    688.069     26.931    498.738    683.282    498.738    503.522    498.738
 95.970    708.000    684.700     23.300    498.521    680.012    498.521    503.198    498.521
 96.070    651.718    689.785    -38.067    498.302    685.164    498.302    502.905    498.302
 96.170    732.298    704.125     28.174    498.083    699.542    498.083    502.638    498.083
 96.270    753.743    728.297     25.445    497.863    723.729    497.863    502.393    497.863
 96.370    770.000    762.618      7.382    497.642    758.044    497.642    502.166    497.642
 96.470    778.000    807.067    -29.067    497.420    802.469    497.420    501.956    497.420
 96.570    873.416    861.199     12.217    497.197    856.563    497.197    501.760    497.197
 96.670    966.223    924.047     42.176    496.973    919.357    496.973    501.578    496.973
 96.770   1057.000    994.038     62.962    496.749    989.282    496.749    501.410    496.749
 96.870   1102.891   1068.949     33.942    496.523   1064.116    496.523    501.254    496.523
 96.970   1180.907   1145.874     35.033    496.297   1140.952    496.297    501.111    496.297
 97.070   1203.732   1221.280    -17.548    496.070   1216.260    496.070    500.981    496.070
 97.170   1278.000   1291.122    -13.122    495.842   1285.994    495.842    500.864    495.842
 97.270   1361.000   1351.083      9.917    495.614   1345.837    495.614    500.762    495.614
 97.370   1336.000   1396.981    -60.981    495.385   1391.606    495.385    500.675    495.385
 97.470   1378.801   1425.354    -46.553    495.155   1419.838    495.155    500.603    495.155
 97.570   1368.104   1434.086    -65.982    494.924   1428.412    494.924    500.550    494.924
 97.670   1478.531   1422.827     55.704    494.692   1416.975    494.692    500.518    494.692
 97.770   1339.000   1393.017    -54.017    494.460   1386.962    494.460    500.510    494.460
 97.870   1391.000   1347.506     43.494    494.227   1341.219    494.227    500.528    494.227
 97.970   1239.000   1290.002    -51.002    493.994   1283.446    493.994    500.578    493.994
 98.070   1211.000   1224.552    -13.552    493.760   1217.685    493.760    500.666    493.760
 98.170   1160.000   1155.176      4.824    493.525   1147.947    493.525    500.799    493.525
 98.270   1055.166   1085.632    -30.466    493.290   1077.980    493.290    500.989    493.290
 98.370   1039.000   1019.274     19.726    493.054   1011.127    493.054    501.249    493.054
 98.470    940.000    958.982    -18.982    492.817    950.250    492.817    501.593    492.817
 98.570    876.248    907.137    -30.889    492.580    897.711    492.580    502.044    492.580
 98.670    841.000    865.634    -24.634    492.342    855.382    492.342    502.624    492.342
 98.770    817.000    835.930    -18.930    492.104    824.691    492.104    503.364    492.104
 98.870    827.000    819.101      7.899    491.865    806.681    491.865    504.298    491.865
 98.970    818.000    815.914      2.086    491.626    802.077    491.626    505.466    491.626
 99.070    858.462    826.881     31.581    491.387    811.350    491.387    506.911    491.387
 99.170    867.000    852.294     14.706    491.147    834.743    491.147    508.683    491.147
 99.270    940.864    892.225     48.638    490.906    872.277    490.906    510.833    490.906
 99.370    997.000    946.483     50.517    490.665    923.709    490.665    513.412    490.665
 99.470   1016.000   1014.543      1.457    490.424    988.464    490.424    516.472    490.424
 99.570   1110.000   1095.502     14.498    490.182   1065.595    490.182    520.058    490.182
 99.670   1200.000   1187.938     12.062    489.940   1153.641    489.940    524.209    489.940
 99.770   1326.306   1289.837     36.469    489.698   1250.562    489.698    528.950    489.698
 99.870   1393.000   1398.544     -5.544    489.455   1353.696    489.455    534.291    489.455
 99.970   1466.038   1510.753    -44.715    489.212   1459.744    489.212    540.223    489.212
100.070   1689.000   1622.569     66.431    488.969   1564.847    488.969    546.711    488.969
100.170   1786.000   1729.699     56.301    488.725   1664.775    488.725    553.691    488.725
100.270   1827.420   1827.767     -0.347    488.481   1755.248    488.481    561.066    488.481
100.370   1837.000   1912.697    -75.697    488.237   1832.323    488.237    568.703    488.237
100.470   1995.709   1981.038     14.671    487.993   1892.725    487.993    576.424    487.993
100.570   2080.000   2030.124     49.876    487.749   1934.009    487.749    584.006    487.749
100.670   2035.694   2058.070    -22.376    487.504   1954.561    487.504    591.177    487.504
100.770   2101.348   2063.749     37.600    487.260   1953.566    487.260    597.626    487.260
100.870   2080.367   2046.903     33.464    487.015   1931.103    487.015    603.012    487.015
100.970   2107.000   2008.405     98.595    486.770   1888.377    486.770    607.004    486.770
101.070   1959.000   1950.490      8.510    486.525   1827.909    486.525    609.317    486.525
101.170   1871.000   1876.756     -5.756    486.280   1753.480    486.280    609.765    486.280
101.270   1833.489   1791.818     41.672    486.035   1669.760    486.035    608.296    486.035
101.370   1691.566   1700.748     -9.183    485.790   1581.728    485.790    605.003    485.790
101.470   1550.000   1608.492    -58.492    485.545   1494.111    485.545    600.105    485.545
101.570   1509.933   1519.400     -9.467    485.301   1410.960    485.301    593.905    485.301
101.670   1446.124   1436.947      9.177    485.056   1335.408    485.056    586.742    485.056
101.770   1402.926   1363.576     39.350    484.811   1269.568    484.811    578.951    484.811
101.870   1282.000   1300.665    -18.665    484.566   1214.515    484.566    570.833    484.566
101.970   1252.000   1248.560      3.440    484.322   1170.340    484.322    562.647    484.322
102.070   1180.000   1206.666    -26.666    484.078   1136.236    484.078    554.601    484.078
102.170   1092.000   1173.582    -81.582    483.834   1110.640    483.834    546.861    483.834
102.270   1091.000   1147.279    -56.279    483.590   1091.400    483.590    539.549    483.590
102.370   1122.010   1125.326     -3.316    483.346   1075.997    483.346    532.752    483.346
102.470   1048.943   1105.155    -56.212    483.103   1061.810    483.103    526.524    483.103
102.570   1083.000   1084.378     -1.378    482.859   1046.422    482.859    520.893    482.859
102.670   1108.275   1061.086     47.188    482.617   1027.920    482.617    515.861    482.617
102.770   1077.361   1034.082     43.279    482.374   1005.120    482.374    511.415    482.374
102.870   1033.000   1002.947     30.053    482.132    977.635    482.132    507.523    482.132
102.970    979.405    967.964     11.441    481.890    945.786    481.890    504.146    481.890
103.070    930.000    929.917      0.083    481.649    910.406    481.649    501.236    481.649
103.170    879.000    889.879    -10.879    481.408    872.619    481.408    498.742    481.408
103.270    844.289    849.029     -4.740    481.168    833.655    481.168    496.610    481.168
103.370    816.000    808.519      7.481    480.928    794.718    480.928    494.792    480.928
103.470    744.000    769.389    -25.389    480.688    756.896    480.688    493.238    480.688
103.570    764.207    732.515     31.692    480.449    721.107    480.449    491.907    480.449
103.670    691.000    698.568     -7.568    480.211    688.063    480.211    490.761    480.211
103.770    708.000    668.010     39.990    479.973    658.256    479.973    489.765    479.973
103.870    675.137    641.089     34.048    479.736    631.964    479.736    488.893    479.736
103.970    610.000    617.859     -7.859    479.500    609.264    479.500    488.121    479.500
104.070    625.000    598.212     26.788    479.264    590.067    479.264    487.430    479.264
104.170    538.232    581.915    -43.682    479.029    574.155    479.029    486.805    479.029
104.270    565.000    568.650     -3.650    478.794    561.224    478.794    486.234    478.794
104.370    562.346    558.056      4.290    478.561    550.921    478.561    485.705    478.561
104.470    583.823    549.755     34.068    478.328    542.876    478.328    485.214    478.328
104.570    570.000    543.380     26.620    478.096    536.726    478.096    484.754    478.096
104.670    571.000    538.614     32.386    477.865    532.161    477.865    484.321    477.865
104.770    542.138    535.172      6.966    477.635    528.897    477.635    483.910    477.635
104.870    572.000    532.823     39.177    477.406    526.708    477.406    483.520    477.406
104.970    511.000    531.394    -20.394    477.177    525.421    477.177    483.147    477.177
105.070    556.000    530.762     25.238    476.950    524.917    476.950    482.791    476.950
105.170    560.000    530.856     29.144    476.723    525.125    476.723    482.449    476.723
105.270    547.000    531.651     15.349    476.498    526.021    476.498    482.120    476.498
105.370    547.000    533.159     13.841    476.274    527.619    476.274    481.805    476.274
105.470    506.300    535.429    -29.129    476.050    529.968    476.050    481.501    476.050
105.570    548.000    538.535      9.465    475.828    533.143    475.828    481.208    475.828
105.670    572.345    542.567     29.777    475.607    537.234    475.607    480.925    475.607
105.770    525.000    547.621    -22.621    475.387    542.338    475.387    480.653    475.387
105.870    532.065    553.781    -21.716    475.169    548.540    475.169    480.390    475.169
105.970    566.000    561.108      4.892    474.951    555.900    474.951    480.136    474.951
106.070    555.000    569.627    -14.627    474.735    564.444    474.735    479.891    474.735
106.170    608.000    579.307     28.693    474.520    574.143    474.520    479.655    474.520
106.270    628.218    590.064     38.154    474.307    584.911    474.307    479.426    474.307
106.370    596.000    601.743     -5.743    474.095    596.595    474.095    479.207    474.095
106.470    614.000    614.127     -0.127    473.884    608.977    473.884    478.995    473.884
106.570    565.000    626.933    -61.933    473.675    621.775    473.675    478.791    473.675
106.670    629.000    639.821    -10.821    473.467    634.648    473.467    478.594    473.467
106.770    677.245    652.402     24.842    473.261    647.211    473.261    478.406    473.261
106.870    614.000    664.263    -50.263    473.056    659.047    473.056    478.225    473.056
106.970    621.000    674.985    -53.985    472.853    669.739    472.853    478.051    472.853
107.070    711.428    684.184     27.244    472.652    678.903    472.652    477.886    472.652
107.170    664.000    691.559    -27.559    472.452    686.238    472.452    477.728    472.452
107.270    723.085    696.941     26.144    472.253    691.574    472.253    477.577    472.253
107.370    744.745    700.330     44.415    472.057    694.912    472.057    477.435    472.057
107.470    675.000    701.903    -26.903    471.862    696.430    471.862    477.301    471.862
107.570    748.240    701.989     46.250    471.669    696.453    471.669    477.174    471.669
107.670    674.623    701.011    -26.388    471.478    695.406    471.478    477.056    471.478
107.770    659.000    699.422    -40.422    471.289    693.741    471.289    476.947    471.289
107.870    696.000    697.650     -1.650    471.101    691.887    471.101    476.846    471.101
107.970    738.253    696.052     42.201    470.915    690.200    470.915    476.754    470.915
108.070    638.000    694.884    -56.884    470.732    688.935    470.732    476.671    470.732
108.170    690.000    694.281     -4.281    470.550    688.228    470.550    476.597    470.550
108.270    719.000    694.254     24.746    470.371    688.090    470.371    476.534    470.371
108.370    631.000    694.688    -63.688    470.193    688.403    470.193    476.480    470.193
108.470    694.000    695.347     -1.347    470.018    688.933    470.018    476.437    470.018
108.570    649.745    695.900    -46.155    469.844    689.348    469.844    476.405    469.844
108.670    682.000    695.948    -13.948    469.673    689.248    469.673    476.384    469.673
108.770    711.396    695.070     16.326    469.504    688.213    469.504    476.376    469.504
108.870    677.000    692.880    -15.880    469.338    685.855    469.338    476.379    469.338
108.970    715.000    689.085     25.915    469.173    681.881    469.173    476.396    469.173
109.070    663.000    683.532    -20.532    469.011    676.137    469.011    476.427    469.011
109.170    702.000    676.228     25.772    468.852    668.629    468.852    476.473    468.852
109.270    687.235    667.327     19.908    468.694    659.511    468.694    476.533    468.694
109.370    653.000    657.100     -4.100    468.540    649.051    468.540    476.611    468.540
109.470    597.000    645.885    -48.885    468.387    637.588    468.387    476.706    468.387
109.570    626.000    634.051     -8.051    468.237    625.490    468.237    476.819    468.237
109.670    628.000    621.966      6.034    468.090    613.123    468.090    476.953    468.090
109.770    617.000    609.974      7.026    467.946    600.829    467.946    477.108    467.946
109.870    614.000    598.380     15.620    467.804    588.912    467.804    477.288    467.804
109.970    596.000    587.445      8.555    467.664    577.629    467.664    477.493    467.664
110.070    634.000    577.371     56.629    467.528    567.182    467.528    477.728    467.528
110.170    586.000    568.289     17.711    467.394    557.698    467.394    477.994    467.394
110.270    610.000    560.326     49.674    467.263    549.300    467.263    478.297    467.263
110.370    603.000    553.549     49.451    467.135    542.048    467.135    478.640    467.135
110.470    573.000    547.941     25.059    467.009    535.923    467.009    479.031    467.009
110.570    499.038    543.469    -44.431    466.887    530.882    466.887    479.476    466.887
110.670    558.000    540.073     17.927    466.767    526.858    466.767    479.983    466.767
110.770    588.000    537.675     50.325    466.651    523.761    466.651    480.564    466.651
110.870    549.205    536.187     13.019    466.538    521.492    466.538    481.230    466.538
110.970    527.000    535.518     -8.518    466.428    519.944    466.428    481.998    466.428
111.070    530.607    535.583     -4.975    466.320    519.014    466.320    482.885    466.320
111.170    506.673    536.303    -29.630    466.217    518.601    466.217    483.913    466.217
111.270    581.000    537.612     43.388    466.116    518.615    466.116    485.107    466.116
111.370    499.665    539.459    -39.794    466.018    518.974    466.018    486.496    466.018
111.470    552.000    541.806     10.194    465.924    519.609    465.924    488.114    465.924
111.570    541.000    544.633     -3.633    465.834    520.460    465.834    489.998    465.834
111.670    514.004    547.934    -33.929    465.746    521.481    465.746    492.190    465.746
111.770    526.018    551.719    -25.701    465.662    522.634    465.662    494.739    465.662
111.870    511.000    556.015    -45.015    465.582    523.894    465.582    497.693    465.582
111.970    521.000    560.861    -39.861    465.505    525.248    465.505    501.109    465.505
112.070    537.000    566.310    -29.310    465.432    526.691    465.432    505.041    465.432
112.170    578.000    572.427      5.573    465.362    528.230    465.362    509.549    465.362
112.270    641.000    579.286     61.714    465.296    529.882    465.296    514.691    465.296
112.370    584.000    586.968     -2.968    465.234    531.670    465.234    520.521    465.234
112.470    552.000    595.556    -43.556    465.176    533.629    465.176    527.093    465.176
112.570    668.000    605.137     62.863    465.121    535.799    465.121    534.449    465.121
112.670    597.000    615.803    -18.803    465.070    538.235    465.070    542.628    465.070
112.770    636.699    627.642      9.057    465.023    541.004    465.023    551.651    465.023
112.870    654.000    640.752     13.248    464.981    544.193    464.981    561.528    464.981
112.970    640.000    655.235    -15.235    464.942    547.914    464.942    572.251    464.942
113.070    640.000    671.210    -31.210    464.907    552.315    464.907    583.789    464.907
113.170    678.000    688.816    -10.816    464.876    557.589    464.876    596.089    464.876
113.270    712.000    708.225      3.775    464.849    563.987    464.849    609.073    464.849
113.370    728.000    729.659     -1.659    464.827    571.839    464.827    622.630    464.827
113.470    752.000    753.403     -1.403    464.809    581.570    464.809    636.622    464.809
113.570    831.000    779.825     51.175    464.795    593.725    464.795    650.872    464.795
113.670    790.000    809.402    -19.402    464.785    608.993    464.785    665.167    464.785
113.770    790.945    842.741    -51.796    464.780    628.234    464.780    679.254    464.780
113.870    909.391    880.606     28.786    464.780    652.503    464.780    692.841    464.780
113.970    889.415    923.942    -34.527    464.783    683.075    464.783    705.599    464.783
114.070    942.939    973.905    -30.967    464.792    721.464    464.792    717.171    464.792
114.170   1040.000   1031.885      8.115    464.805    769.428    464.805    727.184    464.805
114.270   1027.000   1099.523    -72.523    464.822    828.971    464.822    735.278    464.822
114.370   1195.000   1178.726     16.274    464.844    902.323    464.844    741.129    464.844
114.470   1292.000   1271.654     20.346    464.871    991.896    464.871    744.485    464.871
114.570   1322.000   1380.692    -58.692    464.903   1100.224    464.903    745.195    464.903
114.670   1564.000   1508.371     55.629    464.940   1229.872    464.940    743.226    464.940
114.770   1648.338   1657.263     -8.925    464.982   1383.319    464.982    738.672    464.982
114.870   1910.000   1829.824     80.176    465.028   1562.817    465.028    731.736    465.028
114.970   2093.000   2028.204     64.796    465.080   1770.225    465.080    722.709    465.080
115.070   2485.000   2254.036    230.964    465.136   2006.830    465.136    711.939    465.136
115.170   2583.000   2508.221     74.779    465.198   2273.166    465.198    699.794    465.198
115.270   2799.047   2790.723      8.324    465.265   2568.828    465.265    686.643    465.265
115.370   3040.000   3100.385    -60.385    465.337   2892.320    465.337    672.830    465.337
115.470   3470.000   3434.794     35.206    465.414   3240.914    465.414    658.668    465.414
115.570   3779.000   3790.180    -11.180    465.497   3610.574    465.497    644.429    465.497
115.670   4066.000   4161.387    -95.387    465.585   3995.909    465.585    630.346    465.585
115.770   4471.000   4541.889    -70.889    465.678   4390.205    465.678    616.614    465.678
115.870   4805.000   4923.883   -118.883    465.777   4785.500    465.777    603.391    465.777
115.970   5172.000   5298.436   -126.436    465.882   5172.740    465.882    590.801    465.882
116.070   5675.000   5655.708     19.292    465.992   5541.998    465.992    578.935    465.992
116.170   5837.000   5985.273   -148.273    466.108   5882.772    466.108    567.866    466.108
116.270   6353.351   6276.496     76.855    466.229   6184.394    466.229    557.632    466.229
116.370   6575.000   6519.084     55.916    466.357   6436.549    466.357    548.252    466.357
116.470   6696.000   6703.724     -7.724    466.490   6629.926    466.490    539.725    466.490
116.570   6932.720   6822.828    109.892    466.629   6756.948    466.629    532.036    466.629
116.670   6988.000   6871.240    116.760    466.774   6812.489    466.774    525.154    466.774
116.770   6923.042   6846.797     76.245    466.925   6794.420    466.925    519.038    466.925
116.870   6634.191   6750.569   -116.378    467.082   6703.854    467.082    513.641    467.082
116.970   6609.000   6586.715     22.285    467.245   6545.000    467.245    508.908    467.245
117.070   6417.000   6362.006     54.994    467.414   6324.682    467.414    504.782    467.414
117.170   6004.000   6085.133    -81.133    467.589   6051.647    467.589    501.205    467.589
117.270   5792.330   5765.984     26.346    467.771   5735.836    467.771    498.121    467.771
117.370   5272.000   5414.998   -142.998    467.959   5387.744    467.959    495.472    467.959
117.470   4950.000   5042.516    -92.516    468.154   5017.765    468.154    493.207    468.154
117.570   4562.000   4658.418    -96.418    468.355   4635.834    468.355    491.268    468.355
117.670   4341.000   4271.808     69.192    468.562   4251.087    468.562    489.628    468.562
117.770   4019.000   3890.738    128.262    468.777   3871.622    468.777    488.239    468.777
117.870   3472.000   3522.071    -50.071    468.997   3504.343    468.997    487.065    468.997
117.970   3270.631   3171.391     99.239    469.225   3154.865    469.225    486.074    469.225
118.070   2913.000   2842.978     70.022    469.459   2827.498    469.459    485.240    469.459
118.170   2550.000   2539.842     10.158    469.700   2525.276    469.700    484.540    469.700
118.270   2247.927   2263.812    -15.886    469.948   2250.051    469.948    483.953    469.948
118.370   2040.209   2015.658     24.551    470.203   2002.609    470.203    483.464    470.203
118.470   1807.000   1795.237     11.763    470.465   1782.825    470.465    483.059    470.465
118.570   1571.000   1601.658    -30.658    470.734   1589.818    470.734    482.725    470.734
118.670   1499.416   1433.446     65.970    471.010   1422.125    471.010    482.455    471.010
118.770   1259.000   1288.706    -29.706    471.293   1277.858    471.293    482.240    471.293
118.870   1122.000   1165.276    -43.276    471.584   1154.863    471.584    482.074    471.584
118.970   1095.000   1060.864     34.136    471.882   1050.853    471.882    481.951    471.882
119.070   1026.000    973.162     52.838    472.187    963.524    472.187    481.868    472.187
119.170    901.000    899.939      1.061    472.500    890.648    472.500    481.822    472.500
119.270    800.782    839.105    -38.323    472.820    830.138    472.820    481.809    472.820
119.370    825.000    788.760     36.240    473.148    780.095    473.148    481.827    473.148
119.470    816.000    747.212     68.788    473.483    738.828    473.483    481.876    473.483
119.570    706.000    712.988     -6.988    473.826    704.866    473.826    481.953    473.826
119.670    662.000    684.827    -22.827    474.177    676.950    474.177    482.058    474.177
119.770    622.026    661.669    -39.643    474.536    654.018    474.536    482.189    474.536
119.870    623.497    642.633    -19.136    474.903    635.190    474.903    482.346    474.903
119.970    597.644    626.996    -29.353    475.278    619.745    475.278    482.529    475.278
120.070    605.000    614.174     -9.174    475.660    607.096    475.660    482.738    475.660
120.170    601.000    603.693     -2.693    476.051    596.773    476.051    482.972    476.051
120.270    576.505    595.179    -18.675    476.450    588.400    476.450    483.231    476.450
120.370    591.000    588.334      2.666    476.857    581.678    476.857    483.516    476.857
120.470    590.000    582.923      7.077    477.273    576.372    477.273    483.826    477.273
120.570    528.000    578.762    -50.762    477.697    572.299    477.697    484.162    477.697
120.670    536.000    575.704    -39.704    478.129    569.313    478.129    484.524    478.129
120.770    530.000    573.638    -43.638    478.570    567.300    478.570    484.912    478.570
120.870    575.000    572.473      2.527    479.020    566.170    479.020    485.326    479.020
120.970    544.000    572.135    -28.135    479.478    565.851    479.478    485.767    479.478
121.070    569.000    572.564     -3.564    479.945    566.280    479.945    486.234    479.945
121.170    555.028    573.706    -18.678    480.420    567.406    480.420    486.728    480.420
121.270    617.084    575.511     41.573    480.905    569.177    480.905    487.248    480.905
121.370    565.000    577.930    -12.930    481.398    571.545    481.398    487.793    481.398
121.470    617.745    580.909     36.836    481.901    574.458    481.901    488.364    481.901
121.570    610.000    584.392     25.608    482.412    577.859    482.412    488.960    482.412
121.670    563.051    588.315    -25.264    482.933    581.686    482.933    489.579    482.933
121.770    559.605    592.607    -33.002    483.462    585.869    483.462    490.220    483.462
121.870    566.000    597.188    -31.188    484.002    590.329    484.002    490.883    484.002
121.970    615.000    601.970     13.030    484.550    594.980    484.550    491.564    484.550
122.070    592.043    606.857    -14.814    485.108    599.729    485.108    492.262    485.108
122.170    606.000    611.746     -5.746    485.675    604.475    485.675    492.975    485.675
122.270    578.000    616.528    -38.528    486.252    609.112    486.252    493.700    486.252
122.370    636.000    621.092     14.908    486.839    613.532    486.839    494.434    486.839
122.470    672.725    625.325     47.400    487.435    617.625    487.435    495.172    487.435
122.570    640.000    629.119     10.881    488.041    621.287    488.041    495.912    488.041
122.670    695.000    632.374     62.626    488.657    624.424    488.657    496.648    488.657
122.770    659.000    635.006     23.994    489.283    626.954    489.283    497.378    489.283
122.870    667.272    636.952     30.320    489.919    628.820    489.919    498.096    489.919
122.970    646.000    638.171      7.829    490.565    629.983    490.565    498.798    490.565
123.070    650.762    638.651     12.111    491.221    630.436    491.221    499.481    491.221
123.170    601.734    638.404    -36.669    491.888    630.194    491.888    500.142    491.888
123.270    614.000    637.466    -23.466    492.564    629.295    492.564    500.779    492.564
123.370    661.000    635.894     25.106    493.251    627.796    493.251    501.392    493.251
123.470    576.000    633.756    -57.756    493.949    625.766    493.949    501.980    493.949
123.570    666.206    631.133     35.073    494.657    623.283    494.657    502.547    494.657
123.670    624.000    628.107     -4.107    495.376    620.427    495.376    503.093    495.376
123.770    585.951    624.763    -38.813    496.105    617.280    496.105    503.623    496.105
123.870    636.693    621.184     15.508    496.846    613.921    496.846    504.141    496.846
123.970    650.000    617.448     32.552    497.597    610.423    497.597    504.651    497.597
124.070    615.672    613.624      2.048    498.359    606.852    498.359    505.158    498.359
124.170    634.000    609.775     24.225    499.132    603.266    499.132    505.664    499.132
124.270    649.798    605.951     43.846    499.916    599.712    499.916    506.175    499.916
124.370    590.000    602.193    -12.193    500.711    596.228    500.711    506.694    500.711
124.470    637.000    598.532     38.468    501.517    592.841    501.517    507.223    501.517
124.570    611.000    594.987     16.013    502.335    589.568    502.335    507.767    502.335
124.670    571.430    591.570    -20.140    503.164    586.418    503.164    508.326    503.164
124.770    573.000    588.285    -15.285    504.005    583.395    504.005    508.904    504.005
124.870    594.000    585.132      8.868    504.857    580.494    504.857    509.502    504.857
124.970    634.000    582.107     51.893    505.721    577.712    505.721    510.122    505.721
