neutron_powder_diffraction_0031
R_wp: 3.737
Temperature (K): 548.624
Counts: 83161.00
Wavelength (Ã…): 2.52098
COMMENTS
Test file for demonstrating the .xyy file format in Reel1.0
END OF HEADER
   tth       Y_obs     Y_calc      Y_res    Background    Phase_1_Nuc    Phase_1_Mag    Phase_2_Nuc    Phase_2_Mag
  9.970    661.944    704.436    -42.492    702.853    703.886    703.403    702.853    702.853
 10.070    716.000    703.524     12.476    701.852    702.969    702.408    701.852    701.852
 10.170    754.086    702.629     51.457    700.856    702.067    701.417    700.856    700.856
 10.270    733.033    701.751     31.281    699.864    701.184    700.431    699.864    699.864
 10.370    683.235    700.895    -17.660    698.877    700.321    699.450    698.877    698.877
 10.470    706.202    700.064      6.138    697.895    699.484    698.474    697.895    697.895
 10.570    701.000    699.264      1.736    696.917    698.677    697.502    696.917    696.917
 10.670    659.924    698.500    -38.577    695.943    697.907    696.536    695.943    695.943
 10.770    691.000    697.776     -6.776    694.975    697.176    695.573    694.975    694.975
 10.870    756.000    697.105     58.895    694.011    696.498    694.616    694.011    694.011
 10.970    661.344    696.500    -35.156    693.051    695.887    693.663    693.051    693.051
 11.070    691.269    695.982     -4.712    692.096    695.361    692.715    692.096    692.096
 11.170    700.000    695.577      4.423    691.145    694.949    691.771    691.145    691.145
 11.270    730.234    695.329     34.905    690.199    694.693    690.833    690.199    690.199
 11.370    664.949    695.299    -30.350    689.258    694.655    689.899    689.258    689.258
 11.470    679.360    695.614    -16.255    688.321    694.963    688.969    688.321    688.321
 11.570    697.757    696.546      1.211    687.389    695.886    688.044    687.389    687.389
 11.670    746.000    698.705     47.295    686.461    698.036    687.124    686.461    686.461
 11.770    749.157    703.325     45.832    685.538    702.645    686.209    685.538    685.538
 11.870    719.000    712.418      6.582    684.619    711.725    685.298    684.619    684.619
 11.970    791.000    728.281     62.719    683.705    727.570    684.392    683.705    683.705
 12.070    827.000    751.853     75.147    682.796    751.121    683.490    682.796    682.796
 12.170    849.000    779.790     69.210    681.891    779.033    682.594    681.891    681.891
 12.270    825.000    801.636     23.364    680.990    800.859    681.701    680.990    680.990
 12.370    840.000    803.921     36.079    680.094    803.133    680.814    680.094    680.094
 12.470    803.000    784.141     18.859    679.202    783.355    679.931    679.202    679.202
 12.570    783.822    754.497     29.325    678.315    753.718    679.053    678.315    678.315
 12.670    739.777    727.401     12.376    677.433    726.627    678.180    677.433    677.433
 12.770    702.000    707.817     -5.817    676.555    707.044    677.311    676.555    676.555
 12.870    679.000    695.618    -16.618    675.681    694.842    676.447    675.681    675.681
 12.970    656.000    688.373    -32.373    674.812    687.591    675.587    674.812    674.812
 13.070    664.000    684.003    -20.003    673.947    683.213    674.732    673.947    673.947
 13.170    676.000    681.087     -5.087    673.087    680.288    673.882    673.087    673.087
 13.270    644.000    678.893    -34.893    672.232    678.085    673.037    672.232    672.232
 13.370    684.412    677.111      7.301    671.380    676.292    672.196    671.380    671.380
 13.470    670.450    675.550     -5.100    670.533    674.722    671.360    670.533    670.533
 13.570    627.445    674.152    -46.707    669.691    673.313    670.529    669.691    669.691
 13.670    688.000    672.876     15.124    668.853    672.026    669.702    668.853    668.853
 13.770    652.000    671.691    -19.691    668.020    670.830    668.879    668.020    668.020
 13.870    634.144    670.577    -36.434    667.191    669.705    668.062    667.191    667.191
 13.970    689.000    669.520     19.480    666.366    668.636    667.249    666.366    666.366
 14.070    669.000    668.507      0.493    665.546    667.611    666.440    665.546    665.546
 14.170    669.000    667.531      1.469    664.730    666.624    665.637    664.730    664.730
 14.270    657.000    666.586     -9.586    663.919    665.667    664.838    663.919    663.919
 14.370    664.000    665.667     -1.667    663.112    664.734    664.043    663.112    663.112
 14.470    679.028    664.769     14.259    662.309    663.823    663.254    662.309    662.309
 14.570    655.000    663.890     -8.890    661.511    662.931    662.469    661.511    661.511
 14.670    614.390    663.027    -48.638    660.717    662.055    661.688    660.717    660.717
 14.770    656.000    662.180     -6.180    659.927    661.194    660.913    659.927    659.927
 14.870    628.875    661.346    -32.471    659.142    660.346    660.142    659.142    659.142
 14.970    656.450    660.524     -4.074    658.362    659.509    659.375    658.362    658.362
 15.070    633.099    659.713    -26.614    657.585    658.684    658.614    657.585    657.585
 15.170    628.000    658.918    -30.918    656.813    657.874    657.857    656.813    656.813
 15.270    582.000    658.128    -76.128    656.045    657.069    657.104    656.045    656.045
 15.370    653.000    657.345     -4.345    655.282    656.270    656.357    655.282    655.282
 15.470    641.272    656.571    -15.299    654.523    655.480    655.614    654.523    654.523
 15.570    648.735    655.804     -7.069    653.768    654.697    654.875    653.768    653.768
 15.670    661.000    655.045      5.955    653.018    653.921    654.142    653.018    653.018
 15.770    620.569    654.294    -33.724    652.272    653.152    653.413    652.272    652.272
 15.870    671.000    653.552     17.448    651.530    652.393    652.688    651.530    651.530
 15.970    663.000    652.816     10.184    650.792    651.640    651.969    650.792    650.792
 16.070    624.000    652.087    -28.087    650.059    650.891    651.254    650.059    650.059
 16.170    725.000    651.363     73.637    649.330    650.149    650.544    649.330    649.330
 16.270    617.232    650.656    -33.424    648.606    649.423    649.839    648.606    648.606
 16.370    654.000    649.962      4.038    647.885    648.709    649.138    647.885    647.885
 16.470    636.000    649.257    -13.257    647.169    647.984    648.442    647.169    647.169
 16.570    627.000    648.556    -21.556    646.457    647.262    647.751    646.457    646.457
 16.670    611.000    647.861    -36.861    645.750    646.546    647.064    645.750    645.750
 16.770    644.246    647.172     -2.926    645.046    645.835    646.383    645.046    645.046
 16.870    670.000    646.488     23.512    644.347    645.129    645.706    644.347    644.347
 16.970    668.546    645.810     22.735    643.652    644.428    645.034    643.652    643.652
 17.070    628.000    645.138    -17.138    642.961    643.733    644.367    642.961    642.961
 17.170    670.791    644.471     26.319    642.275    643.042    643.704    642.275    642.275
 17.270    645.000    643.810      1.190    641.592    642.356    643.046    641.592    641.592
 17.370    644.000    643.154      0.846    640.914    641.674    642.394    640.914    640.914
 17.470    693.189    642.504     50.686    640.240    640.998    641.746    640.240    640.240
 17.570    654.540    641.862     12.678    639.570    640.329    641.103    639.570    639.570
 17.670    652.000    641.239     10.761    638.905    639.678    640.466    638.905    638.905
 17.770    659.508    640.646     18.862    638.243    639.056    639.833    638.243    638.243
 17.870    551.000    640.055    -89.055    637.586    638.435    639.206    637.586    637.586
 17.970    652.527    639.436     13.091    636.933    637.786    638.583    636.933    636.933
 18.070    620.000    638.819    -18.819    636.284    637.138    637.964    636.284    636.284
 18.170    675.369    638.207     37.162    635.639    636.495    637.351    635.639    635.639
 18.270    570.000    637.601    -67.601    634.998    635.857    636.743    634.998    634.998
 18.370    648.530    637.001     11.529    634.361    635.223    636.139    634.361    634.361
 18.470    634.127    636.406     -2.278    633.729    634.593    635.541    633.729    633.729
 18.570    619.000    635.816    -16.816    633.100    633.968    634.948    633.100    633.100
 18.670    587.000    635.232    -48.232    632.476    633.348    634.360    632.476    632.476
 18.770    621.000    634.653    -13.653    631.856    632.732    633.777    631.856    631.856
 18.870    653.000    634.080     18.920    631.239    632.120    633.199    631.239    631.239
 18.970    647.535    633.513     14.022    630.627    631.514    632.627    630.627    630.627
 19.070    650.457    632.953     17.505    630.019    630.912    632.060    630.019    630.019
 19.170    652.000    632.405     19.595    629.415    630.322    631.498    629.415    629.415
 19.270    652.000    631.861     20.139    628.815    629.734    630.942    628.815    628.815
 19.370    603.000    631.322    -28.322    628.219    629.150    630.391    628.219    628.219
 19.470    599.000    630.785    -31.785    627.627    628.566    629.846    627.627    627.627
 19.570    590.000    630.261    -40.261    627.039    627.992    629.308    627.039    627.039
 19.670    604.000    629.802    -25.802    626.455    627.465    628.792    626.455    626.455
 19.770    571.000    629.289    -58.289    625.875    626.899    628.265    625.875    625.875
 19.870    620.000    628.777     -8.777    625.299    626.333    627.743    625.299    625.299
 19.970    611.000    628.271    -17.271    624.727    625.772    627.226    624.727    624.727
 20.070    587.000    627.772    -40.772    624.159    625.216    626.715    624.159    624.159
 20.170    616.000    627.290    -11.290    623.595    624.675    626.210    623.595    623.595
 20.270    626.843    626.819      0.024    623.035    624.143    625.711    623.035    623.035
 20.370    607.678    626.342    -18.664    622.478    623.602    625.218    622.478    622.478
 20.470    657.000    625.870     31.130    621.926    623.065    624.731    621.926    621.926
 20.570    612.000    625.406    -13.406    621.378    622.532    624.252    621.378    621.378
 20.670    657.811    624.965     32.846    620.833    622.012    623.786    620.833    620.833
 20.770    590.000    624.554    -34.554    620.293    621.515    623.332    620.293    620.293
 20.870    640.910    624.136     16.775    619.756    621.019    622.873    619.756    619.756
 20.970    593.571    623.773    -30.202    619.223    620.577    622.420    619.223    619.223
 21.070    643.839    623.380     20.458    618.695    620.101    621.973    618.695    618.695
 21.170    620.790    622.984     -2.194    618.170    619.619    621.534    618.170    618.170
 21.270    660.000    622.604     37.396    617.648    619.149    621.103    617.648    617.648
 21.370    609.000    622.208    -13.208    617.131    618.661    620.678    617.131    617.131
 21.470    591.049    621.825    -30.777    616.618    618.180    620.263    616.618    616.618
 21.570    583.122    621.453    -38.331    616.108    617.703    619.857    616.108    616.108
 21.670    622.212    621.087      1.124    615.602    617.233    619.456    615.602    615.602
 21.770    650.967    620.736     30.231    615.100    616.773    619.064    615.100    615.100
 21.870    631.000    620.389     10.611    614.602    616.312    618.679    614.602    614.602
 21.970    610.187    620.055     -9.867    614.108    615.858    618.304    614.108    614.108
 22.070    612.914    619.730     -6.816    613.617    615.409    617.937    613.617    613.617
 22.170    595.000    619.417    -24.417    613.130    614.967    617.580    613.130    613.130
 22.270    618.000    619.119     -1.119    612.647    614.532    617.233    612.647    612.647
 22.370    590.000    618.835    -28.835    612.168    614.106    616.896    612.168    612.168
 22.470    623.246    618.566      4.679    611.692    613.688    616.570    611.692    611.692
 22.570    599.810    618.315    -18.505    611.220    613.280    616.255    611.220    611.220
 22.670    645.480    618.083     27.397    610.752    612.884    615.951    610.752    610.752
 22.770    560.000    617.870    -57.870    610.288    612.499    615.659    610.288    610.288
 22.870    631.000    617.679     13.321    609.827    612.126    615.380    609.827    609.827
 22.970    605.263    617.515    -12.251    609.370    611.769    615.115    609.370    609.370
 23.070    602.000    617.382    -15.382    608.916    611.433    614.865    608.916    608.916
 23.170    583.668    617.273    -33.605    608.467    611.112    614.628    608.467    608.467
 23.270    586.000    617.197    -31.197    608.021    610.812    614.406    608.021    608.021
 23.370    617.000    617.161     -0.161    607.578    610.539    614.201    607.578    607.578
 23.470    668.921    617.171     51.750    607.140    610.298    614.013    607.140    607.140
 23.570    610.000    617.236     -7.236    606.705    610.098    613.843    606.705    606.705
 23.670    563.000    617.368    -54.368    606.273    609.949    613.693    606.273    606.273
 23.770    661.353    617.581     43.771    605.845    609.864    613.564    605.845    605.845
 23.870    562.000    617.899    -55.899    605.421    609.864    613.458    605.421    605.421
 23.970    614.000    618.353     -4.353    605.000    609.980    613.375    605.000    605.000
 24.070    602.706    618.998    -16.292    604.583    610.266    613.318    604.583    604.583
 24.170    644.000    619.942     24.058    604.170    610.827    613.288    604.170    604.170
 24.270    601.000    621.416    -20.416    603.760    611.892    613.288    603.760    603.760
 24.370    635.000    623.901     11.099    603.353    613.939    613.321    603.353    603.353
 24.470    644.000    628.264     15.736    602.950    617.834    613.389    602.950    602.950
 24.570    665.000    635.750     29.250    602.551    624.821    613.495    602.551    602.551
 24.670    683.392    647.562     35.830    602.155    636.097    613.643    602.155    602.155
 24.770    698.241    663.834     34.407    601.763    651.795    613.836    601.763    601.763
 24.870    649.288    682.038    -32.750    601.374    669.379    614.080    601.374    601.374
 24.970    660.000    695.695    -35.695    600.989    682.362    614.379    600.989    600.989
 25.070    734.000    697.294     36.706    600.607    683.219    614.739    600.607    600.607
 25.170    694.000    685.978      8.022    600.229    671.088    615.168    600.229    600.229
 25.270    657.000    668.772    -11.772    599.854    652.990    615.672    599.854    599.854
 25.370    683.914    652.814     31.101    599.482    636.059    616.261    599.482    599.482
 25.470    668.000    641.225     26.775    599.114    623.410    616.944    599.114    599.114
 25.570    641.000    634.172      6.828    598.749    615.195    617.736    598.749    598.749
 25.670    617.000    630.546    -13.546    598.388    610.291    618.649    598.388    598.388
 25.770    693.000    629.080     63.920    598.030    607.414    619.700    598.030    598.030
 25.870    673.000    628.863     44.137    597.676    605.631    620.910    597.676    597.676
 25.970    599.904    629.389    -29.485    597.325    604.413    622.302    597.325    597.325
 26.070    612.000    630.432    -18.432    596.977    603.505    623.904    596.977    596.977
 26.170    637.000    631.912      5.088    596.633    602.792    625.753    596.633    596.633
 26.270    639.000    633.816      5.184    596.292    602.218    627.889    596.292    596.292
 26.370    637.078    636.165      0.913    595.954    601.753    630.365    595.954    595.954
 26.470    629.000    639.008    -10.008    595.620    601.380    633.246    595.620    595.620
 26.570    650.000    642.426      7.574    595.289    601.095    636.617    595.289    595.289
 26.670    647.773    646.498      1.274    594.961    600.884    640.573    594.961    594.961
 26.770    613.000    651.362    -38.362    594.636    600.748    645.247    594.636    594.636
 26.870    702.000    657.197     44.803    594.315    600.695    650.814    594.315    594.315
 26.970    641.254    664.240    -22.985    593.997    600.733    657.499    593.997    593.997
 27.070    699.759    672.811     26.949    593.683    600.879    665.608    593.683    593.683
 27.170    685.000    683.349      1.651    593.371    601.156    675.558    593.371    593.371
 27.270    747.000    696.474     50.526    593.063    601.595    687.933    593.063    593.063
 27.370    726.000    713.071     12.929    592.758    602.247    703.572    592.758    592.758
 27.470    760.000    734.483     25.517    592.456    603.186    723.740    592.456    592.456
 27.570    763.000    763.000     -0.000    592.158    604.540    750.601    592.158    592.158
 27.670    791.000    803.718    -12.718    591.862    606.593    788.962    591.862    591.862
 27.770    879.715    871.389      8.326    591.570    610.161    852.756    591.570    591.570
 27.870    946.000   1010.293    -64.293    591.281    617.688    983.799    591.281    591.281
 27.970   1265.000   1331.203    -66.203    590.995    635.285   1286.724    590.995    590.995
 28.070   2121.848   2033.288     88.560    590.712    673.936   1949.689    590.712    590.712
 28.170   3259.305   3317.475    -58.170    590.433    744.733   3162.561    590.433    590.433
 28.270   5034.000   5125.001    -91.001    590.156    844.484   4869.896    590.156    590.156
 28.370   6831.000   6853.731    -22.731    589.883    940.118   6502.805    589.883    589.883
 28.470   7416.209   7492.362    -76.153    589.612    976.160   7105.453    589.612    589.612
 28.570   6655.468   6583.117     72.351    589.345    927.987   6244.406    589.345    589.345
 28.670   5075.000   4935.011    139.989    589.081    841.441   4682.685    589.081    589.081
 28.770   3683.000   3627.947     55.053    588.820    777.957   3438.807    588.820    588.820
 28.870   3151.216   3169.783    -18.567    588.562    767.098   2991.181    588.562    588.562
 28.970   3527.000   3461.698     65.302    588.307    802.388   3247.559    588.307    588.307
 29.070   4071.000   4016.426     54.573    588.055    850.985   3753.563    588.055    588.055
 29.170   4306.181   4213.919     92.262    587.806    868.575   3933.395    587.806    587.806
 29.270   3776.000   3736.263     39.737    587.560    832.316   3491.833    587.560    587.560
 29.370   2848.000   2862.611    -14.611    587.317    764.715   2685.500    587.317    587.317
 29.470   1863.000   2019.477   -156.477    587.077    699.296   1907.454    587.077    587.077
 29.570   1376.977   1418.917    -41.939    586.840    652.700   1353.167    586.840    586.840
 29.670   1083.000   1071.104     11.896    586.606    625.767   1031.998    586.606    586.606
 29.770    943.000    894.982     48.018    586.374    612.199    869.184    586.374    586.374
 29.870    876.000    808.222     67.778    586.146    605.593    788.788    586.146    586.146
 29.970    811.000    760.969     50.031    585.921    602.076    744.821    585.921    585.921
 30.070    795.000    730.836     64.164    585.698    599.922    716.616    585.698    585.698
 30.170    728.000    709.311     18.689    585.479    598.492    696.301    585.479    585.479
 30.270    718.000    693.154     24.846    585.262    597.572    680.845    585.262    585.262
 30.370    698.000    680.966     17.034    585.048    597.139    668.875    585.048    585.048
 30.470    624.552    672.256    -47.704    584.837    597.351    659.739    584.837    584.837
 30.570    621.000    667.429    -46.429    584.629    598.692    653.360    584.629    584.629
 30.670    656.000    667.999    -11.999    584.424    602.128    650.283    584.424    584.424
 30.770    724.447    676.385     48.062    584.221    609.033    651.553    584.221    584.221
 30.870    681.000    694.524    -13.524    584.022    620.497    658.013    584.022    584.022
 30.970    755.000    721.124     33.876    583.825    635.945    668.951    583.825    583.825
 31.070    790.000    748.411     41.589    583.631    651.479    680.493    583.631    583.631
 31.170    792.000    761.581     30.419    583.439    659.611    685.335    583.439    583.439
 31.270    808.000    749.675     58.325    583.251    654.798    678.064    583.251    583.251
 31.370    727.000    719.114      7.886    583.065    640.337    661.796    583.065    583.065
 31.470    722.000    684.710     37.290    582.882    623.794    643.769    582.882    582.882
 31.570    614.188    656.472    -42.284    582.701    610.286    628.871    582.701    582.701
 31.670    635.065    637.332     -2.267    582.524    601.323    618.523    582.524    582.524
 31.770    670.000    625.874     44.126    582.349    596.198    612.018    582.349    582.349
 31.870    635.000    619.351     15.649    582.176    593.527    607.997    582.176    582.176
 31.970    629.000    615.491     13.509    582.007    592.161    605.334    582.007    582.007
 32.070    572.342    612.968    -40.627    581.840    591.436    603.369    581.840    581.840
 32.170    620.000    611.160      8.840    581.675    591.044    601.789    581.675    581.675
 32.270    632.645    609.810     22.835    581.514    590.862    600.459    581.514    581.514
 32.370    620.000    608.810     11.190    581.355    590.845    599.318    581.355    581.355
 32.470    641.000    608.115     32.885    581.198    590.977    598.335    581.198    581.198
 32.570    653.332    607.706     45.626    581.044    591.258    597.490    581.044    581.044
 32.670    610.000    607.584      2.416    580.893    591.700    596.774    580.893    580.893
 32.770    605.000    607.765     -2.765    580.744    592.325    596.183    580.744    580.744
 32.870    622.000    608.285     13.715    580.598    593.165    595.717    580.598    580.598
 32.970    591.674    609.202    -17.528    580.454    594.270    595.384    580.454    580.454
 33.070    583.352    610.602    -27.250    580.313    595.713    595.200    580.313    580.313
 33.170    629.000    612.621     16.379    580.175    597.600    595.194    580.175    580.175
 33.270    673.000    615.481     57.519    580.039    600.105    595.412    580.039    580.039
 33.370    640.000    619.610     20.390    579.905    603.560    595.953    579.905    579.905
 33.470    684.000    625.939     58.061    579.774    608.680    597.028    579.774    579.774
 33.570    684.570    636.558     48.012    579.645    617.073    599.123    579.645    579.645
 33.670    650.000    655.783     -5.783    579.519    632.054    603.238    579.519    579.519
 33.770    763.000    691.109     71.891    579.395    659.376    611.113    579.395    579.395
 33.870    743.181    752.544     -9.363    579.274    706.722    625.070    579.274    579.274
 33.970    800.379    848.420    -48.041    579.155    780.492    647.044    579.155    579.155
 34.070    978.079    977.051      1.028    579.039    879.394    676.644    579.039    579.039
 34.170   1155.000   1115.935     39.065    578.925    986.159    708.642    578.925    578.925
 34.270   1205.000   1216.163    -11.163    578.813   1063.249    731.677    578.813    578.813
 34.370   1202.000   1225.052    -23.052    578.703   1070.221    733.507    578.703    578.703
 34.470   1131.273   1136.474     -5.201    578.596   1002.359    712.705    578.596    578.596
 34.570    900.000    998.891    -98.891    578.492    896.859    680.527    578.492    578.492
 34.670    824.000    865.301    -41.301    578.389    794.411    649.286    578.389    578.389
 34.770    731.589    762.656    -31.067    578.289    715.706    625.245    578.289    578.289
 34.870    684.000    695.267    -11.267    578.192    664.057    609.405    578.192    578.192
 34.970    711.000    655.716     55.284    578.096    633.770    600.043    578.096    578.096
 35.070    661.856    633.799     28.057    578.003    617.013    594.789    578.003    578.003
 35.170    656.000    621.454     34.546    577.912    607.597    591.769    577.912    577.912
 35.270    642.026    613.879     28.147    577.823    601.835    589.866    577.823    577.823
 35.370    661.000    608.702     52.298    577.737    597.906    588.532    577.737    577.737
 35.470    620.253    604.862     15.390    577.653    594.996    587.518    577.653    577.653
 35.570    621.000    601.877     19.123    577.571    592.733    586.714    577.571    577.571
 35.670    573.515    599.496    -25.982    577.491    590.925    586.061    577.491    577.491
 35.770    599.000    597.568      1.432    577.413    589.456    585.525    577.413    577.413
 35.870    610.000    595.991     14.009    577.338    588.245    585.083    577.338    577.338
 35.970    634.000    594.691     39.309    577.265    587.236    584.719    577.265    577.265
 36.070    552.757    593.617    -40.860    577.194    586.388    584.422    577.194    577.194
 36.170    611.000    592.730     18.270    577.125    585.670    584.184    577.125    577.125
 36.270    600.000    592.002      7.998    577.058    585.058    584.002    577.058    577.058
 36.370    583.000    591.415     -8.415    576.993    584.535    583.873    576.993    576.993
 36.470    632.000    590.955     41.045    576.930    584.088    583.797    576.930    576.930
 36.570    611.000    590.615     20.385    576.870    583.708    583.777    576.870    576.870
 36.670    599.000    590.393      8.607    576.811    583.386    583.818    576.811    576.811
 36.770    586.106    590.292     -4.186    576.755    583.119    583.928    576.755    576.755
 36.870    538.000    590.323    -52.323    576.700    582.906    584.117    576.700    576.700
 36.970    604.450    590.506     13.944    576.648    582.749    584.404    576.648    576.648
 37.070    577.705    590.876    -13.171    576.597    582.661    584.812    576.597    576.597
 37.170    634.000    591.500     42.500    576.549    582.670    585.379    576.549    576.549
 37.270    547.872    592.497    -44.625    576.503    582.831    586.169    576.503    576.503
 37.370    635.093    594.095     40.998    576.458    583.244    587.309    576.458    576.458
 37.470    647.255    596.704     50.551    576.416    584.049    589.070    576.416    576.416
 37.570    569.321    601.042    -31.721    576.375    585.408    592.008    576.375    576.375
 37.670    588.000    608.255    -20.255    576.337    587.427    597.163    576.337    576.337
 37.770    644.000    619.916     24.084    576.300    590.054    606.160    576.300    576.300
 37.870    597.000    637.639    -40.639    576.265    592.931    620.970    576.265    576.265
 37.970    655.000    662.129     -7.129    576.233    595.297    643.058    576.233    576.233
 38.070    654.000    691.925    -37.925    576.202    596.219    671.900    576.202    576.202
 38.170    674.000    722.313    -48.313    576.172    595.315    703.164    576.172    576.172
 38.270    768.000    744.515     23.485    576.145    593.104    727.552    576.145    576.145
 38.370    745.000    748.068     -3.068    576.120    590.369    733.818    576.120    576.120
 38.470    691.000    729.744    -38.744    576.096    587.670    718.173    576.096    576.096
 38.570    755.000    698.190     56.810    576.075    585.369    688.900    576.075    576.075
 38.670    635.000    665.120    -30.120    576.055    583.631    657.548    576.055    576.055
 38.770    631.000    637.651     -6.651    576.037    582.435    631.256    576.037    576.037
 38.870    659.712    618.019     41.693    576.020    581.663    612.379    576.020    576.020
 38.970    605.000    605.472     -0.472    576.006    581.181    600.297    576.006    576.006
 39.070    580.778    598.030    -17.252    575.993    580.880    593.143    575.993    575.993
 39.170    575.000    593.722    -18.722    575.982    580.687    589.017    575.982    575.982
 39.270    651.000    591.133     59.867    575.972    580.556    586.550    575.972    575.972
 39.370    611.000    589.444     21.556    575.965    580.466    584.943    575.965    575.965
 39.470    610.000    588.241     21.759    575.959    580.403    583.797    575.959    575.959
 39.570    593.963    587.327      6.636    575.954    580.359    582.923    575.954    575.954
 39.670    629.608    586.609     42.999    575.952    580.331    582.230    575.952    575.952
 39.770    632.935    586.038     46.897    575.951    580.321    581.667    575.951    575.951
 39.870    605.000    585.578     19.422    575.952    580.326    581.204    575.952    575.952
 39.970    579.854    585.207     -5.353    575.954    580.343    580.818    575.954    575.954
 40.070    547.208    584.907    -37.700    575.958    580.373    580.493    575.958    575.958
 40.170    618.000    584.668     33.332    575.964    580.414    580.218    575.964    575.964
 40.270    586.000    584.479      1.521    575.971    580.467    579.983    575.971    575.971
 40.370    582.000    584.335     -2.335    575.979    580.533    579.782    575.979    575.979
 40.470    573.000    584.229    -11.229    575.990    580.611    579.609    575.990    575.990
 40.570    554.000    584.160    -30.160    576.002    580.703    579.459    576.002    576.002
 40.670    543.446    584.124    -40.678    576.015    580.809    579.330    576.015    576.015
 40.770    610.967    584.121     26.847    576.030    580.932    579.219    576.030    576.030
 40.870    556.000    584.149    -28.149    576.046    581.073    579.124    576.046    576.046
 40.970    609.446    584.211     25.235    576.064    581.234    579.042    576.064    576.064
 41.070    583.000    584.308     -1.308    576.084    581.420    578.972    576.084    576.084
 41.170    558.000    584.442    -26.442    576.105    581.633    578.914    576.105    576.105
 41.270    619.000    584.618     34.382    576.127    581.879    578.866    576.127    576.127
 41.370    559.000    584.842    -25.842    576.151    582.166    578.828    576.151    576.151
 41.470    579.000    585.122     -6.122    576.176    582.500    578.799    576.176    576.176
 41.570    534.000    585.470    -51.470    576.203    582.895    578.779    576.203    576.203
 41.670    561.000    585.903    -24.903    576.231    583.367    578.769    576.231    576.231
 41.770    573.547    586.445    -12.898    576.261    583.939    578.768    576.261    576.261
 41.870    592.000    587.136      4.864    576.291    584.652    578.778    576.291    576.291
 41.970    611.582    588.054     23.528    576.324    585.580    578.801    576.324    576.324
 42.070    544.701    589.352    -44.651    576.357    586.869    578.843    576.357    576.357
 42.170    618.000    591.332     26.668    576.392    588.813    578.915    576.392    576.392
 42.270    572.000    594.552    -22.552    576.429    591.946    579.039    576.429    576.429
 42.370    580.000    599.902    -19.902    576.466    597.129    579.247    576.466    576.466
 42.470    581.000    608.567    -27.567    576.505    605.498    579.585    576.505    576.505
 42.570    645.659    621.717     23.942    576.545    618.182    580.096    576.545    576.545
 42.670    592.223    639.881    -47.659    576.587    635.691    580.802    576.587    576.587
 42.770    613.763    662.073    -48.310    576.630    657.074    581.664    576.630    576.630
 42.870    631.000    684.830    -53.830    576.674    679.000    582.551    576.674    576.674
 42.970    659.393    701.827    -42.434    576.719    695.382    583.221    576.719    576.719
 43.070    722.358    706.075     16.283    576.765    699.493    583.410    576.765    576.765
 43.170    696.000    695.397      0.603    576.813    689.236    583.033    576.813    576.813
 43.270    657.788    674.839    -17.050    576.862    669.467    582.283    576.862    576.862
 43.370    650.330    651.790     -1.460    576.912    647.299    581.441    576.912    576.912
 43.470    682.947    631.347     51.600    576.963    627.637    580.701    576.963    576.963
 43.570    605.235    615.686    -10.451    577.015    612.575    580.144    577.015    577.015
 43.670    616.000    604.946     11.054    577.069    602.249    579.778    577.069    577.069
 43.770    594.000    598.188     -4.188    577.124    595.754    579.566    577.124    577.124
 43.870    577.000    594.165    -17.165    577.180    591.890    579.460    577.180    577.180
 43.970    604.000    591.805     12.195    577.236    589.626    579.419    577.236    577.236
 44.070    632.018    590.378     41.640    577.294    588.258    579.417    577.294    577.294
 44.170    580.000    589.461     -9.461    577.354    587.380    579.436    577.354    577.354
 44.270    556.000    588.834    -32.834    577.414    586.780    579.469    577.414    577.414
 44.370    593.000    588.389      4.611    577.475    586.355    579.511    577.475    577.475
 44.470    587.000    588.071     -1.071    577.537    586.049    579.560    577.537    577.537
 44.570    548.000    587.849    -39.849    577.600    585.834    579.616    577.600    577.600
 44.670    571.336    587.701    -16.365    577.665    585.690    579.676    577.665    577.665
 44.770    615.000    587.615     27.385    577.730    585.604    579.742    577.730    577.730
 44.870    610.000    587.580     22.420    577.796    585.565    579.812    577.796    577.796
 44.970    619.623    587.588     32.035    577.864    585.566    579.886    577.864    577.864
 45.070    596.183    587.634      8.549    577.932    585.602    579.964    577.932    577.932
 45.170    612.000    587.714     24.286    578.001    585.669    580.047    578.001    578.001
 45.270    547.491    587.825    -40.334    578.071    585.763    580.133    578.071    578.071
 45.370    562.308    587.964    -25.656    578.142    585.883    580.223    578.142    578.142
 45.470    559.156    588.130    -28.974    578.214    586.026    580.318    578.214    578.214
 45.570    619.000    588.322     30.678    578.287    586.193    580.416    578.287    578.287
 45.670    605.753    588.540     17.213    578.361    586.382    580.519    578.361    578.361
 45.770    601.000    588.784     12.216    578.435    586.593    580.626    578.435    578.435
 45.870    559.517    589.054    -29.537    578.511    586.826    580.739    578.511    578.511
 45.970    626.641    589.353     37.288    578.587    587.084    580.856    578.587    578.587
 46.070    571.176    589.681    -18.505    578.664    587.366    580.978    578.664    578.664
 46.170    551.000    590.040    -39.040    578.742    587.675    581.107    578.742    578.742
 46.270    608.000    590.435     17.565    578.821    588.014    581.241    578.821    578.821
 46.370    562.000    590.867    -28.867    578.901    588.385    581.383    578.901    578.901
 46.470    583.989    591.344     -7.355    578.981    588.792    581.532    578.981    578.981
 46.570    607.990    591.870     16.121    579.062    589.241    581.690    579.062    579.062
 46.670    613.000    592.453     20.547    579.144    589.739    581.857    579.144    579.144
 46.770    625.000    593.104     31.896    579.227    590.293    582.035    579.227    579.227
 46.870    577.000    593.836    -16.836    579.310    590.918    582.227    579.310    579.310
 46.970    588.000    594.673     -6.673    579.394    591.632    582.434    579.394    579.394
 47.070    666.000    595.650     70.350    579.479    592.466    582.660    579.479    579.479
 47.170    596.907    596.833      0.075    579.565    593.481    582.914    579.565    579.565
 47.270    600.000    598.347      1.653    579.651    594.786    583.209    579.651    579.651
 47.370    589.000    600.419    -11.419    579.738    596.585    583.568    579.738    579.738
 47.470    573.000    603.425    -30.425    579.825    599.212    584.033    579.825    579.825
 47.570    628.000    607.913     20.087    579.914    603.157    584.660    579.914    579.914
 47.670    640.000    614.549     25.451    580.002    609.018    585.520    580.002    580.002
 47.770    570.000    623.945    -53.945    580.092    617.339    586.679    580.092    580.092
 47.870    628.000    636.349     -8.349    580.182    628.341    588.162    580.182    580.182
 47.970    644.000    651.255     -7.255    580.273    641.569    589.921    580.273    580.273
 48.070    699.870    666.982     32.889    580.364    655.516    591.782    580.364    580.364
 48.170    664.000    680.377    -16.377    580.456    667.357    593.420    580.456    580.456
 48.270    726.000    687.446     38.554    580.548    673.511    594.425    580.548    580.548
 48.370    706.319    685.836     20.482    580.641    671.867    594.556    580.641    580.641
 48.470    692.000    676.975     15.025    580.734    663.697    593.966    580.734    580.734
 48.570    662.112    664.697     -2.585    580.828    652.429    593.059    580.828    580.828
 48.670    673.000    652.571     20.429    580.923    641.252    592.215    580.923    580.923
 48.770    628.000    642.788    -14.788    581.017    632.117    591.670    581.017    581.017
 48.870    640.000    636.266      3.734    581.113    625.833    591.532    581.113    581.113
 48.970    643.000    633.056      9.944    581.209    622.431    591.824    581.209    581.209
 49.070    626.000    632.766     -6.766    581.305    621.537    592.526    581.305    581.305
 49.170    625.246    634.911     -9.665    581.402    622.686    593.620    581.402    581.402
 49.270    596.000    639.187    -43.187    581.499    625.557    595.123    581.499    581.499
 49.370    625.000    645.694    -20.694    581.597    630.149    597.136    581.597    581.597
 49.470    581.000    655.301    -74.301    581.695    637.042    599.945    581.695    581.695
 49.570    671.675    670.475      1.201    581.793    647.993    604.262    581.793    581.793
 49.670    730.513    696.956     33.557    581.892    667.131    611.695    581.892    581.892
 49.770    751.000    746.327      4.673    581.991    702.837    625.441    581.991    581.991
 49.870    774.000    838.544    -64.544    582.091    769.565    650.998    582.091    582.091
 49.970   1056.000   1002.045     53.955    582.191    887.652    696.470    582.191    582.191
 50.070   1237.000   1265.853    -28.853    582.291   1078.145    769.833    582.291    582.291
 50.170   1614.000   1644.262    -30.262    582.392   1351.388    875.056    582.392    582.392
 50.270   2075.000   2116.014    -41.014    582.492   1692.055   1006.228    582.492    582.492
 50.370   2483.000   2608.426   -125.426    582.594   2047.704   1143.132    582.594    582.594
 50.470   2869.000   2997.960   -128.960    582.695   2329.176   1251.395    582.695    582.695
 50.570   3095.869   3146.736    -50.867    582.797   2436.946   1292.634    582.797    582.797
 50.670   3084.385   2990.572     93.812    582.899   2324.683   1248.940    582.899    582.899
 50.770   2540.997   2597.840    -56.843    583.001   2041.783   1139.258    583.001    583.001
 50.870   2153.000   2107.849     45.151    583.103   1688.891   1002.257    583.103    583.103
 50.970   1669.000   1643.264     25.736    583.206   1354.654    871.978    583.206    583.206
 51.070   1284.672   1275.141      9.531    583.309   1090.441    768.126    583.309    583.309
 51.170   1032.000   1023.193      8.807    583.412    910.491    696.193    583.412    583.412
 51.270    928.000    871.887     56.113    583.515    803.478    651.978    583.515    583.515
 51.370    824.000    790.998     33.002    583.619    747.298    627.359    583.619    583.619
 51.470    784.000    751.151     32.849    583.722    720.247    614.661    583.722    583.722
 51.570    770.256    730.903     39.353    583.826    706.208    608.552    583.826    583.826
 51.670    657.000    717.798    -60.798    583.930    695.686    606.070    583.930    583.930
 51.770    721.000    706.661     14.339    584.034    684.872    605.846    584.034    584.034
 51.870    705.474    696.647      8.827    584.138    673.528    607.273    584.138    584.138
 51.970    684.000    688.364     -4.364    584.243    662.700    609.916    584.243    584.243
 52.070    727.000    682.186     44.814    584.347    653.374    613.162    584.347    584.347
 52.170    707.000    677.731     29.269    584.451    646.100    616.080    584.451    584.451
 52.270    703.000    674.014     28.986    584.556    641.021    617.544    584.556    584.556
 52.370    693.752    670.093     23.659    584.661    638.008    616.739    584.661    584.661
 52.470    650.694    665.786    -15.092    584.765    636.816    613.730    584.765    584.765
 52.570    603.000    661.738    -58.738    584.870    637.226    609.378    584.870    584.870
 52.670    662.000    658.936      3.064    584.975    639.173    604.735    584.975    584.975
 52.770    697.000    658.389     38.611    585.079    642.880    600.587    585.079    585.079
 52.870    669.000    661.183      7.817    585.184    649.014    597.352    585.184    585.184
 52.970    689.000    668.745     20.255    585.289    658.899    595.134    585.289    585.289
 53.070    649.918    683.167    -33.249    585.393    674.728    593.831    585.393    585.393
 53.170    739.000    707.395     31.605    585.498    699.654    593.237    585.498    585.498
 53.270    775.963    745.362     30.602    585.603    737.561    593.399    585.603    585.603
 53.370    802.000    800.692      1.308    585.707    792.238    594.155    585.707    585.707
 53.470    920.233    875.647     44.586    585.812    866.007    595.444    585.812    585.812
 53.570    910.695    969.194    -58.499    585.916    957.914    597.188    585.916    585.916
 53.670   1056.000   1074.979    -18.979    586.020   1061.762    599.229    586.020    586.020
 53.770   1151.000   1179.387    -28.387    586.124   1164.231    601.274    586.124    586.124
 53.870   1303.000   1260.945     42.055    586.229   1244.293    602.879    586.229    586.229
 53.970   1266.000   1295.649    -29.649    586.332   1278.440    603.549    586.332    586.332
 54.070   1300.176   1271.122     29.054    586.436   1254.546    603.030    586.436    586.436
 54.170   1135.000   1196.717    -61.717    586.540   1181.772    601.508    586.540    586.540
 54.270   1081.000   1095.513    -14.513    586.644   1082.729    599.453    586.644    586.644
 54.370    960.878    989.829    -28.951    586.747    979.283    597.317    586.747    586.747
 54.470    868.000    894.578    -26.578    586.850    886.046    595.403    586.850    586.850
 54.570    861.566    817.197     44.369    586.953    810.305    593.861    586.953    586.953
 54.670    774.642    759.440     15.203    587.056    753.780    592.727    587.056    587.056
 54.770    659.000    719.377    -60.377    587.158    714.584    591.960    587.158    587.158
 54.870    719.706    693.298     26.408    587.261    689.079    591.484    587.261    587.261
 54.970    629.000    677.208    -48.208    587.363    673.356    591.218    587.363    587.363
 55.070    655.000    667.739    -12.739    587.465    664.114    591.092    587.465    587.465
 55.170    658.000    662.475     -4.475    587.566    658.986    591.057    587.566    587.566
 55.270    668.163    659.887      8.276    587.668    656.475    591.081    587.668    587.668
 55.370    649.000    659.109    -10.109    587.769    655.732    591.146    587.769    587.769
 55.470    705.000    659.705     45.295    587.869    656.331    591.244    587.869    587.869
 55.570    645.577    661.498    -15.921    587.970    658.096    591.372    587.970    587.970
 55.670    673.791    664.471      9.321    588.070    661.013    591.527    588.070    588.070
 55.770    678.329    668.740      9.589    588.170    665.195    591.714    588.170    588.170
 55.870    691.644    674.593     17.051    588.269    670.923    591.939    588.269    588.269
 55.970    688.283    682.614      5.668    588.368    678.768    592.213    588.368    588.368
 56.070    685.000    693.957     -8.957    588.467    689.858    592.563    588.467    588.467
 56.170    758.000    710.810     47.190    588.566    706.335    593.036    588.566    588.566
 56.270    740.000    737.089      2.911    588.664    732.028    593.717    588.664    588.664
 56.370    783.097    779.212      3.886    588.761    773.216    594.744    588.761    588.761
 56.470    872.057    846.598     25.459    588.859    839.113    596.321    588.859    588.859
 56.570    918.000    951.241    -33.241    588.955    941.453    598.709    588.955    588.955
 56.670   1061.936   1105.638    -43.702    589.052   1092.463    602.179    589.052    589.052
 56.770   1295.000   1318.744    -23.744    589.148   1300.905    606.924    589.148    589.148
 56.870   1519.000   1590.405    -71.405    589.243   1566.635    612.941    589.243    589.243
 56.970   1860.000   1905.504    -45.504    589.339   1874.867    619.907    589.339    589.339
 57.070   2220.723   2229.187     -8.464    589.433   2191.506    627.066    589.433    589.433
 57.170   2584.000   2505.651     78.349    589.527   2461.961    633.215    589.527    589.527
 57.270   2805.000   2668.002    136.998    589.621   2620.779    636.909    589.621    589.621
 57.370   2785.000   2667.186    117.814    589.714   2619.949    637.089    589.714    589.714
 57.470   2530.247   2503.872     26.375    589.807   2460.095    633.771    589.807    589.807
 57.570   2406.000   2227.934    178.066    589.899   2190.000    628.039    589.899    589.899
 57.670   1905.000   1906.278     -1.278    589.991   1875.119    621.346    589.991    589.991
 57.770   1627.480   1594.378     33.102    590.082   1569.718    614.909    590.082    590.082
 57.870   1268.000   1326.789    -58.789    590.173   1307.588    609.505    590.173    590.173
 57.970   1053.000   1118.545    -65.545    590.263   1103.384    605.518    590.263    590.263
 58.070    944.234    970.086    -25.853    590.352    957.424    603.078    590.352    590.352
 58.170    846.000    873.305    -27.305    590.441    861.564    602.220    590.441    590.441
 58.270    770.000    817.283    -47.283    590.530    804.777    603.054    590.530    590.530
 58.370    824.000    792.430     31.570    590.618    777.196    605.856    590.618    590.618
 58.470    812.000    792.444     19.556    590.705    772.086    611.053    590.705    590.705
 58.570    808.000    814.280     -6.280    590.791    785.976    619.074    590.791    590.791
 58.670    812.431    856.803    -44.372    590.877    817.585    630.062    590.877    590.877
 58.770    865.000    918.877    -53.877    590.963    866.238    643.559    590.963    590.963
 58.870    995.000    997.488     -2.488    591.047    930.232    658.254    591.047    591.047
 58.970    991.000   1086.373    -95.373    591.131   1005.515    671.941    591.131    591.131
 59.070   1181.000   1175.863      5.137    591.215   1085.190    681.849    591.215    591.215
 59.170   1145.000   1255.055   -110.055    591.297   1160.738    685.594    591.297    591.297
 59.270   1250.000   1315.569    -65.569    591.379   1224.494    682.455    591.379    591.379
 59.370   1345.211   1352.848     -7.637    591.461   1270.574    673.757    591.461    591.461
 59.470   1423.000   1364.110     58.890    591.542   1293.824    661.870    591.542    591.542
 59.570   1360.000   1348.651     11.349    591.621   1291.265    649.061    591.621    591.621
 59.670   1338.000   1311.995     26.005    591.701   1266.710    637.038    591.701    591.701
 59.770   1200.809   1267.066    -66.257    591.779   1232.005    626.874    591.779    591.779
 59.870   1229.168   1229.148      0.020    591.857   1202.017    618.991    591.857    591.857
 59.970   1201.129   1210.312     -9.183    591.934   1188.941    613.266    591.934    591.934
 60.070   1208.000   1217.622     -9.622    592.010   1200.273    609.271    592.010    592.010
 60.170   1339.000   1254.067     84.933    592.086   1239.496    606.519    592.086    592.086
 60.270   1299.469   1318.966    -19.497    592.161   1306.317    604.622    592.161    592.161
 60.370   1468.000   1405.954     62.046    592.235   1394.632    603.324    592.235    592.235
 60.470   1535.000   1500.518     34.482    592.308   1490.099    602.464    592.308    592.308
 60.570   1635.166   1580.008     55.158    592.380   1570.176    601.938    592.380    592.380
 60.670   1619.000   1618.405      0.595    592.452   1608.919    601.680    592.452    592.452
 60.770   1563.000   1597.066    -34.066    592.523   1587.721    601.648    592.523    592.523
 60.870   1534.000   1515.463     18.537    592.593   1506.068    601.817    592.593    592.593
 60.970   1383.000   1391.024     -8.024    592.662   1381.384    602.179    592.662    592.662
 61.070   1235.000   1248.503    -13.503    592.730   1238.409    602.741    592.730    592.730
 61.170   1133.000   1109.901     23.099    592.798   1099.105    603.539    592.798    592.798
 61.270    958.380    990.286    -31.906    592.864    978.458    604.657    592.864    592.864
 61.370    847.000    897.573    -50.573    592.930    884.211    606.265    592.930    592.930
 61.470    827.000    834.059     -7.059    592.995    818.351    608.677    592.995    592.995
 61.570    741.000    798.805    -57.805    593.059    779.418    612.415    593.059    593.059
 61.670    757.917    790.133    -32.216    593.122    764.933    618.280    593.122    593.122
 61.770    830.000    807.474     22.526    593.184    773.238    627.361    593.184    593.184
 61.870    879.488    852.023     27.465    593.245    804.236    640.951    593.245    593.245
 61.970    889.000    926.026    -37.026    593.306    858.922    660.299    593.306    593.306
 62.070   1025.000   1030.900     -5.900    593.365    937.921    686.199    593.365    593.365
 62.170   1139.041   1164.728    -25.687    593.424   1039.492    718.476    593.424    593.424
 62.270   1296.000   1319.816    -23.816    593.481   1157.591    755.488    593.481    593.481
 62.370   1451.000   1480.951    -29.951    593.538   1280.476    793.771    593.538    593.538
 62.470   1610.317   1624.998    -14.681    593.594   1390.362    827.980    593.594    593.594
 62.570   1715.000   1723.544     -8.544    593.648   1465.438    851.521    593.648    593.648
 62.670   1758.000   1751.613      6.387    593.702   1486.528    858.589    593.702    593.702
 62.770   1759.000   1700.781     58.219    593.755   1447.150    847.233    593.755    593.755
 62.870   1541.679   1584.913    -43.234    593.807   1357.921    820.689    593.807    593.807
 62.970   1410.000   1431.298    -21.298    593.857   1239.758    785.324    593.857    593.857
 63.070   1245.515   1267.522    -22.007    593.907   1113.811    747.572    593.907    593.907
 63.170   1076.000   1114.463    -38.463    593.956    996.087    712.304    593.956    593.956
 63.270    949.000    984.762    -35.762    594.004    896.276    682.473    594.004    594.004
 63.370    876.000    883.550     -7.550    594.050    818.309    659.279    594.050    594.050
 63.470    811.000    810.247      0.753    594.096    761.739    642.594    594.096    594.096
 63.570    775.015    760.787     14.229    594.141    723.444    631.472    594.141    594.141
 63.670    785.000    729.791     55.209    594.184    699.300    624.663    594.184    594.184
 63.770    700.937    712.224    -11.287    594.227    685.441    620.996    594.227    594.227
 63.870    710.000    704.344      5.656    594.268    678.988    619.608    594.268    594.268
 63.970    739.000    704.062     34.938    594.309    678.305    620.046    594.309    594.309
 64.070    713.000    710.932      2.068    594.348    682.960    622.296    594.348    594.348
 64.170    757.000    725.958     31.042    594.386    693.523    626.790    594.386    594.386
 64.270    772.625    751.289     21.336    594.423    711.268    634.403    594.423    594.423
 64.370    772.765    789.777    -17.012    594.459    737.778    646.402    594.459    594.459
 64.470    888.905    844.316     44.589    594.494    774.422    664.311    594.494    594.494
 64.570    935.894    916.931     18.963    594.528    821.734    689.623    594.528    594.528
 64.670   1040.188   1007.661     32.528    594.561    878.737    723.354    594.561    594.561
 64.770   1118.000   1113.369      4.631    594.592    942.316    765.487    594.592    594.592
 64.870   1296.000   1226.712     69.288    594.623   1006.741    814.409    594.623    594.623
 64.970   1381.000   1335.752     45.248    594.652   1063.727    866.475    594.652    594.652
 65.070   1475.000   1425.171     49.829    594.680   1103.822    915.822    594.680    594.680
 65.170   1597.000   1479.789    117.211    594.707   1119.545    954.755    594.707    594.707
 65.270   1561.173   1489.404     71.769    594.733   1108.596    975.370    594.733    594.733
 65.370   1514.000   1452.630     61.370    594.757   1074.599    972.654    594.757    594.757
 65.470   1407.000   1377.679     29.321    594.781   1025.148    947.217    594.781    594.781
 65.570   1350.000   1279.152     70.848    594.803    968.937    904.959    594.803    594.803
 65.670   1228.633   1172.612     56.021    594.824    913.395    854.011    594.824    594.824
 65.770    981.000   1070.409    -89.409    594.844    863.439    801.806    594.844    594.844
 65.870    944.000    980.167    -36.167    594.863    821.296    753.741    594.863    594.863
 65.970    839.000    905.158    -66.158    594.880    787.070    712.983    594.880    594.880
 66.070    829.000    845.537    -16.537    594.896    759.715    680.738    594.896    594.896
 66.170    772.048    799.746    -27.698    594.911    737.947    656.729    594.911    594.911
 66.270    770.000    765.533      4.467    594.925    720.710    639.764    594.925    594.925
 66.370    715.000    740.535    -25.535    594.938    707.214    628.270    594.938    594.938
 66.470    711.000    722.604    -11.604    594.949    696.862    620.699    594.949    594.949
 66.570    681.000    710.004    -29.004    594.959    689.206    615.761    594.959    594.959
 66.670    701.267    701.476     -0.209    594.968    683.944    612.502    594.968    594.968
 66.770    640.000    696.202    -56.202    594.975    680.899    610.279    594.975    594.975
 66.870    694.000    693.718      0.282    594.982    680.004    608.696    594.982    594.982
 66.970    700.137    693.854      6.282    594.987    681.319    607.521    594.987    594.987
 67.070    667.000    696.750    -29.750    594.991    685.108    606.632    594.991    594.991
 67.170    686.000    702.968    -16.968    594.993    691.988    605.971    594.993    594.993
 67.270    687.558    713.692    -26.133    594.994    703.156    605.526    594.994    594.994
 67.370    749.388    730.991     18.396    594.994    720.659    605.322    594.994    594.994
 67.470    773.000    758.107     14.893    594.993    747.677    605.416    594.993    594.993
 67.570    783.148    799.637    -16.489    594.990    788.714    605.901    594.990    594.990
 67.670    830.000    861.465    -31.465    594.986    849.529    606.905    594.986    594.986
 67.770    979.869    950.247     29.622    594.981    936.634    608.572    594.981    594.981
 67.870   1003.000   1072.305    -69.305    594.974   1056.212    611.041    594.974    594.974
 67.970   1278.425   1231.924     46.501    594.966   1212.458    614.404    594.966    594.966
 68.070   1411.000   1429.282    -18.282    594.957   1405.553    618.663    594.957    594.957
 68.170   1708.155   1658.364     49.790    594.946   1629.629    623.675    594.946    594.946
 68.270   1899.292   1905.265     -5.973    594.934   1871.101    629.118    594.934    594.934
 68.370   2239.874   2147.186     92.688    594.921   2107.703    634.466    594.921    594.921
 68.470   2352.000   2352.977     -0.977    594.906   2308.997    639.002    594.906    594.906
 68.570   2501.000   2487.475     13.525    594.890   2440.626    641.917    594.890    594.890
 68.670   2618.081   2522.181     95.900    594.873   2474.734    642.556    594.873    594.873
 68.770   2430.647   2448.745    -18.098    594.854   2403.149    640.725    594.854    594.854
 68.870   2324.000   2283.903     40.097    594.834   2242.220    636.807    594.834    594.834
 68.970   2115.000   2060.349     54.651    594.812   2023.890    631.551    594.812    594.812
 69.070   1869.631   1812.887     56.744    594.789   1782.175    625.754    594.789    594.789
 69.170   1598.000   1569.931     28.069    594.765   1544.843    620.067    594.765    594.765
 69.270   1341.877   1350.967     -9.090    594.740   1330.942    614.938    594.740    594.740
 69.370   1216.000   1166.827     49.173    594.712   1151.059    610.614    594.712    594.712
 69.470   1086.000   1021.003     64.997    594.684   1008.612    607.174    594.684    594.684
 69.570    912.000    911.528      0.472    594.654    901.684    604.569    594.654    594.654
 69.670    895.000    833.109     61.891    594.623    825.093    602.687    594.623    594.623
 69.770    815.034    779.076     35.958    594.590    772.329    601.370    594.590    594.590
 69.870    836.000    742.897     93.103    594.556    737.009    600.467    594.556    594.556
 69.970    759.000    719.051     39.949    594.521    713.737    599.850    594.521    594.521
 70.070    771.000    703.353     67.647    594.484    698.422    599.425    594.484    594.484
 70.170    750.000    692.895     57.105    594.446    688.223    599.125    594.446    594.446
 70.270    737.954    685.803     52.151    594.406    681.308    598.905    594.406    594.406
 70.370    696.000    680.942     15.058    594.365    676.568    598.741    594.365    594.365
 70.470    722.803    677.665     45.138    594.322    673.371    598.617    594.322    594.322
 70.570    701.000    675.629     25.371    594.278    671.380    598.526    594.278    594.278
 70.670    707.981    674.683     33.298    594.232    670.448    598.466    594.232    594.232
 70.770    662.078    674.817    -12.739    594.186    670.563    598.436    594.186    594.186
 70.870    717.000    676.153     40.847    594.137    671.843    598.442    594.137    594.137
 70.970    663.000    678.989    -15.989    594.087    674.576    598.493    594.087    594.087
 71.070    679.000    683.871     -4.871    594.036    679.292    598.605    594.036    594.036
 71.170    703.000    691.714     11.286    593.983    686.875    598.809    593.983    593.983
 71.270    713.000    703.940      9.060    593.929    698.704    599.147    593.929    593.929
 71.370    754.000    722.620     31.380    593.873    716.784    599.683    593.873    593.873
 71.470    832.000    750.552     81.448    593.816    743.827    600.504    593.816    593.816
 71.570    838.000    791.215     46.785    593.757    783.205    601.716    593.757    593.757
 71.670    902.186    848.501     53.685    593.697    838.687    603.440    593.697    593.697
 71.770    935.000    926.163      8.837    593.636    913.912    605.790    593.636    593.636
 71.870   1065.000   1026.996     38.004    593.573   1011.587    608.855    593.573    593.573
 71.970   1131.606   1151.803    -20.197    593.508   1132.493    612.659    593.508    593.508
 72.070   1354.000   1298.332     55.668    593.442   1274.445    617.136    593.442    593.442
 72.170   1493.000   1460.336     32.664    593.374   1431.389    622.094    593.374    593.374
 72.270   1632.000   1626.899      5.101    593.305   1592.746    627.204    593.305    593.305
 72.370   1749.020   1782.243    -33.223    593.235   1743.224    631.983    593.235    593.235
 72.470   1924.923   1906.695     18.228    593.163   1863.755    635.831    593.163    593.163
 72.570   2068.749   1980.150     88.599    593.089   1934.849    638.135    593.089    593.089
 72.670   2058.916   1988.489     70.427    593.014   1942.816    638.465    593.014    593.014
 72.770   1968.238   1929.890     38.348    592.938   1885.881    636.764    592.938    592.938
 72.870   1766.000   1815.791    -49.791    592.860   1775.125    633.384    592.860    592.860
 72.970   1570.000   1665.529    -95.529    592.780   1629.292    628.913    592.780    592.780
 73.070   1527.000   1499.394     27.606    592.699   1468.053    623.966    592.699    592.699
 73.170   1405.220   1334.304     70.917    592.616   1307.818    619.052    592.616    592.616
 73.270   1192.000   1182.367      9.633    592.532   1160.340    614.526    592.532    592.532
 73.370    991.283   1050.907    -59.623    592.447   1032.734    610.598    592.447    592.447
 73.470    997.459    943.058     54.401    592.360    928.054    607.350    592.360    592.360
 73.570    820.000    858.669    -38.669    592.271    846.155    604.774    592.271    592.271
 73.670    805.010    795.355      9.655    592.181    784.720    602.808    592.181    592.181
 73.770    754.000    749.554      4.446    592.089    740.271    601.365    592.089    592.089
 73.870    698.000    717.408    -19.408    591.996    709.041    600.357    591.996    591.996
 73.970    681.000    695.372    -14.372    591.901    687.560    599.709    591.901    591.901
 74.070    691.000    680.549     10.451    591.805    672.986    599.364    591.805    591.805
 74.170    628.153    670.777    -42.625    591.707    663.193    599.290    591.707    591.707
 74.270    711.000    664.572     46.428    591.608    656.705    599.475    591.608    591.608
 74.370    652.056    660.974     -8.918    591.507    652.567    599.917    591.507    591.507
 74.470    671.000    659.385     11.615    591.405    650.178    600.619    591.405    591.405
 74.570    643.000    659.418    -16.418    591.301    649.155    601.575    591.301    591.301
 74.670    634.596    660.771    -26.175    591.195    649.219    602.763    591.195    591.195
 74.770    699.000    663.144     35.856    591.088    650.114    604.139    591.088    591.088
 74.870    618.254    666.176    -47.922    590.980    651.556    605.627    590.980    590.980
 74.970    695.000    669.417     25.583    590.870    653.200    607.120    590.870    590.870
 75.070    645.144    672.319    -27.175    590.758    654.637    608.478    590.758    590.758
 75.170    709.000    674.291     34.709    590.645    655.425    609.552    590.645    590.645
 75.270    719.821    674.843     44.978    590.530    655.196    610.221    590.530    590.530
 75.370    664.000    673.785     -9.785    590.414    653.793    610.449    590.414    590.414
 75.470    750.000    671.344     78.656    590.296    651.356    610.325    590.296    590.296
 75.570    720.000    668.114     51.886    590.177    648.277    610.049    590.177    590.177
 75.670    684.000    664.886     19.114    590.056    645.079    609.892    590.056    590.056
 75.770    628.000    662.528    -34.528    589.934    642.315    610.169    589.934    589.934
 75.870    672.000    661.926     10.074    589.810    640.526    611.224    589.810    589.810
 75.970    668.000    663.984      4.016    589.685    640.237    613.437    589.685    589.685
 76.070    682.000    669.620     12.380    589.558    641.956    617.218    589.558    589.558
 76.170    650.393    679.729    -29.336    589.429    646.158    622.986    589.429    589.429
 76.270    699.000    695.113      3.887    589.299    653.255    631.132    589.299    589.299
 76.370    713.000    716.361     -3.361    589.167    663.536    641.955    589.167    589.167
 76.470    770.234    743.688     26.546    589.034    677.091    655.582    589.034    589.034
 76.570    765.000    776.767    -11.767    588.900    693.725    671.878    588.900    588.900
 76.670    756.000    814.556    -58.556    588.763    712.878    690.364    588.763    588.763
 76.770    883.000    855.169     27.831    588.626    733.553    710.151    588.626    588.626
 76.870    939.000    895.787     43.213    588.486    754.272    729.898    588.486    588.486
 76.970    938.000    932.677      5.323    588.346    773.090    747.821    588.346    588.346
 77.070    945.000    961.473    -16.473    588.203    787.734    761.828    588.203    588.203
 77.170    953.000    977.949    -24.949    588.059    796.008    769.888    588.059    588.059
 77.270    975.262    979.254     -3.992    587.914    796.429    770.633    587.914    587.914
 77.370   1017.192    965.060     52.133    587.767    788.823    763.909    587.767    587.767
 77.470    944.000    937.705      6.295    587.619    774.401    750.842    587.619    587.619
 77.570    921.000    901.220     19.780    587.469    755.250    733.371    587.469    587.469
 77.670    778.000    860.002    -82.002    587.317    733.650    713.614    587.317    587.317
 77.770    795.964    817.916    -21.952    587.164    711.604    693.433    587.164    587.164
 77.870    759.000    777.925    -18.925    587.010    690.649    674.253    587.010    587.010
 77.970    721.000    742.031    -21.031    586.854    671.820    657.039    586.854    586.854
 78.070    706.801    711.347     -4.547    586.696    655.696    642.328    586.696    586.696
 78.170    653.000    686.237    -33.237    586.537    642.465    630.295    586.537    586.537
 78.270    701.000    666.483     34.517    586.376    632.011    620.837    586.376    586.376
 78.370    685.634    651.484     34.150    586.214    624.024    613.665    586.214    586.214
 78.470    607.426    640.445    -33.018    586.050    618.090    608.398    586.050    586.050
 78.570    631.000    632.526     -1.526    585.885    613.773    604.633    585.885    585.885
 78.670    594.000    626.958    -32.958    585.719    610.673    601.999    585.719    585.719
 78.770    633.000    623.094      9.906    585.550    608.452    600.187    585.550    585.550
 78.870    604.000    620.435    -16.435    585.381    606.853    598.959    585.381    585.381
 78.970    626.654    618.621      8.033    585.210    605.686    598.140    585.210    585.210
 79.070    589.421    617.407    -27.986    585.037    604.825    597.615    585.037    585.037
 79.170    659.000    616.639     42.361    584.863    604.186    597.311    584.863    584.863
 79.270    595.264    616.229    -20.965    584.687    603.725    597.188    584.687    584.687
 79.370    636.000    616.140     19.860    584.510    603.418    597.229    584.510    584.510
 79.470    589.000    616.371    -27.371    584.331    603.259    597.439    584.331    584.331
 79.570    622.000    616.953      5.047    584.151    603.258    597.842    584.151    584.151
 79.670    594.000    617.951    -23.951    583.969    603.431    598.485    583.969    583.969
 79.770    609.746    619.475     -9.729    583.786    603.807    599.449    583.786    583.786
 79.870    671.471    621.693     49.778    583.602    604.426    600.863    583.602    583.602
 79.970    640.086    624.860     15.226    583.416    605.342    602.927    583.416    583.416
 80.070    646.000    629.347     16.653    583.228    606.629    605.938    583.228    583.228
 80.170    627.000    635.682     -8.682    583.039    608.387    610.323    583.039    583.039
 80.270    637.000    644.581     -7.581    582.849    610.750    616.665    582.849    582.849
 80.370    695.309    656.970     38.339    582.657    613.894    625.715    582.657    582.657
 80.470    635.473    673.971    -38.498    582.463    618.035    638.376    582.463    582.463
 80.570    707.000    696.841     10.159    582.269    623.429    655.651    582.269    582.269
 80.670    716.000    726.857    -10.857    582.072    630.361    678.533    582.072    582.072
 80.770    743.000    765.139    -22.139    581.875    639.120    707.849    581.875    581.875
 80.870    848.000    812.431     35.569    581.676    649.983    744.071    581.676    581.676
 80.970    860.000    868.847     -8.847    581.475    663.167    787.095    581.475    581.475
 81.070    973.508    933.614     39.895    581.273    678.776    836.045    581.273    581.273
 81.170   1064.751   1004.831     59.920    581.069    696.719    889.112    581.069    581.069
 81.270   1143.000   1079.335     63.665    580.865    716.644    943.485    580.865    580.865
 81.370   1223.000   1152.718     70.282    580.658    737.892    995.418    580.658    580.658
 81.470   1241.000   1219.650     21.350    580.451    759.507   1040.536    580.451    580.451
 81.570   1220.011   1274.545    -54.534    580.241    780.303   1074.441    580.241    580.241
 81.670   1247.507   1312.813    -65.306    580.031    799.172   1093.648    580.031    580.031
 81.770   1358.000   1331.442     26.558    579.819    815.009   1096.249    579.819    579.819
 81.870   1393.613   1329.594     64.020    579.606    826.976   1082.240    579.606    579.606
 81.970   1261.064   1308.435    -47.370    579.391    834.546   1053.316    579.391    579.391
 82.070   1324.831   1270.807     54.024    579.175    837.548   1012.486    579.175    579.175
 82.170   1306.000   1220.761     85.239    578.957    836.144    963.640    578.957    578.957
 82.270   1252.000   1162.827     89.173    578.739    830.685    910.955    578.739    578.739
 82.370   1118.648   1101.256     17.392    578.518    821.577    858.277    578.518    578.518
 82.470   1079.000   1039.571     39.429    578.297    809.286    808.664    578.297    578.297
 82.570    976.373    980.473     -4.100    578.074    794.426    764.202    578.074    578.074
 82.670    932.000    925.872      6.128    577.850    777.777    726.023    577.850    577.850
 82.770    815.000    876.897    -61.897    577.624    760.157    694.437    577.624    577.624
 82.870    814.734    833.930    -19.196    577.397    742.259    669.136    577.397    577.397
 82.970    784.298    796.769    -12.471    577.169    724.592    649.407    577.169    577.169
 83.070    793.000    764.901     28.099    576.939    707.546    634.348    576.939    576.939
 83.170    722.000    737.767    -15.767    576.708    691.480    623.042    576.708    576.708
 83.270    668.703    714.918    -46.215    576.476    676.769    614.665    576.476    576.476
 83.370    740.000    696.037     43.963    576.242    663.771    608.540    576.242    576.242
 83.470    628.000    680.905    -52.905    576.007    652.786    604.149    576.007    576.007
 83.570    616.000    669.357    -53.357    575.771    644.023    601.120    575.771    575.771
 83.670    639.000    661.244    -22.244    575.533    637.593    599.191    575.533    575.533
 83.770    664.351    656.393      7.957    575.294    633.500    598.186    575.294    575.294
 83.870    647.000    654.573     -7.573    575.054    631.646    597.971    575.054    575.054
 83.970    605.000    655.461    -50.461    574.813    631.825    598.429    574.813    574.813
 84.070    649.000    658.621     -9.621    574.570    633.727    599.436    574.570    574.570
 84.170    613.000    663.489    -50.489    574.326    636.936    600.842    574.326    574.326
 84.270    661.429    669.375     -7.946    574.081    640.947    602.466    574.081    574.081
 84.370    659.000    675.480    -16.480    573.835    645.171    604.094    573.835    573.835
 84.470    709.768    680.928     28.840    573.587    648.972    605.489    573.587    573.587
 84.570    678.834    684.842     -6.008    573.338    651.716    606.407    573.338    573.338
 84.670    673.000    686.475    -13.475    573.088    652.864    606.642    573.088    573.088
 84.770    684.000    685.371     -1.371    572.837    652.083    606.069    572.837    572.837
 84.870    607.000    681.483    -74.483    572.584    649.334    604.682    572.584    572.584
 84.970    718.187    675.167     43.020    572.331    644.859    602.592    572.331    572.331
 85.070    664.000    667.052     -3.052    572.076    639.094    599.993    572.076    572.076
 85.170    655.000    657.874     -2.874    571.820    632.550    597.109    571.820    571.820
 85.270    617.000    648.344    -31.344    571.562    625.713    594.163    571.562    571.562
 85.370    601.000    639.074    -38.074    571.304    619.000    591.353    571.304    571.304
 85.470    641.224    630.560     10.664    571.044    612.735    588.848    571.044    571.044
 85.570    628.000    623.156      4.844    570.783    607.140    586.781    570.783    570.783
 85.670    655.000    617.093     37.907    570.522    602.342    585.257    570.522    570.522
 85.770    603.000    612.492     -9.492    570.258    598.383    584.353    570.258    570.258
 85.870    601.000    609.386     -8.386    569.994    595.242    584.124    569.994    569.994
 85.970    562.000    607.743    -45.743    569.729    592.856    584.602    569.729    569.729
 86.070    597.000    607.491    -10.491    569.463    591.138    585.799    569.463    569.463
 86.170    598.000    608.527    -10.527    569.195    590.000    587.704    569.195    569.195
 86.270    590.000    610.732    -20.732    568.926    589.364    590.275    568.926    568.926
 86.370    568.405    613.973    -45.568    568.657    589.176    593.431    568.657    568.657
 86.470    622.000    618.100      3.900    568.386    589.413    597.046    568.386    568.386
 86.570    632.000    622.945      9.055    568.114    590.083    600.946    568.114    568.114
 86.670    641.000    628.322     12.678    567.841    591.227    604.901    567.841    567.841
 86.770    628.000    634.024     -6.024    567.567    592.920    608.632    567.567    567.567
 86.870    635.000    639.833     -4.833    567.292    595.259    611.820    567.292    567.292
 86.970    686.000    645.538     40.462    567.016    598.362    614.143    567.016    567.016
 87.070    670.000    650.986     19.014    566.739    602.350    615.319    566.739    566.739
 87.170    679.134    656.124     23.010    566.461    607.338    615.185    566.461    566.461
 87.270    674.000    661.031     12.969    566.182    613.413    613.732    566.182    566.182
 87.370    706.000    665.893     40.107    565.902    620.610    611.109    565.902    565.902
 87.470    705.341    670.925     34.416    565.621    628.892    607.570    565.621    565.621
 87.570    690.000    676.288     13.712    565.339    638.121    603.412    565.339    565.339
 87.670    660.000    682.017    -22.017    565.056    648.047    598.923    565.056    565.056
 87.770    711.323    687.985     23.338    564.772    658.292    594.353    564.772    564.772
 87.870    738.000    693.888     44.112    564.487    668.345    589.909    564.487    564.487
 87.970    738.218    699.250     38.968    564.201    677.577    585.746    564.201    564.201
 88.070    674.281    703.471    -29.190    563.914    685.280    581.973    563.914    563.914
 88.170    749.000    705.920     43.080    563.627    690.765    578.649    563.627    563.627
 88.270    713.000    706.094      6.906    563.338    693.510    575.791    563.338    563.338
 88.370    678.342    703.774    -25.432    563.049    693.315    573.383    563.049    563.049
 88.470    713.000    699.114     13.886    562.758    690.370    571.388    562.758    562.758
 88.570    681.000    692.584    -11.584    562.467    685.193    569.756    562.467    562.467
 88.670    697.000    684.842     12.158    562.175    678.497    568.432    562.175    562.175
 88.770    679.000    676.607      2.393    561.882    671.051    567.365    561.882    561.882
 88.870    694.507    668.572     25.935    561.588    663.593    566.508    561.588    561.588
 88.970    688.000    661.355     26.645    561.294    656.781    565.824    561.294    561.294
 89.070    618.583    655.470    -36.887    560.999    651.158    565.280    560.999    560.999
 89.170    610.000    651.292    -41.292    560.703    647.126    564.851    560.703    560.703
 89.270    614.314    649.041    -34.727    560.406    644.925    564.516    560.406    560.406
 89.370    633.000    648.766    -15.766    560.108    644.621    564.258    560.108    560.108
 89.470    675.000    650.344     24.656    559.809    646.108    564.061    559.809    559.809
 89.570    667.959    653.491     14.468    559.510    649.119    563.907    559.510    559.510
 89.670    640.000    657.776    -17.776    559.210    653.241    563.779    559.210    559.210
 89.770    702.760    662.644     40.116    558.910    657.938    563.658    558.910    558.910
 89.870    646.000    667.445    -21.445    558.608    662.581    563.523    558.608    558.608
 89.970    664.000    671.482     -7.482    558.306    666.492    563.353    558.306    558.306
 90.070    714.000    674.081     39.919    558.004    669.020    563.127    558.004    558.004
 90.170    712.000    674.706     37.294    557.700    669.643    562.829    557.700    557.700
 90.270    708.000    673.063     34.937    557.396    668.076    562.451    557.396    557.396
 90.370    652.000    669.163    -17.163    557.091    664.328    561.995    557.091    557.091
 90.470    625.000    663.297    -38.297    556.786    658.677    561.471    556.786    556.786
 90.570    636.000    655.938    -19.938    556.480    651.582    560.897    556.480    556.480
 90.670    669.000    647.630     21.370    556.173    643.568    560.291    556.173    556.173
 90.770    634.857    638.901     -4.044    555.866    635.146    559.671    555.866    555.866
 90.870    627.000    630.214     -3.214    555.558    626.762    559.053    555.558    555.558
 90.970    609.000    621.944    -12.944    555.250    618.780    558.450    555.250    555.250
 91.070    656.964    614.369     42.594    554.941    611.469    557.872    554.941    554.941
 91.170    599.000    607.675     -8.675    554.632    605.008    557.323    554.632    554.632
 91.270    571.000    601.959    -30.959    554.322    599.491    556.809    554.322    554.322
 91.370    624.939    597.247     27.692    554.011    594.944    556.329    554.011    554.011
 91.470    622.507    593.508     28.999    553.700    591.336    555.882    553.700    553.700
 91.570    576.000    590.675    -14.675    553.389    588.603    555.467    553.389    553.389
 91.670    596.000    588.662      7.338    553.077    586.662    555.081    553.077    553.077
 91.770    545.536    587.387    -41.851    552.764    585.432    554.720    552.764    552.764
 91.870    573.000    586.781    -13.781    552.452    584.848    554.384    552.452    552.452
 91.970    543.613    586.802    -43.188    552.138    584.869    554.069    552.138    552.138
 92.070    562.000    587.441    -25.441    551.825    585.485    553.777    551.825    551.825
 92.170    591.000    588.728      2.272    551.511    586.724    553.508    551.511    551.511
 92.270    539.000    590.730    -51.730    551.196    588.653    553.265    551.196    551.196
 92.370    570.668    593.554    -22.885    550.881    591.373    553.052    550.881    550.881
 92.470    645.823    597.335     48.488    550.566    595.016    552.873    550.566    550.566
 92.570    601.000    602.236     -1.236    550.251    599.738    552.732    550.251    550.251
 92.670    564.795    608.427    -43.632    549.935    605.706    552.636    549.935    549.935
 92.770    585.000    616.078    -31.078    549.619    613.083    552.589    549.619    549.619
 92.870    616.189    625.339     -9.150    549.302    622.017    552.594    549.302    549.302
 92.970    662.089    636.320     25.769    548.986    632.616    552.654    548.986    548.986
 93.070    666.064    649.077     16.986    548.669    644.936    552.768    548.669    548.669
 93.170    698.000    663.594     34.406    548.351    658.964    552.932    548.351    548.351
 93.270    680.000    679.765      0.235    548.034    674.601    553.143    548.034    548.034
 93.370    749.858    697.393     52.466    547.716    691.655    553.391    547.716    547.716
 93.470    696.973    716.173    -19.200    547.398    709.832    553.668    547.398    547.398
 93.570    783.747    735.700     48.047    547.080    728.737    553.966    547.080    547.080
 93.670    793.992    755.485     38.508    546.762    747.886    554.278    546.762    546.762
 93.770    748.965    774.998    -26.034    546.444    766.754    554.601    546.444    546.444
 93.870    776.000    793.758    -17.758    546.126    784.849    554.943    546.126    546.126
 93.970    833.434    811.437     21.997    545.807    801.823    555.328    545.807    545.807
 94.070    773.000    827.960    -54.960    545.488    817.559    555.794    545.488    545.488
 94.170    792.000    843.519    -51.519    545.170    832.191    556.402    545.170    545.170
 94.270    845.588    858.498    -12.910    544.851    846.031    557.222    544.851    544.851
 94.370    848.000    873.331    -25.331    544.532    859.434    558.334    544.532    544.532
 94.470    902.000    888.364     13.636    544.213    872.673    559.809    544.213    544.213
 94.570    891.418    903.768    -12.350    543.894    885.864    561.704    543.894    543.894
 94.670    903.370    919.523    -16.153    543.576    898.953    564.052    543.576    543.576
 94.770    882.087    935.547    -53.460    543.257    911.857    566.855    543.257    543.257
 94.870    931.000    951.648    -20.648    542.938    924.422    570.075    542.938    542.938
 94.970    955.000    967.608    -12.608    542.619    936.509    573.631    542.619    542.619
 95.070    950.295    983.123    -32.828    542.301    947.942    577.397    542.301    542.301
 95.170   1014.659    997.700     16.959    541.982    958.394    581.207    541.982    541.982
 95.270    970.562   1010.574    -40.013    541.664    967.310    584.852    541.664    541.664
 95.370   1070.732   1020.713     50.019    541.345    973.890    588.097    541.345    541.345
 95.470   1048.384   1026.902     21.482    541.027    977.166    590.700    541.027    541.027
 95.570   1011.943   1027.916    -15.973    540.709    976.141    592.430    540.709    540.709
 95.670   1013.000   1022.799     -9.799    540.392    970.036    593.109    540.392    540.392
 95.770   1059.000   1011.124     47.876    540.074    958.516    592.647    540.074    540.074
 95.870    978.000    993.167    -15.167    539.757    941.838    591.061    539.757    539.757
 95.970    957.000    969.890    -12.890    539.440    920.843    588.470    539.440    539.440
 96.070    926.000    942.784    -16.784    539.123    896.824    585.072    539.123    539.123
 96.170    951.194    913.630     37.564    538.806    871.329    581.103    538.806    538.806
 96.270    917.743    884.305     33.438    538.490    845.987    576.807    538.490    538.490
 96.370    923.000    856.639     66.361    538.174    822.400    572.413    538.174    538.174
 96.470    895.000    832.334     62.666    537.859    802.072    568.120    537.859    537.859
 96.570    783.000    812.926    -29.926    537.544    786.374    564.090    537.544    537.544
 96.670    814.000    799.753     14.247    537.229    776.526    560.446    537.229    537.229
 96.770    825.000    793.945     31.055    536.915    773.578    557.265    536.915    536.915
 96.870    840.000    796.388     43.612    536.601    778.375    554.590    536.601    536.601
 96.970    811.000    807.819      3.181    536.287    791.643    552.429    536.287    536.287
 97.070    869.000    828.736     40.264    535.974    813.898    550.768    535.974    535.974
 97.170    857.000    859.327     -2.327    535.662    845.361    549.572    535.662    535.662
 97.270    903.000    899.530      3.470    535.350    886.015    548.798    535.350    535.350
 97.370    894.490    948.962    -54.471    535.038    935.526    548.395    535.038    535.038
 97.470   1078.000   1006.877     71.123    534.727    993.203    548.311    534.727    534.727
 97.570   1111.012   1072.125     38.886    534.417   1057.951    548.490    534.417    534.417
 97.670   1194.583   1143.070     51.513    534.107   1128.193    548.873    534.107    534.107
 97.770   1210.984   1217.584     -6.599    533.798   1201.863    549.400    533.798    533.798
 97.870   1339.000   1293.023     45.977    533.490   1276.386    550.003    533.490    533.490
 97.970   1411.627   1366.248     45.379    533.182   1348.693    550.613    533.182    533.182
 98.070   1486.140   1433.703     52.437    532.875   1415.304    551.153    532.875    532.875
 98.170   1462.000   1491.598    -29.598    532.568   1472.506    551.547    532.568    532.568
 98.270   1508.000   1536.251    -28.251    532.262   1516.690    551.723    532.262    532.262
 98.370   1490.020   1564.575    -74.555    531.957   1544.827    551.621    531.957    531.957
 98.470   1627.659   1574.613     53.046    531.653   1554.998    551.202    531.653    531.653
 98.570   1493.000   1565.933    -72.933    531.350   1546.777    550.461    531.350    531.350
 98.670   1598.000   1539.700     58.300    531.047   1521.303    549.418    531.047    531.047
 98.770   1427.000   1498.408    -71.408    530.745   1481.024    548.121    530.745    530.745
 98.870   1491.765   1445.416     46.349    530.444   1429.235    546.632    530.444    530.444
 98.970   1412.000   1384.469     27.531    530.144   1369.613    545.018    530.144    530.144
 99.070   1299.955   1319.328    -19.372    529.845   1305.852    543.347    529.845    529.845
 99.170   1297.000   1253.528     43.472    529.547   1241.428    541.677    529.547    529.547
 99.270   1176.000   1190.247    -14.247    529.250   1179.467    540.061    529.250    529.250
 99.370   1144.000   1132.235     11.765    528.953   1122.675    538.542    528.953    528.953
 99.470   1110.000   1081.799     28.201    528.658   1073.328    537.155    528.658    528.658
 99.570   1055.635   1040.814     14.821    528.364   1033.275    535.922    528.364    528.364
 99.670   1008.569   1010.750     -2.181    528.071   1003.974    534.859    528.071    528.071
 99.770    966.000    992.705    -26.705    527.778    986.513    533.975    527.778    527.778
 99.870    994.000    987.429      6.571    527.487    981.643    533.270    527.487    527.487
 99.970    985.388    995.346     -9.958    527.197    989.795    532.737    527.197    527.197
100.070   1054.000   1016.569     37.431    526.908   1011.093    532.368    526.908    526.908
100.170   1094.000   1050.905     43.095    526.621   1045.357    532.146    526.621    526.621
100.270   1097.000   1097.855     -0.855    526.334   1092.109    532.054    526.334    526.334
100.370   1134.000   1156.607    -22.607    526.049   1150.556    532.071    526.049    526.049
100.470   1221.000   1226.004     -5.004    525.765   1219.565    532.175    525.765    525.765
100.570   1368.000   1304.562     63.438    525.482   1297.678    532.341    525.482    525.482
100.670   1358.354   1390.414    -32.060    525.201   1383.052    532.542    525.201    525.201
100.770   1512.000   1481.271     30.729    524.920   1473.430    532.751    524.920    524.920
100.870   1537.000   1574.477    -37.477    524.641   1566.181    532.940    524.641    524.641
100.970   1708.000   1667.075     40.925    524.364   1658.375    533.081    524.364    524.364
101.070   1718.475   1755.966    -37.491    524.088   1746.940    533.150    524.088    524.088
101.170   1815.080   1838.166    -23.087    523.813   1828.908    533.127    523.813    523.813
101.270   1930.000   1911.081     18.919    523.540   1901.696    533.002    523.540    523.540
101.370   2029.838   1972.710     57.129    523.268   1963.302    532.774    523.268    523.268
101.470   2044.817   2021.683     23.134    522.998   2012.346    532.453    522.998    522.998
101.570   2119.000   2057.123     61.877    522.729   2047.931    532.058    522.729    522.729
101.670   2145.000   2078.425     66.575    522.462   2069.427    531.612    522.462    522.462
101.770   2034.233   2085.115    -50.883    522.196   2076.336    531.142    522.196    522.196
101.870   2010.007   2076.878    -66.871    521.932   2068.316    530.671    521.932    521.932
101.970   2071.000   2053.776     17.224    521.669   2045.408    530.223    521.669    521.669
102.070   2065.000   2016.556     48.444    521.408   2008.341    529.814    521.408    521.408
102.170   1972.000   1966.867      5.133    521.149   1958.749    529.459    521.149    521.149
102.270   1944.147   1907.255     36.892    520.892   1899.171    529.166    520.892    520.892
102.370   1843.815   1840.907      2.908    520.636   1832.790    528.937    520.636    520.636
102.470   1847.192   1771.237     75.955    520.382   1763.026    528.769    520.382    520.382
102.570   1682.358   1701.473    -19.115    520.130   1693.115    528.655    520.130    520.130
102.670   1672.501   1634.344     38.157    519.879   1625.800    528.580    519.879    519.879
102.770   1499.263   1571.909    -72.646    519.631   1563.157    528.528    519.631    519.631
102.870   1526.000   1515.493     10.507    519.384   1506.530    528.481    519.384    519.384
102.970   1450.660   1465.697    -15.037    519.139   1456.539    528.421    519.139    519.139
103.070   1322.000   1422.444   -100.444    518.896   1413.123    528.333    518.896    518.896
103.170   1299.000   1385.047    -86.047    518.655   1375.609    528.202    518.655    518.655
103.270   1269.000   1352.299    -83.299    518.416   1342.805    528.014    518.416    518.416
103.370   1361.260   1322.611     38.649    518.179   1313.132    527.759    518.179    518.179
103.470   1290.000   1294.191     -4.191    517.945   1284.807    527.426    517.945    517.945
103.570   1278.015   1265.280     12.735    517.712   1256.080    527.009    517.712    517.712
103.670   1200.000   1234.410    -34.410    517.481   1225.485    526.503    517.481    517.481
103.770   1217.000   1200.612     16.388    517.252   1192.049    525.912    517.252    517.252
103.870   1117.265   1163.514    -46.250    517.026   1155.391    525.244    517.026    517.026
103.970   1117.329   1123.310     -5.981    516.801   1115.690    524.514    516.801    516.801
104.070   1049.000   1080.616    -31.616    516.579   1073.546    523.739    516.579    516.579
104.170   1018.057   1036.303    -18.245    516.359   1029.810    522.938    516.359    516.359
104.270    984.338    991.333     -6.996    516.142    985.428    522.128    516.142    516.142
104.370    959.000    946.661     12.339    515.926    941.336    521.327    515.926    515.926
104.470    925.000    903.157     21.843    515.713    898.393    520.546    515.713    515.713
104.570    863.000    861.574      1.426    515.503    857.343    519.796    515.503    515.503
104.670    819.009    822.518     -3.509    515.294    818.787    519.082    515.294    515.294
104.770    841.255    786.513     54.742    515.088    783.231    518.419    515.088    515.088
104.870    754.686    753.857      0.829    514.885    750.978    517.807    514.885    514.885
104.970    743.856    724.725     19.132    514.684    722.200    517.245    514.684    514.684
105.070    690.258    699.151     -8.893    514.486    696.934    516.733    514.486    514.486
105.170    703.000    677.072     25.928    514.290    675.118    516.269    514.290    514.290
105.270    647.000    658.314    -11.314    514.096    656.581    515.850    514.096    514.096
105.370    642.000    642.638     -0.638    513.906    641.087    515.473    513.906    513.906
105.470    682.000    629.764     52.236    513.717    628.362    515.133    513.717    513.717
105.570    648.000    619.396     28.604    513.532    618.111    514.826    513.532    513.532
105.670    622.930    611.239     11.691    513.349    610.046    514.549    513.349    513.349
105.770    657.000    605.021     51.979    513.169    603.897    514.298    513.169    513.169
105.870    587.742    600.500    -12.758    512.992    599.424    514.069    512.992    512.992
105.970    562.365    597.476    -35.111    512.817    596.431    513.861    512.817    512.817
106.070    604.000    595.791      8.209    512.646    594.762    513.672    512.646    512.646
106.170    614.539    595.332     19.207    512.477    594.304    513.500    512.477    512.477
106.270    585.635    596.024    -10.390    512.311    594.984    513.344    512.311    512.311
106.370    638.000    597.829     40.171    512.148    596.764    513.204    512.148    512.148
106.470    594.000    600.737     -6.737    511.988    599.633    513.080    511.988    511.988
106.570    611.000    604.756      6.244    511.831    603.600    512.972    511.831    511.831
106.670    584.000    609.909    -25.909    511.677    608.688    512.880    511.677    511.677
106.770    656.058    616.219     39.839    511.526    614.919    512.804    511.526    511.526
106.870    633.000    623.704      9.296    511.378    622.311    512.746    511.378    511.378
106.970    639.000    632.366      6.634    511.233    630.867    512.704    511.233    511.233
107.070    684.000    642.179     41.821    511.091    640.560    512.678    511.091    511.091
107.170    640.143    653.084    -12.941    510.953    651.332    512.669    510.953    510.953
107.270    698.691    664.975     33.716    510.817    663.080    512.673    510.817    510.817
107.370    678.097    677.700      0.396    510.685    675.653    512.689    510.685    510.685
107.470    675.000    691.054    -16.054    510.556    688.849    512.715    510.556    510.556
107.570    711.573    704.778      6.795    510.431    702.412    512.747    510.431    510.431
107.670    686.000    718.564    -32.564    510.309    716.040    512.781    510.309    510.309
107.770    747.000    732.057     14.943    510.190    729.381    512.812    510.190    510.190
107.870    766.000    744.871     21.129    510.075    742.056    512.835    510.075    510.075
107.970    767.000    756.601     10.399    509.963    753.665    512.844    509.963    509.963
108.070    764.000    766.858     -2.858    509.854    763.823    512.834    509.854    509.854
108.170    809.119    775.305     33.815    509.750    772.200    512.800    509.750    509.750
108.270    788.287    781.703      6.583    509.648    778.561    512.739    509.648    509.648
108.370    742.941    785.958    -43.017    509.551    782.811    512.649    509.551    509.551
108.470    757.000    788.136    -31.136    509.456    785.017    512.531    509.456    509.456
108.570    755.000    788.465    -33.465    509.366    785.405    512.385    509.366    509.366
108.670    820.000    787.297     32.703    509.279    784.323    512.218    509.279    509.279
108.770    754.000    785.063    -31.063    509.196    782.195    512.032    509.196    509.196
108.870    779.109    782.214     -3.104    509.117    779.468    511.836    509.117    509.117
108.970    761.000    779.177    -18.177    509.042    776.564    511.632    509.042    509.042
109.070    772.253    776.323     -4.070    508.970    773.846    511.428    508.970    508.970
109.170    810.658    773.939     36.719    508.902    771.599    511.228    508.902    508.902
109.270    750.000    772.219    -22.219    508.839    770.012    511.035    508.839    508.839
109.370    814.405    771.256     43.150    508.779    769.174    510.853    508.779    508.779
109.470    722.000    771.036    -49.036    508.723    769.073    510.684    508.723    508.723
109.570    733.000    771.448    -38.448    508.671    769.591    510.528    508.671    508.671
109.670    740.000    772.279    -32.279    508.624    770.519    510.387    508.624    508.624
109.770    727.526    773.235    -45.709    508.580    771.562    510.260    508.580    508.580
109.870    735.000    773.957    -38.957    508.540    772.362    510.145    508.540    508.540
109.970    764.000    774.046    -10.046    508.505    772.528    510.036    508.505    508.505
110.070    784.000    773.128     10.872    508.474    771.680    509.938    508.474    508.474
110.170    783.000    770.877     12.123    508.447    769.489    509.853    508.447    508.447
110.270    811.710    767.052     44.658    508.424    765.720    509.776    508.424    508.424
110.370    766.130    761.544      4.586    508.406    760.267    509.704    508.406    508.406
110.470    724.781    754.382    -29.601    508.392    753.159    509.638    508.392    508.392
110.570    713.000    745.717    -32.717    508.383    744.546    509.576    508.383    508.383
110.670    726.000    735.790     -9.790    508.378    734.672    509.519    508.378    508.378
110.770    686.396    724.901    -38.505    508.377    723.834    509.466    508.377    508.377
110.870    683.000    713.367    -30.367    508.381    712.350    509.420    508.381    508.381
110.970    676.708    701.505    -24.797    508.390    700.535    509.379    508.390    508.390
111.070    679.000    689.602    -10.602    508.403    688.678    509.345    508.403    508.403
111.170    636.070    677.932    -41.861    508.421    677.050    509.319    508.421    508.421
111.270    649.008    666.725    -17.717    508.443    665.883    509.300    508.443    508.443
111.370    627.000    656.167    -29.167    508.470    655.360    509.290    508.470    508.470
111.470    670.000    646.407     23.593    508.502    645.632    509.288    508.502    508.502
111.570    682.000    637.556     44.444    508.539    636.808    509.295    508.539    508.539
111.670    679.258    629.687     49.571    508.580    628.963    509.311    508.580    508.580
111.770    646.000    622.839     23.161    508.627    622.133    509.337    508.627    508.627
111.870    672.000    617.018     54.982    508.678    616.327    509.371    508.678    508.678
111.970    609.000    612.204     -3.204    508.734    611.524    509.415    508.734    508.734
112.070    640.000    608.354     31.646    508.795    607.681    509.467    508.795    508.795
112.170    637.000    605.409     31.591    508.862    604.740    509.528    508.862    508.862
112.270    593.165    603.297    -10.133    508.933    602.630    509.596    508.933    508.933
112.370    627.225    601.941     25.283    509.010    601.272    509.673    509.010    509.010
112.470    581.975    601.259    -19.284    509.091    600.587    509.757    509.091    509.091
112.570    589.000    601.171    -12.171    509.178    600.494    509.848    509.178    509.178
112.670    612.000    601.602     10.398    509.270    600.918    509.945    509.270    509.270
112.770    616.566    602.482     14.084    509.367    601.792    510.048    509.367    509.367
112.870    609.000    603.752      5.248    509.470    603.054    510.158    509.470    509.470
112.970    641.000    605.362     35.638    509.578    604.657    510.273    509.578    509.578
113.070    640.676    607.278     33.398    509.692    606.564    510.394    509.692    509.692
113.170    650.416    609.476     40.940    509.811    608.755    510.520    509.811    509.811
113.270    591.000    611.949    -20.949    509.935    611.220    510.652    509.935    509.935
113.370    564.900    614.706    -49.806    510.065    613.968    510.790    510.065    510.065
113.470    621.112    617.769      3.343    510.201    617.022    510.935    510.201    510.201
113.570    598.000    621.179    -23.179    510.342    620.421    511.087    510.342    510.342
113.670    628.000    624.995      3.005    510.489    624.224    511.247    510.489    510.489
113.770    621.000    629.297     -8.297    510.641    628.509    511.415    510.641    510.641
113.870    632.000    634.189     -2.189    510.799    633.381    511.592    510.799    510.799
113.970    608.748    639.810    -31.062    510.963    638.976    511.781    510.963    510.963
114.070    601.489    646.335    -44.846    511.133    645.470    511.980    511.133    511.133
114.170    670.000    653.991     16.009    511.309    653.087    512.193    511.309    511.309
114.270    685.505    663.066     22.439    511.491    662.115    512.420    511.491    511.491
114.370    711.129    673.923     37.206    511.679    672.914    512.663    511.679    511.679
114.470    669.713    687.017    -17.303    511.872    685.937    512.923    511.872    511.872
114.570    727.627    702.910     24.718    512.072    701.745    513.202    512.072    512.072
114.670    740.277    722.291     17.986    512.278    721.025    513.503    512.278    512.278
114.770    739.000    745.995     -6.995    512.490    744.609    513.826    512.490    512.490
114.870    808.902    775.018     33.884    512.708    773.492    514.175    512.708    512.708
114.970    773.000    810.534    -37.534    512.933    808.844    514.551    512.933    512.933
115.070    814.000    853.902    -39.902    513.164    852.022    514.957    513.164    513.164
115.170    863.000    906.672    -43.672    513.401    904.575    515.393    513.401    513.401
115.270    896.000    970.576    -74.576    513.644    968.232    515.863    513.644    513.644
115.370   1048.114   1047.516      0.598    513.894   1044.892    516.368    513.894    513.894
115.470   1126.000   1139.526    -13.526    514.150   1136.589    516.910    514.150    514.150
115.570   1278.025   1248.730     29.295    514.413   1245.445    517.489    514.413    514.413
115.670   1359.000   1377.279    -18.279    514.683   1373.610    518.107    514.683    514.683
115.770   1517.000   1527.266    -10.266    514.959   1523.176    518.764    514.959    514.959
115.870   1697.000   1700.630     -3.630    515.241   1696.085    519.459    515.241    515.241
115.970   1853.722   1899.044    -45.323    515.531   1894.011    520.192    515.531    515.531
116.070   2164.000   2123.797     40.203    515.827   2118.244    520.961    515.827    515.827
116.170   2441.000   2375.656     65.344    516.130   2369.554    521.762    516.130    516.130
116.270   2605.755   2654.737    -48.982    516.439   2648.066    522.594    516.439    516.439
116.370   2933.307   2960.379    -27.071    516.756   2953.120    523.449    516.756    516.756
116.470   3210.000   3291.033    -81.033    517.080   3283.179    524.324    517.080    517.080
116.570   3617.000   3644.288    -27.288    517.410   3635.835    525.213    517.410    517.410
116.670   3962.000   4016.590    -54.590    517.748   4007.544    526.108    517.748    517.748
116.770   4288.000   4403.370   -115.370    518.092   4393.747    527.004    518.092    518.092
116.870   4768.896   4799.022    -30.127    518.444   4788.843    527.894    518.444    518.444
116.970   5004.000   5196.939   -192.939    518.803   5186.235    528.773    518.803    518.803
117.070   5506.000   5589.594    -83.594    519.169   5578.402    529.633    519.169    519.169
117.170   5875.000   5968.664    -93.664    519.543   5957.027    530.471    519.543    519.543
117.270   6267.000   6325.206    -58.206    519.923   6313.176    531.281    519.923    519.923
117.370   6761.251   6649.912    111.339    520.312   6637.543    532.058    520.312    520.312
117.470   6956.000   6933.449     22.551    520.707   6920.803    532.797    520.707    520.707
117.570   7199.744   7166.924     32.820    521.110   7154.065    533.491    521.110    521.110
117.670   7361.000   7342.447     18.553    521.521   7329.444    534.136    521.521    521.521
117.770   7610.000   7453.757    156.243    521.939   7440.680    534.726    521.939    521.939
117.870   7570.342   7496.810     73.533    522.364   7483.728    535.258    522.364    522.364
117.970   7529.000   7470.201     58.799    522.798   7457.183    535.731    522.798    522.798
118.070   7356.000   7375.320    -19.320    523.239   7362.430    536.143    523.239    523.239
118.170   7340.000   7216.189    123.811    523.688   7203.485    536.497    523.688    523.688
118.270   6957.000   6999.030    -42.030    524.144   6986.565    536.794    524.144    524.144
118.370   6744.339   6731.672     12.666    524.609   6719.496    537.039    524.609    524.609
118.470   6566.729   6422.929    143.801    525.081   6411.084    537.234    525.081    525.081
118.570   6145.649   6082.026     63.623    525.562   6070.551    537.387    525.562    525.562
118.670   5645.000   5718.148    -73.148    526.050   5707.076    537.500    526.050    526.050
118.770   5280.000   5340.093    -60.093    526.547   5329.453    537.580    526.547    526.547
118.870   4981.959   4956.020     25.939    527.051   4945.836    537.632    527.051    527.051
118.970   4725.000   4573.279    151.721    527.564   4563.569    537.665    527.564    527.564
119.070   4322.000   4198.286    123.714    528.085   4189.062    537.685    528.085    528.085
119.170   3934.470   3836.454     98.015    528.614   3827.721    537.701    528.614    528.614
119.270   3555.000   3492.155     62.845    529.152   3483.912    537.721    529.152    529.152
119.370   3190.000   3168.725     21.275    529.698   3160.965    537.753    529.698    529.698
119.470   2971.000   2868.509    102.491    530.252   2861.220    537.803    530.252    530.252
119.570   2501.296   2592.935    -91.639    530.815   2586.097    537.880    530.815    530.815
119.670   2434.471   2342.607     91.864    531.386   2336.197    537.989    531.386    531.386
119.770   2184.345   2117.427     66.918    531.966   2111.418    538.135    531.966    531.966
119.870   2015.000   1916.716     98.284    532.555   1911.076    538.324    532.555    532.555
119.970   1822.000   1739.335     82.665    533.152   1734.030    538.558    533.152    533.152
120.070   1628.000   1583.805     44.195    533.758   1578.798    538.841    533.758    533.758
120.170   1500.000   1448.417     51.583    534.373   1443.669    539.175    534.373    534.373
120.270   1265.502   1331.325    -65.823    534.997   1326.795    539.563    534.997    534.997
120.370   1287.185   1230.634     56.551    535.630   1226.279    540.005    535.630    535.630
120.470   1176.000   1144.468     31.532    536.271   1140.244    540.504    536.271    536.271
120.570   1167.000   1071.026     95.974    536.922   1066.889    541.059    536.922    536.922
120.670   1003.000   1008.626     -5.626    537.582   1004.529    541.671    537.582    537.582
120.770    999.000    955.730     43.270    538.250    951.625    542.342    538.250    538.250
120.870    911.085    910.960      0.124    538.928    906.801    543.073    538.928    538.928
120.970    872.000    873.109     -1.109    539.616    868.845    543.863    539.616    539.616
121.070    839.000    841.129     -2.129    540.312    836.709    544.714    540.312    540.312
121.170    847.000    814.129     32.871    541.018    809.502    545.627    541.018    541.018
121.270    814.000    791.360     22.640    541.733    786.472    546.605    541.733    541.733
121.370    753.000    772.198    -19.198    542.458    766.993    547.648    542.458    542.458
121.470    758.758    756.128      2.630    543.192    750.547    548.760    543.192    543.192
121.570    740.000    742.728     -2.728    543.936    736.711    549.941    543.936    543.936
121.670    755.000    731.654     23.346    544.690    725.139    551.196    544.690    544.690
121.770    694.000    722.626    -28.626    545.453    715.546    552.525    545.453    545.453
121.870    704.000    715.415    -11.415    546.225    707.702    553.933    546.225    546.225
121.970    698.996    709.832    -10.836    547.008    701.415    555.421    547.008    547.008
122.070    703.000    705.720     -2.720    547.801    696.526    556.992    547.801    547.801
122.170    716.320    702.948     13.372    548.603    692.902    558.648    548.603    548.603
122.270    649.000    701.400    -52.400    549.415    690.425    560.392    549.415    549.415
122.370    719.363    700.976     18.387    550.238    688.993    562.223    550.238    550.238
122.470    707.000    701.582      5.418    551.070    688.513    564.143    551.070    551.070
122.570    688.409    703.130    -14.721    551.913    688.897    566.152    551.913    551.913
122.670    656.525    705.534    -49.008    552.765    690.060    568.247    552.765    552.765
122.770    694.000    708.706    -14.706    553.628    691.920    570.424    553.628    553.628
122.870    715.000    712.557      2.443    554.502    694.392    572.679    554.502    554.502
122.970    732.000    716.991     15.009    555.385    697.388    575.003    555.385    555.385
123.070    752.355    721.909     30.447    556.279    700.819    577.386    556.279    556.279
123.170    671.000    727.202    -56.202    557.184    704.590    579.815    557.184    557.184
123.270    750.000    732.755     17.245    558.099    708.603    582.273    558.099    558.099
123.370    758.186    738.447     19.739    559.025    712.752    584.743    559.025    559.025
123.470    723.000    744.148    -21.148    559.961    716.931    587.205    559.961    559.961
123.570    795.348    749.723     45.625    560.908    721.027    589.634    560.908    560.908
123.670    803.140    755.033     48.107    561.866    724.926    592.006    561.866    561.866
123.770    762.000    759.938      2.062    562.835    728.512    594.296    562.835    562.835
123.870    734.000    764.298    -30.298    563.815    731.675    596.476    563.815    563.815
123.970    843.000    767.984     75.016    564.805    734.308    598.522    564.805    564.805
124.070    764.000    770.863     -6.863    565.807    736.304    600.408    565.807    565.807
124.170    816.025    772.847     43.178    566.819    737.594    602.117    566.819    566.819
124.270    790.000    773.901     16.099    567.843    738.160    603.632    567.843    567.843
124.370    792.000    773.964     18.036    568.878    737.948    604.942    568.878    568.878
124.470    807.974    773.025     34.949    569.924    736.955    606.044    569.924    569.924
124.570    798.000    771.107     26.893    570.982    735.201    606.938    570.982    570.982
124.670    790.000    768.261     21.739    572.051    732.731    607.631    572.051    572.051
124.770    789.000    764.557     24.443    573.131    729.605    608.133    573.131    573.131
124.870    816.000    760.085     55.915    574.223    725.899    608.458    574.223    574.223
124.970    784.000    754.943     29.057    575.327    721.695    608.622    575.327    575.327
