neutron_powder_diffraction_0237
R_wp: 3.973
Temperature (K): 1016.030
Counts: 84020.00
Wavelength (Ã…): 2.52098
COMMENTS
Test file for demonstrating the .xyy file format in Reel1.0
END OF HEADER
   tth       Y_obs     Y_calc      Y_res    Background    Phase_1_Nuc    Phase_1_Mag    Phase_2_Nuc    Phase_2_Mag
  9.970    632.000    568.458     63.542    567.847    568.406    567.847    567.899    567.847
 10.070    610.000    568.679     41.321    568.004    568.626    568.004    568.056    568.004
 10.170    599.000    568.892     30.108    568.155    568.839    568.155    568.207    568.155
 10.270    573.803    569.101      4.702    568.298    569.048    568.298    568.351    568.298
 10.370    535.482    569.314    -33.832    568.436    569.261    568.436    568.489    568.436
 10.470    593.000    569.534     23.466    568.567    569.480    568.567    568.620    568.567
 10.570    563.633    569.763     -6.129    568.691    569.709    568.691    568.744    568.691
 10.670    567.000    570.006     -3.006    568.809    569.951    568.809    568.863    568.809
 10.770    584.000    570.272     13.728    568.920    570.213    568.920    568.979    568.920
 10.870    583.000    570.564     12.436    569.026    570.502    569.026    569.087    569.026
 10.970    588.000    570.890     17.110    569.125    570.828    569.125    569.187    569.125
 11.070    565.353    571.270     -5.917    569.218    571.207    569.218    569.280    569.218
 11.170    608.933    571.723     37.210    569.305    571.660    569.305    569.367    569.305
 11.270    571.119    572.285     -1.167    569.385    572.221    569.385    569.448    569.385
 11.370    614.000    573.012     40.988    569.460    572.947    569.460    569.523    569.460
 11.470    557.000    574.021    -17.021    569.529    573.956    569.529    569.592    569.529
 11.570    593.000    575.645     17.355    569.592    575.578    569.592    569.656    569.592
 11.670    623.000    578.880     44.120    569.649    578.811    569.649    569.713    569.649
 11.770    591.000    586.245      4.755    569.701    586.171    569.701    569.765    569.701
 11.870    622.000    602.236     19.764    569.746    602.154    569.746    569.811    569.746
 11.970    640.224    631.075      9.149    569.786    630.977    569.786    569.851    569.786
 12.070    700.000    670.194     29.806    569.821    670.074    569.821    569.886    569.821
 12.170    673.404    703.463    -30.059    569.849    703.323    569.849    569.916    569.849
 12.270    682.332    708.015    -25.683    569.873    707.869    569.873    569.942    569.873
 12.370    641.216    679.702    -38.486    569.891    679.571    569.891    569.961    569.891
 12.470    601.000    639.701    -38.701    569.903    639.591    569.903    569.975    569.903
 12.570    561.629    607.699    -46.070    569.910    607.607    569.910    569.982    569.910
 12.670    574.000    589.034    -15.034    569.912    588.951    569.912    569.985    569.912
 12.770    576.282    580.248     -3.966    569.909    580.169    569.909    569.982    569.909
 12.870    606.651    576.464     30.187    569.900    576.387    569.900    569.974    569.900
 12.970    575.593    574.674      0.919    569.886    574.597    569.886    569.961    569.886
 13.070    530.476    573.626    -43.150    569.868    573.549    569.868    569.942    569.868
 13.170    547.287    572.905    -25.618    569.844    572.828    569.844    569.919    569.844
 13.270    607.000    572.366     34.634    569.815    572.289    569.815    569.890    569.815
 13.370    533.000    571.946    -38.946    569.781    571.869    569.781    569.857    569.781
 13.470    512.000    571.608    -59.608    569.743    571.531    569.743    569.819    569.743
 13.570    538.000    571.328    -33.328    569.699    571.251    569.699    569.776    569.699
 13.670    611.636    571.090     40.547    569.651    571.012    569.651    569.728    569.651
 13.770    581.816    570.882     10.934    569.598    570.804    569.598    569.676    569.598
 13.870    588.000    570.697     17.303    569.541    570.619    569.541    569.618    569.541
 13.970    522.000    570.529    -48.529    569.479    570.451    569.479    569.557    569.479
 14.070    571.000    570.373      0.627    569.412    570.294    569.412    569.490    569.412
 14.170    550.000    570.226    -20.226    569.341    570.147    569.341    569.419    569.341
 14.270    577.000    570.086      6.914    569.265    570.006    569.265    569.344    569.265
 14.370    568.550    569.950     -1.400    569.185    569.870    569.185    569.264    569.185
 14.470    577.878    569.817      8.061    569.100    569.737    569.100    569.180    569.100
 14.570    533.000    569.686    -36.686    569.011    569.606    569.011    569.092    569.011
 14.670    546.556    569.557    -23.001    568.918    569.475    568.918    568.999    568.918
 14.770    543.000    569.427    -26.427    568.821    569.346    568.821    568.902    568.821
 14.870    532.000    569.300    -37.300    568.719    569.217    568.719    568.802    568.719
 14.970    527.000    569.173    -42.173    568.613    569.088    568.613    568.698    568.613
 15.070    561.000    569.041     -8.041    568.504    568.956    568.504    568.589    568.504
 15.170    603.000    568.908     34.092    568.390    568.822    568.390    568.475    568.390
 15.270    615.347    568.773     46.574    568.272    568.687    568.272    568.358    568.272
 15.370    601.000    568.638     32.362    568.150    568.551    568.150    568.237    568.150
 15.470    607.000    568.498     38.502    568.025    568.411    568.025    568.111    568.025
 15.570    564.000    568.356     -4.356    567.895    568.269    567.895    567.982    567.895
 15.670    534.910    568.212    -33.302    567.762    568.124    567.762    567.850    567.762
 15.770    562.000    568.065     -6.065    567.625    567.976    567.625    567.713    567.625
 15.870    601.671    567.915     33.756    567.484    567.826    567.484    567.573    567.484
 15.970    507.000    567.763    -60.763    567.339    567.673    567.339    567.429    567.339
 16.070    564.411    567.607     -3.196    567.191    567.517    567.191    567.281    567.191
 16.170    572.000    567.449      4.551    567.040    567.359    567.040    567.130    567.040
 16.270    593.000    567.289     25.711    566.884    567.197    566.884    566.975    566.884
 16.370    577.000    567.125      9.875    566.726    567.033    566.726    566.817    566.726
 16.470    589.000    566.959     22.041    566.563    566.866    566.563    566.656    566.563
 16.570    538.000    566.789    -28.789    566.398    566.696    566.398    566.491    566.398
 16.670    569.000    566.617      2.383    566.229    566.524    566.229    566.322    566.229
 16.770    526.000    566.442    -40.442    566.057    566.348    566.057    566.151    566.057
 16.870    557.000    566.264     -9.264    565.881    566.170    565.881    565.976    565.881
 16.970    539.000    566.084    -27.084    565.702    565.988    565.702    565.797    565.702
 17.070    517.000    565.900    -48.900    565.520    565.804    565.520    565.616    565.520
 17.170    562.000    565.714     -3.714    565.335    565.618    565.335    565.432    565.335
 17.270    540.000    565.525    -25.525    565.147    565.428    565.147    565.244    565.147
 17.370    547.000    565.336    -18.336    564.956    565.236    564.956    565.056    564.956
 17.470    499.000    565.148    -66.148    564.761    565.042    564.761    564.867    564.761
 17.570    552.000    564.953    -12.953    564.564    564.846    564.564    564.671    564.564
 17.670    576.000    564.753     11.247    564.364    564.646    564.364    564.471    564.364
 17.770    602.000    564.551     37.449    564.161    564.443    564.161    564.269    564.161
 17.870    504.000    564.346    -60.346    563.955    564.237    563.955    564.064    563.955
 17.970    592.000    564.139     27.861    563.746    564.029    563.746    563.856    563.746
 18.070    575.000    563.930     11.070    563.534    563.819    563.534    563.645    563.534
 18.170    577.000    563.717     13.283    563.320    563.606    563.320    563.431    563.320
 18.270    520.000    563.503    -43.503    563.103    563.390    563.103    563.215    563.103
 18.370    578.703    563.285     15.417    562.883    563.173    562.883    562.996    562.883
 18.470    587.000    563.066     23.934    562.661    562.952    562.661    562.775    562.661
 18.570    556.000    562.844     -6.844    562.436    562.730    562.436    562.551    562.436
 18.670    547.000    562.620    -15.620    562.209    562.505    562.209    562.324    562.209
 18.770    525.893    562.394    -36.501    561.979    562.278    561.979    562.095    561.979
 18.870    559.000    562.166     -3.166    561.747    562.048    561.747    561.864    561.747
 18.970    561.000    561.935     -0.935    561.512    561.817    561.512    561.630    561.512
 19.070    578.000    561.702     16.298    561.275    561.583    561.275    561.394    561.275
 19.170    603.532    561.467     42.064    561.035    561.348    561.035    561.155    561.035
 19.270    597.000    561.231     35.769    560.793    561.110    560.793    560.914    560.793
 19.370    550.399    560.994    -10.596    560.549    560.872    560.549    560.671    560.549
 19.470    545.000    560.754    -15.754    560.303    560.631    560.303    560.426    560.303
 19.570    593.497    560.511     32.986    560.054    560.387    560.054    560.178    560.054
 19.670    566.000    560.267      5.733    559.804    560.142    559.804    559.929    559.804
 19.770    533.000    560.021    -27.021    559.551    559.895    559.551    559.677    559.551
 19.870    533.000    559.774    -26.774    559.296    559.647    559.296    559.423    559.296
 19.970    573.000    559.531     13.469    559.039    559.403    559.039    559.167    559.039
 20.070    545.636    559.297    -13.660    558.780    559.167    558.780    558.909    558.780
 20.170    534.000    559.046    -25.046    558.519    558.915    558.519    558.650    558.519
 20.270    544.000    558.792    -14.792    558.256    558.660    558.256    558.388    558.256
 20.370    606.276    558.536     47.740    557.992    558.404    557.992    558.124    557.992
 20.470    566.717    558.280      8.437    557.725    558.146    557.725    557.859    557.725
 20.570    537.523    558.022    -20.499    557.456    557.886    557.456    557.592    557.456
 20.670    574.000    557.763     16.237    557.186    557.626    557.186    557.323    557.186
 20.770    529.000    557.502    -28.502    556.914    557.364    556.914    557.052    556.914
 20.870    541.000    557.241    -16.241    556.640    557.102    556.640    556.780    556.640
 20.970    557.000    556.979      0.021    556.365    556.838    556.365    556.506    556.365
 21.070    571.000    556.716     14.284    556.088    556.573    556.088    556.230    556.088
 21.170    595.000    556.452     38.548    555.809    556.308    555.809    555.953    555.809
 21.270    528.000    556.187    -28.187    555.529    556.042    555.529    555.674    555.529
 21.370    560.000    555.922      4.078    555.247    555.775    555.247    555.394    555.247
 21.470    561.000    555.657      5.343    554.963    555.508    554.963    555.112    554.963
 21.570    585.924    555.391     30.533    554.678    555.241    554.678    554.829    554.678
 21.670    571.529    555.125     16.404    554.392    554.973    554.392    554.544    554.392
 21.770    579.000    554.861     24.139    554.104    554.706    554.104    554.259    554.104
 21.870    578.000    554.598     23.402    553.815    554.439    553.815    553.974    553.815
 21.970    543.000    554.334    -11.334    553.524    554.173    553.524    553.686    553.524
 22.070    552.000    554.083     -2.083    553.233    553.920    553.233    553.396    553.233
 22.170    544.702    553.858     -9.156    552.939    553.693    552.939    553.105    552.939
 22.270    570.796    553.602     17.194    552.645    553.434    552.645    552.812    552.645
 22.370    569.000    553.359     15.641    552.349    553.190    552.349    552.519    552.349
 22.470    505.740    553.197    -47.457    552.052    553.025    552.052    552.224    552.052
 22.570    557.000    552.954      4.046    551.754    552.780    551.754    551.928    551.754
 22.670    581.000    552.705     28.295    551.455    552.528    551.455    551.631    551.455
 22.770    540.366    552.463    -12.097    551.155    552.284    551.155    551.334    551.155
 22.870    555.000    552.254      2.746    550.853    552.072    550.853    551.035    550.853
 22.970    498.000    552.056    -54.056    550.551    551.872    550.551    550.735    550.551
 23.070    592.276    551.839     40.437    550.247    551.652    550.247    550.434    550.247
 23.170    484.000    551.632    -67.632    549.943    551.442    549.943    550.133    549.943
 23.270    594.000    551.437     42.563    549.637    551.245    549.637    549.830    549.637
 23.370    537.000    551.261    -14.261    549.331    551.066    549.331    549.527    549.331
 23.470    550.000    551.110     -1.110    549.023    550.911    549.023    549.223    549.023
 23.570    528.920    550.991    -22.071    548.715    550.789    548.715    548.918    548.715
 23.670    552.127    550.916      1.211    548.406    550.711    548.406    548.613    548.406
 23.770    574.000    550.901     23.099    548.096    550.693    548.096    548.306    548.096
 23.870    544.000    550.972     -6.972    547.786    550.760    547.786    548.000    547.786
 23.970    578.622    551.173     27.448    547.474    550.957    547.474    547.692    547.474
 24.070    587.000    551.608     35.392    547.162    551.388    547.162    547.384    547.162
 24.170    568.000    552.568     15.432    546.849    552.345    546.849    547.076    546.849
 24.270    564.213    554.873      9.340    546.536    554.647    546.536    546.767    546.536
 24.370    572.000    560.361     11.639    546.222    560.134    546.222    546.458    546.222
 24.470    572.000    571.862      0.138    545.907    571.638    545.907    546.148    545.907
 24.570    618.000    591.363     26.637    545.592    591.148    545.592    545.839    545.592
 24.670    650.000    616.049     33.951    545.276    615.847    545.276    545.528    545.276
 24.770    580.000    635.078    -55.078    544.959    634.884    544.959    545.218    544.959
 24.870    634.000    635.336     -1.336    544.642    635.136    544.642    544.907    544.642
 24.970    643.000    616.365     26.635    544.325    616.145    544.325    544.597    544.325
 25.070    593.000    591.073      1.927    544.007    590.828    544.007    544.286    544.007
 25.170    579.000    570.683      8.317    543.689    570.414    543.689    543.975    543.689
 25.270    549.000    558.331     -9.331    543.370    558.045    543.370    543.665    543.370
 25.370    558.000    552.147      5.853    543.051    551.849    543.051    543.354    543.051
 25.470    544.583    549.261     -4.678    542.731    548.951    542.731    543.044    542.731
 25.570    514.600    547.768    -33.167    542.411    547.447    542.411    542.734    542.411
 25.670    584.057    546.830     37.227    542.091    546.498    542.091    542.424    542.091
 25.770    553.000    546.128      6.872    541.771    545.784    541.771    542.115    541.771
 25.870    536.870    545.567     -8.697    541.450    545.212    541.450    541.807    541.450
 25.970    552.102    545.107      6.994    541.129    544.738    541.129    541.499    541.129
 26.070    574.000    544.729     29.271    540.808    544.345    540.808    541.192    540.808
 26.170    536.000    544.411     -8.411    540.487    544.012    540.487    540.886    540.487
 26.270    569.876    544.142     25.734    540.165    543.726    540.165    540.581    540.165
 26.370    527.202    543.922    -16.720    539.844    543.488    539.844    540.278    539.844
 26.470    530.000    543.752    -13.752    539.522    543.298    539.522    539.976    539.522
 26.570    496.522    543.633    -47.111    539.200    543.158    539.200    539.675    539.200
 26.670    556.000    543.572     12.428    538.878    543.073    538.878    539.377    538.878
 26.770    557.079    543.577     13.502    538.556    543.053    538.556    539.081    538.556
 26.870    560.672    543.681     16.992    538.234    543.127    538.234    538.788    538.234
 26.970    518.202    543.911    -25.709    537.912    543.325    537.912    538.497    537.912
 27.070    553.000    544.219      8.781    537.591    543.598    537.591    538.211    537.591
 27.170    508.788    544.684    -35.897    537.269    544.024    537.269    537.928    537.269
 27.270    573.693    545.366     28.327    536.947    544.662    536.947    537.650    536.947
 27.370    535.000    546.353    -11.353    536.625    545.598    536.625    537.378    536.625
 27.470    547.121    547.803     -0.682    536.304    546.992    536.304    537.113    536.304
 27.570    563.074    550.100     12.974    535.982    549.225    535.982    536.855    535.982
 27.670    578.000    554.563     23.437    535.661    553.613    535.661    536.607    535.661
 27.770    585.293    565.568     19.725    535.340    564.531    535.340    536.370    535.340
 27.870    628.001    593.959     34.042    535.019    592.814    535.019    536.147    535.019
 27.970    680.000    656.856     23.144    534.698    655.576    534.698    535.940    534.698
 28.070    775.758    763.053     12.705    534.378    761.608    534.378    535.754    534.378
 28.170    883.322    885.999     -2.677    534.058    884.367    534.058    535.593    534.058
 28.270    969.000    955.331     13.669    533.738    953.509    533.738    535.465    533.738
 28.370    929.000    917.354     11.646    533.418    915.332    533.418    535.379    533.418
 28.470    766.758    812.797    -46.039    533.099    810.522    533.099    535.348    533.099
 28.570    680.000    722.938    -42.938    532.780    720.314    532.780    535.394    532.780
 28.670    692.040    696.810     -4.771    532.462    693.706    532.462    535.555    532.462
 28.770    722.000    736.082    -14.082    532.143    732.313    532.143    535.893    532.143
 28.870    813.000    804.844      8.156    531.826    800.126    531.826    536.518    531.826
 28.970    844.228    843.945      0.283    531.508    837.829    531.508    537.608    531.508
 29.070    790.000    813.073    -23.073    531.191    804.856    531.191    539.410    531.191
 29.170    681.000    736.219    -55.219    530.875    724.888    530.875    542.219    530.875
 29.270    653.254    660.891     -7.637    530.559    645.168    530.559    546.295    530.559
 29.370    616.749    612.380      4.370    530.244    590.933    530.244    551.697    530.244
 29.470    649.000    590.508     58.492    529.929    562.448    529.929    557.991    529.929
 29.570    541.547    583.896    -42.349    529.614    549.705    529.614    563.803    529.614
 29.670    620.000    581.585     38.415    529.301    544.054    529.301    566.829    529.301
 29.770    578.865    577.482      1.383    528.987    541.102    528.987    565.364    528.987
 29.870    539.000    570.625    -31.625    528.675    539.222    528.675    560.075    528.675
 29.970    604.000    562.743     41.257    528.363    537.899    528.363    553.204    528.363
 30.070    558.000    555.554      2.446    528.051    536.968    528.051    546.635    528.051
 30.170    556.000    549.882      6.118    527.740    536.384    527.740    541.236    527.740
 30.270    561.000    545.968     15.032    527.430    536.228    527.430    537.167    527.430
 30.370    582.000    544.010     37.990    527.121    536.877    527.121    534.249    527.121
 30.470    541.940    544.754     -2.814    526.812    539.365    526.812    532.195    526.812
 30.570    560.850    549.944     10.906    526.504    545.710    526.504    530.726    526.504
 30.670    585.780    561.767     24.013    526.197    558.314    526.197    529.629    526.197
 30.770    594.000    580.480     13.520    525.890    577.574    525.890    528.761    525.890
 30.870    615.000    601.021     13.979    525.584    598.519    525.584    528.037    525.584
 30.970    634.000    612.161     21.839    525.279    609.978    525.279    527.408    525.279
 31.070    571.559    605.168    -33.609    524.975    603.251    524.975    526.845    524.975
 31.170    590.000    585.163      4.837    524.672    583.472    524.672    526.331    524.672
 31.270    548.000    563.644    -15.644    524.369    562.140    524.369    525.855    524.369
 31.370    499.000    547.727    -48.727    524.067    546.377    524.067    525.408    524.067
 31.470    504.251    538.490    -34.240    523.766    537.267    523.766    524.985    523.766
 31.570    586.000    533.909     52.091    523.466    532.792    523.466    524.581    523.466
 31.670    559.000    531.719     27.281    523.167    530.691    523.167    524.193    523.167
 31.770    506.179    530.548    -24.369    522.869    529.597    522.869    523.818    522.869
 31.870    496.505    529.800    -33.295    522.572    528.916    522.572    523.454    522.572
 31.970    535.000    529.266      5.734    522.275    528.440    522.275    523.100    522.275
 32.070    518.000    528.876    -10.876    521.980    528.101    521.980    522.753    521.980
 32.170    556.127    528.602     27.525    521.685    527.872    521.685    522.414    521.685
 32.270    535.000    528.435      6.565    521.392    527.745    521.392    522.081    521.392
 32.370    552.000    528.374     23.626    521.099    527.719    521.099    521.753    521.099
 32.470    563.000    528.425     34.575    520.807    527.802    520.807    521.430    520.807
 32.570    550.000    528.607     21.393    520.517    528.012    520.517    521.111    520.517
 32.670    511.557    528.933    -17.376    520.227    528.363    520.227    520.796    520.227
 32.770    546.303    529.442     16.861    519.939    528.894    519.939    520.485    519.939
 32.870    563.000    530.184     32.816    519.651    529.657    519.651    520.177    519.651
 32.970    553.000    531.234     21.766    519.365    530.726    519.365    519.872    519.365
 33.070    548.000    532.706     15.294    519.080    532.215    519.080    519.570    519.080
 33.170    569.817    534.800     35.016    518.796    534.324    518.796    519.271    518.796
 33.270    522.000    537.963    -15.963    518.513    537.500    518.513    518.974    518.513
 33.370    589.000    543.409     45.591    518.231    542.958    518.231    518.679    518.231
 33.470    565.000    554.417     10.583    517.950    553.975    517.950    518.386    517.950
 33.570    624.000    578.388     45.612    517.670    577.951    517.670    518.096    517.670
 33.670    663.000    627.781     35.219    517.392    627.343    517.392    517.808    517.392
 33.770    709.000    715.377     -6.377    517.114    714.933    517.114    517.522    517.114
 33.870    839.324    840.991     -1.667    516.838    840.537    516.838    517.238    516.838
 33.970   1026.000    974.696     51.304    516.563    974.238    516.563    516.955    516.563
 34.070   1110.177   1053.418     56.760    516.289   1052.974    516.289    516.675    516.289
 34.170   1057.000   1025.370     31.630    516.016   1024.958    516.016    516.396    516.016
 34.270    858.531    911.396    -52.865    515.745    911.014    515.745    516.119    515.745
 34.370    822.047    776.030     46.016    515.475    775.666    515.475    515.843    515.475
 34.470    643.000    667.030    -24.030    515.206    666.673    515.206    515.570    515.206
 34.570    568.000    598.269    -30.269    514.938    597.913    514.938    515.298    514.938
 34.670    575.498    561.905     13.593    514.672    561.551    514.672    515.027    514.672
 34.770    582.000    544.486     37.514    514.407    544.134    514.407    514.759    514.407
 34.870    519.000    535.972    -16.972    514.143    535.623    514.143    514.492    514.143
 34.970    523.000    531.174     -8.174    513.880    530.828    513.880    514.226    513.880
 35.070    528.000    527.971      0.029    513.619    527.627    513.619    513.962    513.619
 35.170    525.000    525.586     -0.586    513.359    525.245    513.359    513.700    513.359
 35.270    502.000    523.709    -21.709    513.101    523.370    513.101    513.439    513.101
 35.370    545.057    522.187     22.870    512.844    521.850    512.844    513.180    512.844
 35.470    500.000    520.925    -20.925    512.588    520.590    512.588    512.922    512.588
 35.570    474.000    519.858    -45.858    512.333    519.524    512.333    512.666    512.333
 35.670    501.000    518.941    -17.941    512.080    518.609    512.080    512.412    512.080
 35.770    478.527    518.142    -39.615    511.828    517.810    511.828    512.159    511.828
 35.870    512.564    517.436     -4.872    511.578    517.106    511.578    511.908    511.578
 35.970    508.000    516.807     -8.807    511.329    516.477    511.329    511.658    511.329
 36.070    503.000    516.240    -13.240    511.081    515.911    511.081    511.410    511.081
 36.170    536.000    515.727     20.273    510.835    515.398    510.835    511.163    510.835
 36.270    496.000    515.258    -19.258    510.590    514.930    510.590    510.918    510.590
 36.370    504.884    514.830     -9.946    510.346    514.501    510.346    510.675    510.346
 36.470    473.085    514.438    -41.353    510.104    514.109    510.104    510.433    510.104
 36.570    514.982    514.080      0.902    509.864    513.752    509.864    510.192    509.864
 36.670    533.000    513.758     19.242    509.625    513.429    509.625    509.953    509.625
 36.770    493.542    513.475    -19.932    509.387    513.145    509.387    509.716    509.387
 36.870    495.000    513.244    -18.244    509.151    512.914    509.151    509.481    509.151
 36.970    518.776    513.105      5.671    508.916    512.775    508.916    509.247    508.916
 37.070    477.598    513.155    -35.557    508.683    512.824    508.683    509.014    508.683
 37.170    495.000    513.594    -18.594    508.451    513.262    508.451    508.783    508.451
 37.270    506.000    514.737     -8.737    508.221    514.404    508.221    508.554    508.221
 37.370    508.000    516.900     -8.900    507.992    516.567    507.992    508.326    507.992
 37.470    553.993    520.129     33.864    507.765    519.795    507.765    508.100    507.765
 37.570    534.000    523.838     10.162    507.539    523.504    507.539    507.876    507.539
 37.670    514.000    526.670    -12.670    507.315    526.335    507.315    507.653    507.315
 37.770    529.000    527.139      1.861    507.092    526.805    507.092    507.432    507.092
 37.870    559.592    525.008     34.585    506.871    524.674    506.871    507.213    506.871
 37.970    525.000    521.496      3.504    506.651    521.163    506.651    506.995    506.651
 38.070    531.000    517.892     13.108    506.433    517.558    506.433    506.778    506.433
 38.170    549.162    514.821     34.341    506.217    514.484    506.217    506.564    506.217
 38.270    502.000    512.493    -10.493    506.002    512.152    506.002    506.351    506.002
 38.370    502.000    510.876     -8.876    505.788    510.530    505.788    506.140    505.788
 38.470    500.649    509.804     -9.155    505.576    509.454    505.576    505.930    505.576
 38.570    508.000    509.098     -1.098    505.366    508.743    505.366    505.722    505.366
 38.670    478.000    508.612    -30.612    505.157    508.254    505.157    505.516    505.157
 38.770    478.425    508.248    -29.823    504.950    507.887    504.950    505.311    504.950
 38.870    521.000    507.948     13.052    504.745    507.585    504.745    505.108    504.745
 38.970    502.000    507.684     -5.684    504.541    507.318    504.541    504.907    504.541
 39.070    516.352    507.441      8.911    504.338    507.072    504.338    504.708    504.338
 39.170    524.646    507.214     17.432    504.138    506.842    504.138    504.510    504.138
 39.270    468.000    506.999    -38.999    503.938    506.623    503.938    504.314    503.938
 39.370    506.273    506.794     -0.521    503.741    506.415    503.741    504.120    503.741
 39.470    436.000    506.599    -70.599    503.545    506.217    503.545    503.927    503.545
 39.570    528.126    506.412     21.715    503.351    506.026    503.351    503.736    503.351
 39.670    470.000    506.233    -36.233    503.158    505.844    503.158    503.547    503.158
 39.770    469.981    506.062    -36.081    502.967    505.669    502.967    503.360    502.967
 39.870    512.869    505.898      6.971    502.777    505.502    502.777    503.174    502.777
 39.970    491.000    505.742    -14.742    502.590    505.342    502.590    502.990    502.590
 40.070    488.000    505.594    -17.594    502.403    505.190    502.403    502.808    502.403
 40.170    517.050    505.454     11.596    502.219    505.046    502.219    502.628    502.219
 40.270    523.000    505.323     17.677    502.036    504.910    502.036    502.449    502.036
 40.370    466.000    505.202    -39.202    501.855    504.784    501.855    502.272    501.855
 40.470    520.748    505.090     15.657    501.675    504.668    501.675    502.097    501.675
 40.570    512.000    504.991      7.009    501.497    504.564    501.497    501.924    501.497
 40.670    527.000    504.904     22.096    501.321    504.472    501.321    501.753    501.321
 40.770    542.585    504.832     37.753    501.146    504.395    501.146    501.583    501.146
 40.870    460.000    504.778    -44.778    500.973    504.336    500.973    501.416    500.973
 40.970    521.000    504.744     16.256    500.802    504.297    500.802    501.250    500.802
 41.070    485.442    504.735    -19.293    500.632    504.282    500.632    501.086    500.632
 41.170    456.000    504.756    -48.756    500.464    504.297    500.464    500.924    500.464
 41.270    471.000    504.814    -33.814    500.298    504.349    500.298    500.763    500.298
 41.370    502.178    504.919     -2.741    500.133    504.449    500.133    500.605    500.133
 41.470    477.118    505.085    -27.967    499.970    504.608    499.970    500.448    499.970
 41.570    540.855    505.333     35.522    499.809    504.850    499.809    500.294    499.809
 41.670    496.316    505.699     -9.383    499.650    505.209    499.650    500.141    499.650
 41.770    471.000    506.262    -35.262    499.492    505.766    499.492    499.990    499.492
 41.870    490.000    507.210    -17.210    499.335    506.707    499.335    499.841    499.335
 41.970    513.462    508.989      4.473    499.181    508.479    499.181    499.694    499.181
 42.070    531.000    512.532     18.468    499.028    512.016    499.028    499.549    499.028
 42.170    533.000    519.432     13.568    498.877    518.911    498.877    499.406    498.877
 42.270    571.024    531.718     39.306    498.727    531.194    498.727    499.265    498.727
 42.370    548.000    550.855     -2.855    498.580    550.331    498.580    499.126    498.580
 42.470    539.000    576.002    -37.002    498.433    575.482    498.433    498.988    498.433
 42.570    622.215    602.256     19.959    498.289    601.742    498.289    498.853    498.289
 42.670    608.807    620.487    -11.680    498.146    619.974    498.146    498.720    498.146
 42.770    625.135    621.784      3.351    498.005    621.266    498.005    498.589    498.005
 42.870    533.000    605.317    -72.317    497.866    604.782    497.866    498.460    497.866
 42.970    554.000    579.317    -25.317    497.728    578.758    497.728    498.334    497.728
 43.070    508.955    553.377    -44.422    497.592    552.793    497.592    498.209    497.592
 43.170    449.000    533.066    -84.066    497.458    532.458    497.458    498.086    497.458
 43.270    475.316    519.696    -44.380    497.325    519.067    497.325    497.966    497.325
 43.370    514.000    511.997      2.003    497.194    511.350    497.194    497.848    497.194
 43.470    483.000    507.927    -24.927    497.065    507.264    497.065    497.732    497.065
 43.570    521.569    505.798     15.771    496.938    505.121    496.938    497.618    496.938
 43.670    524.307    504.592     19.714    496.812    503.900    496.812    497.507    496.812
 43.770    481.000    503.812    -22.812    496.688    503.104    496.688    497.398    496.688
 43.870    517.325    503.247     14.079    496.565    502.522    496.565    497.291    496.565
 43.970    533.000    502.808     30.192    496.445    502.067    496.445    497.187    496.445
 44.070    497.000    502.457     -5.457    496.326    501.699    496.326    497.085    496.326
 44.170    455.000    502.172    -47.172    496.208    501.395    496.208    496.986    496.208
 44.270    488.000    501.938    -13.938    496.093    501.142    496.093    496.889    496.093
 44.370    478.776    501.746    -22.970    495.979    500.930    495.979    496.795    495.979
 44.470    507.000    501.588      5.412    495.866    500.751    495.866    496.704    495.866
 44.570    531.000    501.460     29.540    495.756    500.600    495.756    496.615    495.756
 44.670    518.000    501.357     16.643    495.647    500.474    495.647    496.530    495.647
 44.770    500.000    501.276     -1.276    495.539    500.368    495.539    496.447    495.539
 44.870    522.000    501.215     20.785    495.434    500.282    495.434    496.367    495.434
 44.970    488.927    501.173    -12.246    495.330    500.212    495.330    496.291    495.330
 45.070    516.000    501.150     14.850    495.228    500.160    495.228    496.218    495.228
 45.170    543.000    501.143     41.857    495.127    500.122    495.127    496.148    495.127
 45.270    502.090    501.154      0.936    495.028    500.100    495.028    496.082    495.028
 45.370    483.087    501.182    -18.094    494.931    500.093    494.931    496.020    494.931
 45.470    483.000    501.227    -18.227    494.836    500.101    494.836    495.961    494.836
 45.570    464.402    501.291    -36.889    494.742    500.125    494.742    495.907    494.742
 45.670    479.376    501.373    -21.997    494.650    500.165    494.650    495.857    494.650
 45.770    476.000    501.477    -25.477    494.559    500.223    494.559    495.812    494.559
 45.870    520.000    501.602     18.398    494.470    500.300    494.470    495.772    494.470
 45.970    507.000    501.752      5.248    494.383    500.397    494.383    495.737    494.383
 46.070    460.000    501.929    -41.929    494.298    500.518    494.298    495.708    494.298
 46.170    471.890    502.136    -30.247    494.214    500.664    494.214    495.686    494.214
 46.270    515.132    502.379     12.754    494.131    500.840    494.131    495.669    494.131
 46.370    516.000    502.661     13.339    494.051    501.050    494.051    495.661    494.051
 46.470    488.000    502.990    -14.990    493.972    501.302    493.972    495.660    493.972
 46.570    497.000    503.377     -6.377    493.895    501.602    493.895    495.668    493.895
 46.670    538.000    503.833     34.167    493.819    501.965    493.819    495.686    493.819
 46.770    458.619    504.382    -45.764    493.745    502.412    493.745    495.714    493.745
 46.870    488.000    505.068    -17.068    493.673    502.984    493.673    495.755    493.673
 46.970    514.000    505.991      8.009    493.602    503.781    493.602    495.809    493.602
 47.070    572.000    507.368     64.632    493.533    505.019    493.533    495.879    493.533
 47.170    509.000    509.631     -0.631    493.465    507.125    493.465    495.967    493.465
 47.270    542.768    513.510     29.258    493.399    510.827    493.399    496.074    493.399
 47.370    506.000    519.994    -13.994    493.335    517.111    493.335    496.205    493.335
 47.470    545.000    530.011     14.989    493.272    526.901    493.272    496.364    493.272
 47.570    559.000    543.793     15.207    493.211    540.421    493.211    496.554    493.211
 47.670    592.000    560.092     31.908    493.152    556.421    493.152    496.782    493.152
 47.770    585.000    575.639      9.361    493.094    571.627    493.094    497.055    493.094
 47.870    564.000    585.560    -21.560    493.038    581.158    493.038    497.383    493.038
 47.970    561.000    585.965    -24.965    492.983    581.116    492.983    497.779    492.983
 48.070    620.000    577.250     42.750    492.930    571.877    492.930    498.258    492.930
 48.170    582.000    563.738     18.262    492.878    557.734    492.878    498.848    492.878
 48.270    545.000    550.221     -5.221    492.829    543.439    492.829    499.587    492.829
 48.370    506.966    539.784    -32.818    492.780    532.008    492.780    500.541    492.780
 48.470    572.799    533.588     39.211    492.733    524.491    492.733    501.821    492.733
 48.570    515.000    531.501    -16.501    492.688    520.575    492.688    503.608    492.688
 48.670    524.000    532.915     -8.915    492.645    519.365    492.645    506.190    492.645
 48.770    549.000    537.368     11.632    492.603    519.985    492.603    509.982    492.603
 48.870    565.000    544.825     20.175    492.562    521.860    492.562    515.522    492.562
 48.970    552.000    555.650     -3.650    492.523    524.757    492.523    523.410    492.523
 49.070    555.967    570.434    -14.467    492.486    528.747    492.486    534.165    492.486
 49.170    626.519    589.856     36.663    492.450    534.300    492.450    547.996    492.450
 49.270    638.000    614.839     23.161    492.415    542.749    492.415    564.492    492.415
 49.370    641.000    647.402     -6.402    492.382    557.552    492.382    582.214    492.382
 49.470    677.554    692.764    -15.211    492.351    586.790    492.351    598.295    492.351
 49.570    762.000    763.002     -1.002    492.321    646.612    492.321    608.661    492.321
 49.670    900.000    880.759     19.241    492.293    763.192    492.293    609.777    492.293
 49.770   1130.000   1077.123     52.877    492.266    968.076    492.266    601.187    492.266
 49.870   1398.395   1375.977     22.418    492.241   1282.124    492.241    585.928    492.241
 49.970   1809.000   1766.495     42.505    492.217   1690.327    492.217    568.206    492.217
 50.070   2147.324   2179.901    -32.577    492.195   2120.725    492.195    551.229    492.195
 50.170   2454.700   2491.800    -37.100    492.174   2447.210    492.174    536.720    492.174
 50.270   2547.000   2571.408    -24.408    492.155   2538.376    492.155    525.270    492.155
 50.370   2373.000   2374.663     -1.663    492.137   2350.204    492.137    516.772    492.137
 50.470   1988.124   1987.731      0.392    492.120   1969.309    492.120    510.749    492.120
 50.570   1571.000   1551.696     19.304    492.105   1537.381    492.105    506.605    492.105
 50.670   1163.811   1176.285    -12.474    492.092   1164.739    492.092    503.778    492.092
 50.770    943.488    910.737     32.751    492.080    901.088    492.080    501.823    492.080
 50.870    722.000    752.502    -30.502    492.069    744.207    492.069    500.427    492.069
 50.970    644.000    671.791    -27.791    492.060    664.508    492.060    499.389    492.060
 51.070    618.000    634.598    -16.598    492.052    628.105    492.052    498.584    492.052
 51.170    623.000    615.205      7.795    492.046    609.346    492.046    497.941    492.046
 51.270    594.000    599.620     -5.620    492.041    594.278    492.041    497.414    492.041
 51.370    611.000    583.671     27.329    492.037    578.757    492.037    496.977    492.037
 51.470    585.000    568.119     16.881    492.035    563.562    492.035    496.611    492.035
 51.570    580.059    554.640     25.420    492.034    550.385    492.034    496.303    492.034
 51.670    542.000    544.247     -2.247    492.035    540.250    492.035    496.042    492.035
 51.770    503.837    537.063    -33.226    492.037    533.284    492.037    495.821    492.037
 51.870    569.000    532.587     36.413    492.040    528.997    492.040    495.635    492.040
 51.970    509.975    530.110    -20.135    492.045    526.681    492.045    495.477    492.045
 52.070    553.000    529.017     23.983    492.051    525.727    492.051    495.344    492.051
 52.170    536.000    528.926      7.074    492.059    525.754    492.059    495.233    492.059
 52.270    564.000    529.699     34.301    492.068    526.628    492.068    495.141    492.068
 52.370    525.000    531.443     -6.443    492.078    528.457    492.078    495.066    492.078
 52.470    547.000    534.609     12.391    492.089    531.693    492.089    495.006    492.089
 52.570    561.000    540.263     20.737    492.102    537.406    492.102    494.960    492.102
 52.670    523.000    550.566    -27.566    492.116    547.756    492.116    494.926    492.116
 52.770    608.940    569.335     39.605    492.132    566.562    492.132    494.904    492.132
 52.870    563.922    602.286    -38.364    492.149    599.539    492.149    494.892    492.149
 52.970    671.856    656.273     15.584    492.167    653.544    492.167    494.890    492.167
 53.070    771.000    736.901     34.099    492.186    734.183    492.186    494.898    492.186
 53.170    896.000    844.615     51.385    492.207    841.902    492.207    494.915    492.207
 53.270   1033.808    970.408     63.400    492.228    967.697    492.228    494.939    492.228
 53.370   1071.000   1093.020    -22.020    492.252   1090.308    492.252    494.973    492.252
 53.470   1170.000   1180.544    -10.544    492.276   1177.828    492.276    495.014    492.276
 53.570   1228.000   1202.027     25.973    492.302   1199.301    492.302    495.063    492.302
 53.670   1206.604   1148.376     58.228    492.329   1145.627    492.329    495.120    492.329
 53.770   1013.000   1040.753    -27.753    492.357   1037.968    492.357    495.184    492.357
 53.870    848.000    913.350    -65.350    492.386    910.517    492.386    495.256    492.386
 53.970    756.000    794.180    -38.180    492.417    791.289    492.417    495.337    492.417
 54.070    674.000    698.781    -24.781    492.448    695.824    492.448    495.425    492.448
 54.170    643.000    631.345     11.655    492.481    628.318    492.481    495.522    492.481
 54.270    557.694    588.480    -30.786    492.516    585.377    492.516    495.627    492.516
 54.370    600.000    563.538     36.462    492.551    560.353    492.551    495.741    492.551
 54.470    557.000    549.946      7.054    492.587    546.673    492.587    495.864    492.587
 54.570    607.000    542.817     64.183    492.625    539.448    492.625    495.997    492.625
 54.670    514.000    539.153    -25.153    492.664    535.678    492.664    496.140    492.664
 54.770    568.000    537.364     30.636    492.704    533.775    492.704    496.294    492.704
 54.870    548.445    536.705     11.740    492.745    532.991    492.745    496.460    492.745
 54.970    536.442    536.853     -0.411    492.787    533.003    492.787    496.638    492.787
 55.070    494.840    537.686    -42.846    492.831    533.687    492.831    496.830    492.831
 55.170    574.045    539.172     34.873    492.875    535.012    492.875    497.037    492.875
 55.270    552.000    541.338     10.662    492.921    537.001    492.921    497.259    492.921
 55.370    569.000    544.255     24.745    492.968    539.725    492.968    497.498    492.968
 55.470    561.747    548.058     13.689    493.016    543.317    493.016    497.756    493.016
 55.570    539.261    552.999    -13.738    493.064    548.028    493.064    498.036    493.064
 55.670    519.363    559.587    -40.224    493.114    554.363    493.114    498.338    493.114
 55.770    547.000    568.922    -21.922    493.166    563.421    493.166    498.665    493.166
 55.870    582.534    583.385     -0.852    493.218    577.578    493.218    499.022    493.218
 55.970    651.000    607.821     43.179    493.271    601.675    493.271    499.410    493.271
 56.070    625.000    651.110    -26.110    493.325    644.588    493.325    499.834    493.325
 56.170    753.751    727.436     26.314    493.380    720.493    493.380    500.298    493.380
 56.270    811.000    855.702    -44.702    493.436    848.289    493.436    500.809    493.436
 56.370    994.000   1055.230    -61.230    493.494   1047.292    493.494    501.372    493.494
 56.470   1299.373   1336.873    -37.501    493.552   1328.357    493.552    501.995    493.552
 56.570   1743.289   1691.331     51.959    493.611   1682.181    493.611    502.687    493.611
 56.670   1991.000   2079.003    -88.003    493.671   2069.166    493.671    503.460    493.671
 56.770   2328.000   2427.005    -99.005    493.732   2416.419    493.732    504.327    493.732
 56.870   2657.000   2642.413     14.587    493.794   2631.000    493.794    505.305    493.794
 56.970   2672.000   2652.801     19.199    493.858   2640.434    493.858    506.413    493.858
 57.070   2439.000   2454.816    -15.816    493.922   2441.309    493.922    507.678    493.922
 57.170   2253.000   2117.064    135.936    493.987   2102.178    493.987    509.134    493.987
 57.270   1807.515   1733.033     74.482    494.052   1716.492    494.052    510.827    494.052
 57.370   1391.000   1378.149     12.851    494.119   1359.625    494.119    512.829    494.119
 57.470   1125.000   1094.803     30.197    494.187   1073.877    494.187    515.245    494.187
 57.570    889.000    894.614     -5.614    494.256    870.704    494.256    518.251    494.256
 57.670    722.405    768.340    -45.935    494.325    740.588    494.325    522.127    494.325
 57.770    749.159    697.828     51.331    494.395    664.927    494.395    527.322    494.395
 57.870    713.000    665.506     47.494    494.467    625.465    494.467    534.517    494.467
 57.970    691.874    659.370     32.504    494.539    609.225    494.539    544.682    494.539
 58.070    701.270    673.999     27.271    494.612    609.515    494.612    559.084    494.612
 58.170    720.000    709.207     10.793    494.686    624.660    494.686    579.209    494.686
 58.270    775.000    767.727      7.273    494.760    655.897    494.760    606.554    494.760
 58.370    790.000    852.491    -62.491    494.836    705.004    494.836    642.274    494.836
 58.470   1010.771    964.064     46.707    494.912    772.204    494.912    686.711    494.912
 58.570   1143.000   1098.411     44.589    494.989    854.511    494.989    738.820    494.989
 58.670   1260.757   1245.353     15.404    495.067    944.872    495.067    795.480    495.067
 58.770   1376.000   1388.858    -12.858    495.145   1033.202    495.145    850.741    495.145
 58.870   1546.000   1510.370     35.630    495.225   1109.945    495.225    895.605    495.225
 58.970   1636.000   1592.670     43.330    495.305   1168.099    495.305    919.852    495.305
 59.070   1663.000   1622.104     40.896    495.386   1200.766    495.386    916.724    495.386
 59.170   1592.000   1593.088     -1.088    495.467   1201.357    495.467    887.220    495.467
 59.270   1499.164   1514.184    -15.020    495.550   1170.401    495.550    839.362    495.550
 59.370   1383.891   1407.214    -23.324    495.633   1119.517    495.633    783.351    495.633
 59.470   1247.860   1297.436    -49.577    495.717   1065.627    495.717    727.523    495.717
 59.570   1184.000   1205.806    -21.806    495.801   1024.431    495.801    677.138    495.801
 59.670   1158.000   1148.679      9.321    495.886   1009.688    495.886    634.797    495.886
 59.770   1153.546   1138.738     14.808    495.972   1033.394    495.972    601.186    495.972
 59.870   1231.000   1181.648     49.352    496.059   1101.783    496.059    575.740    496.059
 59.970   1260.355   1271.042    -10.687    496.146   1209.759    496.146    557.193    496.146
 60.070   1418.589   1386.026     32.563    496.234   1337.955    496.234    544.029    496.234
 60.170   1491.301   1492.594     -1.293    496.322   1453.825    496.322    534.800    496.322
 60.270   1583.000   1551.108     31.892    496.411   1518.941    496.411    528.305    496.411
 60.370   1585.400   1532.452     52.948    496.501   1505.084    496.501    523.644    496.501
 60.470   1446.000   1434.632     11.368    496.591   1410.865    496.591    520.196    496.591
 60.570   1306.000   1282.497     23.503    496.682   1261.516    496.682    517.559    496.682
 60.670   1129.242   1111.194     18.048    496.773   1092.422    496.773    515.486    496.773
 60.770    983.000    950.756     32.244    496.866    933.761    496.866    513.830    496.866
 60.870    824.000    819.622      4.378    496.958    804.059    496.958    512.506    496.958
 60.970    763.000    724.452     38.548    497.051    710.028    497.051    511.467    497.051
 61.070    694.316    663.358     30.958    497.145    649.811    497.145    510.683    497.145
 61.170    629.000    630.569     -1.569    497.239    617.656    497.239    510.139    497.239
 61.270    600.000    620.683    -20.683    497.334    608.177    497.334    509.820    497.334
 61.370    611.658    631.331    -19.673    497.429    619.023    497.429    509.706    497.429
 61.470    673.649    663.912      9.736    497.525    651.622    497.525    509.768    497.525
 61.570    722.000    722.512     -0.512    497.621    710.111    497.621    509.953    497.621
 61.670    840.265    811.274     28.991    497.718    798.708    497.718    510.185    497.718
 61.770    985.635    930.733     54.902    497.815    918.062    497.815    510.355    497.815
 61.870   1061.928   1074.115    -12.187    497.913   1061.525    497.913    510.343    497.913
 61.970   1196.495   1224.883    -28.388    498.011   1212.655    498.011    510.059    498.011
 62.070   1365.000   1356.871      8.129    498.110   1345.307    498.110    509.493    498.110
 62.170   1393.260   1439.091    -45.831    498.209   1428.425    498.209    508.716    498.209
 62.270   1505.046   1447.477     57.570    498.308   1437.831    498.308    507.835    498.308
 62.370   1452.152   1378.801     73.351    498.408   1370.184    498.408    506.950    498.408
 62.470   1314.000   1253.063     60.937    498.508   1245.405    498.508    506.130    498.508
 62.570   1073.000   1101.140    -28.140    498.609   1094.326    498.609    505.412    498.609
 62.670    920.000    951.151    -31.151    498.710    945.051    498.710    504.813    498.710
 62.770    811.000    821.996    -10.996    498.811    816.485    498.811    504.332    498.811
 62.870    664.000    722.344    -58.344    498.913    717.308    498.913    503.957    498.913
 62.970    641.000    652.463    -11.463    499.015    647.810    499.015    503.673    499.015
 63.070    596.085    607.464    -11.379    499.117    603.121    499.117    503.462    499.117
 63.170    584.000    580.614      3.386    499.220    576.525    499.220    503.307    499.220
 63.270    570.000    565.712      4.288    499.323    561.836    499.323    503.195    499.323
 63.370    577.000    558.243     18.757    499.426    554.550    499.426    503.114    499.426
 63.470    621.000    555.590     65.410    499.530    552.056    499.530    503.057    499.530
 63.570    588.000    556.799     31.201    499.633    553.406    499.633    503.018    499.633
 63.670    558.000    562.268     -4.268    499.738    558.999    499.738    502.994    499.738
 63.770    602.394    573.478     28.916    499.842    570.320    499.842    502.982    499.842
 63.870    556.586    592.698    -36.112    499.947    589.637    499.947    502.980    499.947
 63.970    580.191    622.501    -42.310    500.051    619.524    500.051    502.988    500.051
 64.070    711.000    664.972     46.028    500.156    662.069    500.156    503.003    500.156
 64.170    724.607    720.645      3.962    500.262    717.805    500.262    503.026    500.262
 64.270    818.000    787.368     30.632    500.367    784.583    500.367    503.056    500.367
 64.370    866.000    859.427      6.573    500.473    856.694    500.473    503.091    500.473
 64.470    963.000    927.382     35.618    500.579    924.703    500.579    503.132    500.579
 64.570   1027.995    979.493     48.502    500.685    976.873    500.685    503.178    500.685
 64.670    970.563   1005.484    -34.920    500.791   1002.930    500.791    503.229    500.791
 64.770   1005.936   1000.904      5.032    500.897    998.422    500.897    503.284    500.897
 64.870    946.728    968.544    -21.817    501.004    966.135    501.004    503.343    501.004
 64.970    955.000    916.538     38.462    501.110    914.200    501.110    503.406    501.110
 65.070    847.000    855.313     -8.313    501.217    853.038    501.217    503.473    501.217
 65.170    833.180    794.331     38.849    501.324    792.112    501.324    503.543    501.324
 65.270    756.000    739.776     16.224    501.431    737.604    501.431    503.616    501.431
 65.370    691.349    694.150     -2.801    501.537    692.017    501.537    503.693    501.537
 65.470    652.729    657.380     -4.651    501.644    655.277    501.644    503.772    501.644
 65.570    592.000    628.326    -36.326    501.752    626.247    501.752    503.854    501.752
 65.670    571.686    605.710    -34.024    501.859    603.648    501.859    503.939    501.859
 65.770    581.000    588.391     -7.391    501.966    586.345    501.966    504.027    501.966
 65.870    541.000    575.414    -34.414    502.073    573.380    502.073    504.117    502.073
 65.970    572.000    566.006      5.994    502.180    563.982    502.180    504.209    502.180
 66.070    527.457    559.548    -32.091    502.288    557.534    502.288    504.304    502.288
 66.170    550.296    555.530     -5.234    502.395    553.524    502.395    504.401    502.395
 66.270    525.000    553.517    -28.517    502.502    551.518    502.502    504.500    502.502
 66.370    525.227    553.157    -27.930    502.609    551.164    502.609    504.602    502.609
 66.470    516.926    554.210    -37.284    502.716    552.220    502.716    504.706    502.716
 66.570    515.837    556.604    -40.767    502.823    554.615    502.823    504.812    502.823
 66.670    577.000    560.521     16.479    502.930    558.531    502.930    504.920    502.930
 66.770    588.770    566.558     22.213    503.037    564.564    503.037    505.031    503.037
 66.870    559.000    576.005    -17.005    503.144    574.005    503.144    505.143    503.144
 66.970    541.000    591.279    -50.279    503.251    589.269    503.251    505.258    503.251
 67.070    620.123    616.467      3.656    503.358    614.443    503.358    505.376    503.358
 67.170    637.000    657.820    -20.820    503.464    655.777    503.464    505.495    503.464
 67.270    739.000    723.845     15.155    503.571    721.781    503.571    505.616    503.571
 67.370    841.000    824.547     16.453    503.677    822.459    503.677    505.740    503.677
 67.470   1000.000    969.391     30.609    503.783    967.277    503.783    505.867    503.783
 67.570   1180.000   1163.963     16.037    503.889   1161.828    503.889    505.997    503.889
 67.670   1426.000   1405.908     20.092    503.995   1403.760    503.995    506.130    503.995
 67.770   1698.000   1681.281     16.719    504.101   1679.133    504.101    506.266    504.101
 67.870   1954.000   1962.568     -8.568    504.206   1960.437    504.206    506.405    504.206
 67.970   2150.000   2209.592    -59.592    504.311   2207.492    504.311    506.547    504.311
 68.070   2347.000   2375.534    -28.534    504.416   2373.472    504.416    506.693    504.416
 68.170   2438.000   2421.274     16.726    504.521   2419.239    504.521    506.842    504.521
 68.270   2250.000   2334.559    -84.559    504.626   2332.521    504.626    506.996    504.626
 68.370   2088.124   2137.702    -49.578    504.730   2135.620    504.730    507.154    504.730
 68.470   1875.000   1874.622      0.378    504.834   1872.459    504.834    507.316    504.834
 68.570   1662.165   1591.405     70.760    504.938   1589.135    504.938    507.484    504.938
 68.670   1349.909   1324.593     25.316    505.042   1322.200    505.042    507.657    505.042
 68.770   1117.000   1097.277     19.723    505.145   1094.754    505.145    507.835    505.145
 68.870    859.000    919.343    -60.343    505.248    916.689    505.248    508.020    505.248
 68.970    802.000    790.115     11.885    505.351    787.334    505.351    508.213    505.351
 69.070    710.427    702.286      8.141    505.453    699.379    505.453    508.412    505.453
 69.170    665.279    645.860     19.420    505.555    642.828    505.555    508.621    505.555
 69.270    656.000    611.119     44.881    505.657    607.959    505.657    508.838    505.657
 69.370    610.000    590.222     19.778    505.759    586.929    505.759    509.066    505.759
 69.470    594.000    577.636     16.364    505.860    574.199    505.860    509.306    505.860
 69.570    568.000    569.849     -1.849    505.960    566.258    505.960    509.558    505.960
 69.670    531.019    564.824    -33.805    506.061    561.066    506.061    509.824    506.061
 69.770    572.000    561.461     10.539    506.161    557.519    506.161    510.107    506.161
 69.870    576.869    559.195     17.674    506.260    555.051    506.260    510.407    506.260
 69.970    605.000    557.747     47.253    506.359    553.380    506.359    510.728    506.359
 70.070    540.080    556.982    -16.903    506.458    552.369    506.458    511.072    506.458
 70.170    577.534    556.848     20.687    506.556    551.963    506.556    511.442    506.556
 70.270    565.000    557.347      7.653    506.654    552.159    506.654    511.841    506.654
 70.370    586.000    558.546     27.454    506.751    553.020    506.751    512.276    506.751
 70.470    538.205    560.611    -22.405    506.848    554.707    506.848    512.750    506.848
 70.570    550.000    563.884    -13.884    506.945    557.556    506.945    513.270    506.945
 70.670    548.000    569.023    -21.023    507.041    562.213    507.041    513.844    507.041
 70.770    550.000    577.198    -27.198    507.136    569.842    507.136    514.483    507.136
 70.870    563.498    590.359    -26.861    507.231    582.376    507.231    515.201    507.231
 70.970    615.341    611.517      3.824    507.326    602.805    507.326    516.019    507.326
 71.070    660.000    644.913     15.087    507.420    635.337    507.420    516.966    507.420
 71.170    681.000    695.893    -14.893    507.513    685.270    507.513    518.091    507.513
 71.270    753.000    770.295    -17.295    507.606    758.365    507.606    519.471    507.606
 71.370    856.000    873.210    -17.210    507.698    859.590    507.698    521.226    507.698
 71.470    992.000   1007.193    -15.193    507.790    991.316    507.790    523.544    507.790
 71.570   1149.254   1170.280    -21.026    507.881   1151.299    507.881    526.704    507.881
 71.670   1420.881   1354.303     66.578    507.972   1330.984    507.972    531.101    507.972
 71.770   1560.000   1544.051     15.949    508.062   1514.640    508.062    537.259    508.062
 71.870   1704.205   1717.671    -13.465    508.151   1679.776    508.151    545.821    508.151
 71.970   1854.000   1849.281      4.719    508.240   1799.799    508.240    557.503    508.240
 72.070   1885.000   1915.520    -30.520    508.328   1850.651    508.328    573.004    508.328
 72.170   1951.232   1905.349     45.883    508.416   1820.756    508.416    592.857    508.416
 72.270   1860.000   1826.005     33.995    508.503   1717.147    508.503    617.253    508.503
 72.370   1726.000   1698.825     27.175    508.589   1561.497    508.589    645.850    508.589
 72.470   1480.997   1549.355    -68.359    508.675   1380.412    508.675    677.581    508.675
 72.570   1439.000   1399.533     39.467    508.760   1197.778    508.760    710.497    508.760
 72.670   1267.000   1264.030      2.970    508.844   1031.208    508.844    741.659    508.844
 72.770   1076.000   1149.435    -73.435    508.928    891.115    508.928    767.244    508.928
 72.870   1051.000   1055.431     -4.431    509.011    781.285    509.011    783.152    509.011
 72.970    903.000    977.612    -74.612    509.093    700.404    509.093    786.294    509.093
 73.070    843.000    910.880    -67.880    509.175    644.042    509.175    776.004    509.175
 73.170    783.000    851.705    -68.705    509.256    606.551    509.256    754.401    509.256
 73.270    756.000    798.485    -42.485    509.336    582.473    509.336    725.339    509.336
 73.370    691.000    750.828    -59.828    509.415    567.329    509.415    692.906    509.415
 73.470    672.000    708.856    -36.856    509.494    557.862    509.494    660.481    509.494
 73.570    557.000    672.822   -115.822    509.572    551.939    509.572    630.450    509.572
 73.670    606.000    642.894    -36.894    509.649    548.289    509.649    604.252    509.649
 73.770    591.000    619.027    -28.027    509.725    546.224    509.725    582.529    509.725
 73.870    609.000    600.899      8.101    509.801    545.403    509.801    565.302    509.801
 73.970    570.132    587.929    -17.797    509.875    545.650    509.875    552.164    509.875
 74.070    601.000    579.338     21.662    509.949    546.832    509.949    542.469    509.949
 74.170    589.000    574.229     14.771    510.023    548.778    510.023    535.494    510.023
 74.270    561.000    571.656    -10.656    510.095    551.226    510.095    530.551    510.095
 74.370    524.637    570.670    -46.032    510.166    553.808    510.166    527.060    510.166
 74.470    617.000    570.353     46.647    510.237    556.059    510.237    524.570    510.237
 74.570    664.000    569.872     94.128    510.307    557.469    510.307    522.752    510.307
 74.670    629.000    568.583     60.417    510.376    557.620    510.376    521.382    510.376
 74.770    545.709    566.177    -20.468    510.444    556.352    510.444    520.313    510.444
 74.870    603.241    562.751     40.490    510.511    553.852    510.511    519.449    510.511
 74.970    631.000    558.694     72.306    510.577    550.573    510.577    518.734    510.577
 75.070    572.000    554.524     17.476    510.643    547.066    510.643    518.129    510.643
 75.170    600.000    550.762     49.238    510.707    543.882    510.707    517.610    510.707
 75.270    512.228    547.904    -35.677    510.771    541.530    510.771    517.161    510.771
 75.370    578.000    546.422     31.578    510.834    540.495    510.834    516.770    510.834
 75.470    559.000    546.790     12.210    510.896    541.261    510.896    516.429    510.896
 75.570    545.000    549.508     -4.508    510.957    544.334    510.957    516.128    510.957
 75.670    583.387    555.093     28.294    511.017    550.237    511.017    515.864    511.017
 75.770    553.000    564.032    -11.032    511.076    559.462    511.076    515.631    511.076
 75.870    561.000    576.665    -15.665    511.134    572.352    511.134    515.425    511.134
 75.970    584.000    593.034     -9.034    511.191    588.952    511.191    515.243    511.191
 76.070    619.000    612.708      6.292    511.247    608.835    511.247    515.082    511.247
 76.170    610.000    634.645    -24.645    511.302    630.962    511.302    514.938    511.302
 76.270    610.000    657.122    -47.122    511.356    653.613    511.356    514.811    511.356
 76.370    706.000    677.775     28.225    511.409    674.426    511.409    514.698    511.409
 76.470    707.718    693.826     13.892    511.462    690.627    511.462    514.598    511.462
 76.570    675.000    702.616    -27.616    511.513    699.558    511.513    514.508    511.513
 76.670    716.000    702.444     13.556    511.563    699.521    511.563    514.429    511.563
 76.770    732.219    693.287     38.932    511.612    690.490    511.612    514.358    511.612
 76.870    694.000    676.805     17.195    511.660    674.127    511.660    514.296    511.660
 76.970    625.000    655.636    -30.636    511.707    653.069    511.707    514.240    511.707
 77.070    698.000    632.547     65.453    511.753    630.083    511.753    514.191    511.753
 77.170    576.000    609.889    -33.889    511.798    607.521    511.798    514.147    511.798
 77.270    545.000    589.363    -44.363    511.842    587.083    511.842    514.109    511.842
 77.370    618.000    571.972     46.028    511.885    569.773    511.885    514.075    511.885
 77.470    562.629    558.081      4.548    511.927    555.957    511.927    514.045    511.927
 77.570    514.000    547.562    -33.562    511.967    545.506    511.967    514.018    511.967
 77.670    517.000    539.967    -22.967    512.007    537.975    512.007    513.995    512.007
 77.770    532.000    534.705     -2.705    512.046    532.773    512.046    513.975    512.046
 77.870    561.436    531.177     30.259    512.083    529.300    512.083    513.958    512.083
 77.970    555.924    528.863     27.061    512.119    527.038    512.119    513.943    512.119
 78.070    506.000    527.357    -21.357    512.154    525.580    512.154    513.930    512.154
 78.170    522.000    526.370     -4.370    512.188    524.639    512.188    513.919    512.188
 78.270    481.909    525.710    -43.802    512.221    524.021    512.221    513.910    512.221
 78.370    540.000    525.248     14.752    512.253    523.599    512.253    513.902    512.253
 78.470    513.077    524.906    -11.828    512.284    523.293    512.284    513.896    512.284
 78.570    508.085    524.709    -16.623    512.313    523.130    512.313    513.891    512.313
 78.670    537.000    524.614     12.386    512.342    523.067    512.342    513.888    512.342
 78.770    529.000    524.619      4.381    512.369    523.101    512.369    513.886    512.369
 78.870    573.000    524.738     48.262    512.395    523.246    512.395    513.885    512.395
 78.970    498.000    524.990    -26.990    512.420    523.522    512.420    513.887    512.420
 79.070    562.312    525.402     36.909    512.443    523.954    512.443    513.890    512.443
 79.170    511.000    526.006    -15.006    512.466    524.573    512.466    513.896    512.466
 79.270    503.000    526.830    -23.830    512.487    525.410    512.487    513.906    512.487
 79.370    516.000    527.907    -11.907    512.507    526.492    512.507    513.920    512.507
 79.470    513.000    529.266    -16.266    512.526    527.849    512.526    513.940    512.526
 79.570    567.982    530.939     37.043    512.544    529.513    512.544    513.966    512.544
 79.670    535.861    532.976      2.885    512.560    531.532    512.560    514.000    512.560
 79.770    536.000    535.452      0.548    512.575    533.980    512.575    514.043    512.575
 79.870    543.000    538.492      4.508    512.589    536.981    512.589    514.095    512.589
 79.970    558.658    542.290     16.368    512.602    540.730    512.602    514.157    512.602
 80.070    567.759    547.136     20.623    512.614    545.516    512.614    514.229    512.614
 80.170    591.769    553.426     38.343    512.624    551.740    512.624    514.307    512.624
 80.270    531.871    561.646    -29.774    512.633    559.888    512.633    514.389    512.633
 80.370    558.341    572.288    -13.946    512.641    570.458    512.641    514.471    512.641
 80.470    593.574    585.737      7.837    512.647    583.842    512.647    514.546    512.647
 80.570    612.000    602.148      9.852    512.653    600.201    512.653    514.607    512.653
 80.670    579.078    621.335    -42.257    512.657    619.360    512.657    514.644    512.657
 80.770    642.000    642.707     -0.707    512.659    640.731    512.659    514.653    512.659
 80.870    620.914    665.251    -44.337    512.661    663.306    512.661    514.629    512.661
 80.970    714.000    687.614     26.386    512.661    685.729    512.661    514.576    512.661
 81.070    719.012    708.293     10.719    512.660    706.491    512.660    514.499    512.660
 81.170    728.000    725.855      2.145    512.657    724.150    512.657    514.406    512.657
 81.270    698.774    739.110    -40.336    512.654    737.508    512.654    514.305    512.654
 81.370    762.555    747.205     15.350    512.649    745.706    512.649    514.203    512.649
 81.470    732.000    749.723    -17.723    512.642    748.322    512.642    514.104    512.642
 81.570    735.000    746.728    -11.728    512.635    745.417    512.635    514.011    512.635
 81.670    803.000    738.682     64.318    512.626    737.449    512.626    513.927    512.626
 81.770    727.000    726.343      0.657    512.616    725.176    512.616    513.851    512.616
 81.870    716.000    710.746      5.254    512.604    709.634    512.604    513.785    512.604
 81.970    741.216    693.149     48.067    512.591    692.081    512.591    513.727    512.591
 82.070    717.693    674.810     42.883    512.577    673.775    512.577    513.676    512.577
 82.170    651.102    656.725     -5.623    512.561    655.716    512.561    513.631    512.561
 82.270    601.662    639.495    -37.833    512.544    638.505    512.544    513.591    512.544
 82.370    638.000    623.385     14.615    512.526    622.409    512.526    513.554    512.526
 82.470    617.000    608.493      8.507    512.506    607.527    512.506    513.520    512.506
 82.570    618.947    594.909     24.037    512.485    593.949    512.485    513.487    512.485
 82.670    566.000    582.784    -16.784    512.463    581.828    512.463    513.455    512.463
 82.770    555.314    572.309    -16.995    512.439    571.354    512.439    513.423    512.439
 82.870    500.000    563.667    -63.667    512.414    562.713    512.414    513.391    512.414
 82.970    526.000    557.011    -31.011    512.388    556.056    512.388    513.359    512.388
 83.070    546.000    552.445     -6.445    512.360    551.487    512.360    513.326    512.360
 83.170    547.000    550.009     -3.009    512.331    549.049    512.331    513.292    512.331
 83.270    516.000    549.657    -33.657    512.301    548.692    512.301    513.258    512.301
 83.370    527.931    551.232    -23.301    512.269    550.263    512.269    513.223    512.269
 83.470    537.703    554.456    -16.753    512.235    553.482    512.235    513.188    512.235
 83.570    540.000    558.919    -18.919    512.201    557.940    512.201    513.151    512.201
 83.670    544.742    564.085    -19.343    512.165    563.100    512.165    513.113    512.165
 83.770    548.813    569.311    -20.498    512.127    568.321    512.127    513.074    512.127
 83.870    552.579    573.889    -21.310    512.089    572.896    512.089    513.035    512.089
 83.970    618.000    577.121     40.879    512.048    576.126    512.048    512.994    512.048
 84.070    571.978    578.438     -6.460    512.007    577.443    512.007    512.953    512.007
 84.170    585.822    577.548      8.274    511.964    576.555    511.964    512.910    511.964
 84.270    590.000    574.521     15.479    511.919    573.531    511.919    512.866    511.919
 84.370    606.722    569.744     36.978    511.874    568.759    511.874    512.822    511.874
 84.470    571.000    563.790      7.210    511.827    562.809    511.827    512.776    511.827
 84.570    536.000    557.269    -21.269    511.778    556.291    511.778    512.729    511.778
 84.670    521.000    550.729    -29.729    511.728    549.754    511.728    512.681    511.728
 84.770    511.000    544.605    -33.605    511.677    543.633    511.677    512.632    511.677
 84.870    525.892    539.196    -13.304    511.624    538.225    511.624    512.582    511.624
 84.970    552.000    534.664     17.336    511.570    533.693    511.570    512.531    511.570
 85.070    570.033    531.050     38.983    511.514    530.078    511.514    512.479    511.514
 85.170    507.000    528.307    -21.307    511.457    527.333    511.457    512.426    511.457
 85.270    554.000    526.332     27.668    511.398    525.354    511.398    512.372    511.398
 85.370    556.329    524.996     31.333    511.339    524.014    511.339    512.316    511.339
 85.470    554.102    524.176     29.926    511.277    523.189    511.277    512.260    511.277
 85.570    563.130    523.770     39.360    511.215    522.778    511.215    512.203    511.215
 85.670    531.482    523.711      7.771    511.151    522.713    511.151    512.144    511.151
 85.770    519.000    523.970     -4.970    511.085    522.965    511.085    512.085    511.085
 85.870    564.000    524.559     39.441    511.018    523.547    511.018    512.024    511.018
 85.970    551.942    525.537     26.406    510.950    524.516    510.950    511.963    510.950
 86.070    492.000    527.002    -35.002    510.880    525.972    510.880    511.900    510.880
 86.170    508.100    529.093    -20.993    510.809    528.053    510.809    511.837    510.809
 86.270    548.000    531.983     16.017    510.736    530.930    510.736    511.772    510.736
 86.370    531.690    535.858     -4.168    510.662    534.792    510.662    511.706    510.662
 86.470    537.000    540.903     -3.903    510.587    539.822    510.587    511.640    510.587
 86.570    577.000    547.265     29.735    510.510    546.167    510.510    511.573    510.510
 86.670    596.961    555.018     41.943    510.432    553.900    510.432    511.504    510.432
 86.770    533.000    564.117    -31.117    510.352    562.978    510.352    511.435    510.352
 86.870    610.000    574.365     35.635    510.271    573.203    510.271    511.365    510.271
 86.970    622.265    585.382     36.884    510.188    584.196    510.188    511.294    510.188
 87.070    653.000    596.595     56.405    510.104    595.386    510.104    511.222    510.104
 87.170    579.000    607.257    -28.257    510.019    606.025    510.019    511.149    510.019
 87.270    688.000    616.520     71.480    509.932    615.267    509.932    511.076    509.932
 87.370    661.520    623.466     38.054    509.844    622.195    509.844    511.002    509.844
 87.470    638.000    627.330     10.670    509.754    626.045    509.754    510.927    509.754
 87.570    663.118    627.688     35.430    509.663    626.391    509.663    510.851    509.663
 87.670    670.000    624.583     45.417    509.571    623.278    509.571    510.775    509.571
 87.770    635.000    618.509     16.491    509.477    617.198    509.477    510.698    509.477
 87.870    607.966    610.262     -2.296    509.382    608.947    509.382    510.621    509.382
 87.970    618.000    600.778     17.222    509.285    599.458    509.285    510.543    509.285
 88.070    629.383    591.001     38.382    509.187    589.674    509.187    510.464    509.187
 88.170    617.000    581.796     35.204    509.088    580.461    509.088    510.386    509.088
 88.270    578.000    573.893      4.107    508.987    572.547    508.987    510.306    508.987
 88.370    543.508    567.845    -24.337    508.885    566.487    508.885    510.227    508.885
 88.470    564.000    564.012     -0.012    508.781    562.639    508.781    510.148    508.781
 88.570    576.000    562.551     13.449    508.676    561.160    508.676    510.068    508.676
 88.670    543.028    563.424    -20.396    508.569    562.015    508.569    509.989    508.569
 88.770    569.000    566.412      2.588    508.462    564.982    508.462    509.909    508.462
 88.870    558.000    571.127    -13.127    508.352    569.675    508.352    509.830    508.352
 88.970    572.874    577.037     -4.163    508.242    575.560    508.242    509.751    508.242
 89.070    564.145    583.489    -19.344    508.130    581.986    508.130    509.673    508.130
 89.170    611.000    589.747     21.253    508.016    588.215    508.016    509.595    508.016
 89.270    555.193    595.037    -39.844    507.902    593.474    507.902    509.518    507.902
 89.370    596.000    598.635     -2.635    507.786    597.037    507.786    509.442    507.786
 89.470    582.000    599.978    -17.978    507.668    598.341    507.668    509.367    507.668
 89.570    572.894    598.798    -25.905    507.549    597.117    507.549    509.294    507.549
 89.670    614.000    595.181     18.819    507.429    593.450    507.429    509.222    507.429
 89.770    579.027    589.520    -10.493    507.307    587.734    507.307    509.152    507.307
 89.870    544.000    582.397    -38.397    507.185    580.551    507.185    509.085    507.185
 89.970    522.000    574.447    -52.447    507.060    572.537    507.060    509.020    507.060
 90.070    554.000    566.269    -12.269    506.935    564.289    506.935    508.957    506.935
 90.170    542.000    558.364    -16.364    506.808    556.309    506.808    508.899    506.808
 90.270    509.000    551.114    -42.114    506.679    548.978    506.679    508.845    506.679
 90.370    567.776    544.770     23.006    506.550    542.546    506.550    508.797    506.550
 90.470    528.097    539.458    -11.360    506.419    537.140    506.419    508.754    506.419
 90.570    561.000    535.201     25.799    506.287    532.782    506.287    508.718    506.287
 90.670    487.000    531.942    -44.942    506.153    529.413    506.153    508.692    506.153
 90.770    530.000    529.574      0.426    506.018    526.923    506.018    508.676    506.018
 90.870    516.000    527.965    -11.965    505.882    525.178    505.882    508.674    505.882
 90.970    523.000    526.965     -3.965    505.744    524.023    505.744    508.689    505.744
 91.070    505.000    526.490    -21.490    505.606    523.369    505.606    508.728    505.606
 91.170    537.000    526.499     10.501    505.465    523.167    505.465    508.797    505.465
 91.270    520.000    526.931     -6.931    505.324    523.347    505.324    508.906    505.324
 91.370    555.853    527.793     28.060    505.181    523.903    505.181    509.069    505.181
 91.470    502.195    529.143    -26.948    505.037    524.875    505.037    509.301    505.037
 91.570    525.000    531.084     -6.084    504.892    526.347    504.892    509.624    504.892
 91.670    531.000    533.781     -2.781    504.746    528.458    504.746    510.063    504.746
 91.770    522.000    537.431    -15.431    504.598    531.373    504.598    510.648    504.598
 91.870    544.727    542.274      2.453    504.449    535.300    504.449    511.412    504.449
 91.970    520.000    548.574    -28.574    504.299    540.466    504.299    512.392    504.299
 92.070    541.000    556.602    -15.602    504.147    547.105    504.147    513.626    504.147
 92.170    564.283    566.608     -2.325    503.994    555.429    503.994    515.151    503.994
 92.270    597.000    578.790     18.210    503.840    565.605    503.840    516.996    503.840
 92.370    588.000    593.259     -5.259    503.685    577.724    503.685    519.185    503.685
 92.470    626.243    610.009     16.234    503.529    591.769    503.529    521.726    503.529
 92.570    618.000    628.886    -10.886    503.371    607.597    503.371    524.610    503.371
 92.670    599.000    649.568    -50.568    503.212    624.917    503.212    527.805    503.212
 92.770    633.498    671.557    -38.059    503.052    643.289    503.052    531.255    503.052
 92.870    653.000    694.179    -41.179    502.891    662.127    502.891    534.872    502.891
 92.970    763.000    716.618     46.382    502.729    680.736    502.729    538.534    502.729
 93.070    712.195    738.012    -25.817    502.565    698.412    502.565    542.085    502.565
 93.170    772.000    757.542     14.458    502.400    714.529    502.400    545.331    502.400
 93.270    785.000    774.605     10.395    502.235    728.703    502.235    548.053    502.235
 93.370    835.000    788.910     46.090    502.068    740.866    502.068    550.028    502.068
 93.470    822.000    800.481     21.519    501.899    751.234    501.899    551.065    501.899
 93.570    777.835    809.590    -31.755    501.730    760.195    501.730    551.046    501.730
 93.670    822.000    816.670      5.330    501.560    768.197    501.560    549.957    501.560
 93.770    816.000    822.265     -6.265    501.388    775.685    501.388    547.895    501.388
 93.870    863.000    827.010     35.990    501.216    783.117    501.216    545.038    501.216
 93.970    839.000    831.628      7.372    501.042    790.995    501.042    541.606    501.042
 94.070    823.000    836.872    -13.872    500.867    799.851    500.867    537.823    500.867
 94.170    905.000    843.392     61.608    500.691    810.132    500.691    533.888    500.691
 94.270    877.505    851.549     25.956    500.514    822.036    500.514    529.967    500.514
 94.370    857.000    861.263     -4.263    500.336    835.352    500.336    526.190    500.336
 94.470    887.000    871.928     15.072    500.157    849.382    500.157    522.652    500.157
 94.570    853.293    882.437    -29.144    499.977    862.952    499.977    519.415    499.977
 94.670    853.497    891.275    -37.778    499.796    874.512    499.796    516.519    499.796
 94.770    901.000    896.710      4.290    499.614    882.317    499.614    513.975    499.614
 94.870    863.849    897.075    -33.226    499.431    884.706    499.431    511.778    499.431
 94.970    936.023    891.125     44.898    499.247    880.449    499.247    509.909    499.247
 95.070    914.092    878.362     35.730    499.062    869.077    499.062    508.342    499.062
 95.170    865.000    859.183      5.817    498.875    851.023    498.875    507.039    498.875
 95.270    831.000    834.777     -3.777    498.688    827.511    498.688    505.963    498.688
 95.370    829.633    806.892     22.741    498.500    800.326    498.500    505.078    498.500
 95.470    742.000    777.523    -35.523    498.311    771.501    498.311    504.348    498.311
 95.570    758.857    748.684     10.174    498.121    743.077    498.121    503.743    498.121
 95.670    770.732    722.292     48.439    497.931    716.998    497.931    503.237    497.931
 95.770    694.000    700.089     -6.089    497.739    695.029    497.739    502.808    497.739
 95.870    668.000    683.600    -15.600    497.546    678.711    497.546    502.439    497.546
 95.970    717.399    674.125     43.274    497.353    669.359    497.353    502.117    497.353
 96.070    670.000    672.755     -2.755    497.158    668.073    497.158    501.832    497.158
 96.170    691.339    680.386     10.953    496.963    675.756    496.963    501.576    496.963
 96.270    673.000    697.728    -24.728    496.767    693.125    496.767    501.343    496.767
 96.370    735.000    725.287      9.713    496.570    720.689    496.570    501.130    496.570
 96.470    753.000    763.308    -10.308    496.372    758.698    496.372    500.934    496.372
 96.570    813.636    811.692      1.944    496.174    807.052    496.174    500.754    496.174
 96.670    924.256    869.878     54.378    495.974    865.194    495.974    500.588    495.974
 96.770    904.000    936.730    -32.730    495.774    931.987    495.774    500.435    495.774
 96.870   1014.714   1010.456      4.258    495.573   1005.643    495.573    500.295    495.573
 96.970   1151.000   1088.535     62.465    495.372   1083.640    495.372    500.168    495.372
 97.070   1189.000   1167.723     21.277    495.169   1162.736    495.169    500.054    495.169
 97.170   1300.824   1244.122     56.701    494.966   1239.032    494.966    499.953    494.966
 97.270   1266.000   1313.336    -47.336    494.762   1308.133    494.762    499.866    494.762
 97.370   1401.000   1370.782     30.218    494.557   1365.457    494.557    499.794    494.557
 97.470   1388.000   1412.197    -24.197    494.352   1406.738    494.352    499.738    494.352
 97.570   1480.000   1434.309     45.691    494.146   1428.703    494.146    499.698    494.146
 97.670   1423.000   1435.493    -12.493    493.939   1429.724    493.939    499.677    493.939
 97.770   1358.000   1416.099    -58.099    493.732   1410.145    493.732    499.676    493.732
 97.870   1438.000   1378.293     59.707    493.524   1372.131    493.524    499.698    493.524
 97.970   1353.000   1325.537     27.463    493.316   1319.136    493.316    499.747    493.316
 98.070   1229.000   1261.971    -32.971    493.106   1255.296    493.106    499.826    493.106
 98.170   1212.330   1191.914     20.416    492.897   1184.923    492.897    499.943    492.897
 98.270   1082.190   1119.528    -37.339    492.686   1112.170    492.686    500.105    492.686
 98.370   1013.000   1048.599    -35.599    492.475   1040.812    492.475    500.323    492.475
 98.470    989.000    982.409      6.591    492.264    974.119    492.264    500.613    492.264
 98.570    979.000    923.690     55.310    492.052    914.802    492.052    500.994    492.052
 98.670    896.289    874.619     21.670    491.840    865.013    491.840    501.492    491.840
 98.770    850.000    836.872     13.128    491.627    826.394    491.627    502.141    491.627
 98.870    791.000    811.683    -20.683    491.413    800.141    491.413    502.983    491.413
 98.970    782.815    799.958    -17.143    491.199    787.103    491.199    504.071    491.199
 99.070    767.782    802.349    -34.567    490.985    787.870    490.985    505.470    490.985
 99.170    865.622    819.268     46.354    490.770    802.778    490.770    507.257    490.770
 99.270    882.000    850.947     31.053    490.555    831.971    490.555    509.520    490.555
 99.370    892.000    897.406     -5.406    490.339    875.369    490.339    512.359    490.339
 99.470    960.348    958.390      1.958    490.123    932.611    490.123    515.880    490.123
 99.570   1008.000   1033.280    -25.280    489.907   1002.968    489.907    520.193    489.907
 99.670   1081.884   1120.987    -39.104    489.690   1085.246    489.690    525.406    489.690
 99.770   1180.430   1219.861    -39.431    489.473   1177.697    489.473    531.615    489.473
 99.870   1261.000   1327.597    -66.597    489.256   1277.942    489.256    538.897    489.256
 99.970   1460.000   1441.202     18.798    489.038   1382.939    489.038    547.299    489.038
100.070   1596.000   1557.005     38.995    488.820   1489.012    488.820    556.825    488.820
100.170   1759.000   1670.788     88.212    488.602   1591.989    488.602    567.433    488.602
100.270   1828.326   1778.050     50.276    488.383   1687.473    488.383    579.015    488.383
100.370   1929.642   1874.397     55.245    488.165   1771.244    488.165    591.398    488.165
100.470   1965.000   1955.964      9.036    487.946   1839.687    487.946    604.331    487.946
100.570   1935.081   2019.695    -84.614    487.727   1890.076    487.727    617.478    487.727
100.670   2035.000   2063.397    -28.397    487.508   1920.642    487.508    630.420    487.508
100.770   2141.916   2085.645     56.270    487.288   1930.460    487.288    642.651    487.288
100.870   2156.000   2085.703     70.297    487.069   1919.373    487.069    653.594    487.069
100.970   2112.000   2063.639     48.361    486.849   1888.063    486.849    662.632    486.849
101.070   2005.000   2020.583    -15.583    486.630   1838.258    486.630    669.168    486.630
101.170   1990.000   1958.952     31.048    486.410   1772.866    486.410    672.712    486.410
101.270   1869.000   1882.424    -13.424    486.190   1695.859    486.190    672.967    486.190
101.370   1845.000   1795.596     49.404    485.971   1611.875    485.971    669.896    485.971
101.470   1710.000   1703.449      6.551    485.751   1525.666    485.751    663.725    485.751
101.570   1670.911   1610.791     60.120    485.531   1441.597    485.531    654.902    485.531
101.670   1519.000   1521.817     -2.817    485.311   1363.287    485.311    644.003    485.311
101.770   1426.168   1439.827    -13.660    485.092   1293.417    485.092    631.647    485.092
101.870   1368.000   1367.086      0.914    484.872   1233.661    484.872    618.427    484.872
101.970   1257.850   1304.795    -46.944    484.653   1184.692    484.653    604.871    484.653
102.070   1244.000   1253.132     -9.132    484.433   1146.245    484.433    591.424    484.433
102.170   1122.000   1211.359    -89.359    484.214   1117.224    484.214    578.442    484.214
102.270   1145.000   1177.956    -32.956    483.995   1095.835    483.995    566.201    483.995
102.370   1191.000   1150.813     40.187    483.776   1079.776    483.776    554.895    483.776
102.470   1088.762   1127.464    -38.702    483.557   1066.454    483.557    544.647    483.557
102.570   1111.000   1105.368      5.632    483.339   1053.268    483.339    535.518    483.339
102.670   1103.617   1082.236     21.380    483.121   1037.921    483.121    527.516    483.121
102.770   1042.000   1056.330    -14.330    482.903   1018.711    482.903    520.604    482.903
102.870   1001.000   1026.659    -25.659    482.685    994.715    482.685    514.712    482.685
102.970    986.300    993.012     -6.712    482.468    965.815    482.468    509.748    482.468
103.070    948.000    955.836     -7.836    482.251    932.562    482.251    505.608    482.251
103.170    898.658    916.028    -17.369    482.034    895.961    482.034    502.181    482.034
103.270    835.000    874.716    -39.716    481.818    857.251    481.818    499.359    481.818
103.370    795.965    833.095    -37.129    481.603    817.728    481.603    497.040    481.603
103.470    781.000    792.302    -11.302    481.387    778.621    481.387    495.133    481.387
103.570    726.264    753.340    -27.076    481.172    741.014    481.172    493.557    481.172
103.670    761.000    717.026     43.974    480.958    705.790    480.958    492.245    480.958
103.770    692.000    683.965      8.035    480.744    673.614    480.744    491.140    480.744
103.870    635.028    654.535    -19.507    480.531    644.906    480.531    490.198    480.531
103.970    662.382    628.894     33.487    480.318    619.863    480.318    489.381    480.318
104.070    588.000    607.020    -19.020    480.106    598.489    480.106    488.663    480.106
104.170    550.564    588.737    -38.173    479.894    580.630    479.894    488.022    479.894
104.270    616.949    573.749     43.200    479.684    566.007    479.684    487.442    479.684
104.370    600.000    561.692     38.308    479.473    554.268    479.473    486.910    479.473
104.470    567.000    552.175     14.825    479.264    545.030    479.264    486.418    479.264
104.570    527.000    544.806    -17.806    479.055    537.908    479.055    485.959    479.055
104.670    570.147    539.222     30.924    478.847    532.545    478.847    485.529    478.847
104.770    563.463    535.103     28.360    478.640    528.623    478.640    485.122    478.640
104.870    559.000    532.180     26.820    478.433    525.877    478.433    484.736    478.433
104.970    556.000    530.243     25.757    478.227    524.100    478.227    484.370    478.227
105.070    565.000    529.139     35.861    478.023    523.139    478.023    484.020    478.023
105.170    556.939    528.768     28.172    477.819    522.896    477.819    483.687    477.819
105.270    539.000    529.080      9.920    477.615    523.323    477.615    483.367    477.615
105.370    559.257    530.069     29.188    477.413    524.415    477.413    483.061    477.413
105.470    513.051    531.770    -18.719    477.212    526.206    477.212    482.768    477.212
105.570    563.000    534.247     28.753    477.012    528.763    477.012    482.486    477.012
105.670    567.000    537.590     29.410    476.813    532.176    476.813    482.215    476.813
105.770    536.000    541.904     -5.904    476.615    536.550    476.615    481.955    476.615
105.870    585.000    547.295     37.705    476.418    541.991    476.418    481.705    476.418
105.970    580.398    553.852     26.546    476.222    548.590    476.222    481.464    476.222
106.070    593.000    561.642     31.358    476.027    556.414    476.027    481.233    476.027
106.170    538.267    570.683    -32.416    475.833    565.480    475.833    481.010    475.833
106.270    581.000    580.938      0.062    475.641    575.753    475.641    480.796    475.641
106.370    600.000    592.302      7.698    475.449    587.128    475.449    480.590    475.449
106.470    637.131    604.599     32.531    475.259    599.430    475.259    480.392    475.259
106.570    591.000    617.579    -26.579    475.071    612.407    475.071    480.202    475.071
106.670    560.000    630.921    -70.921    474.883    625.741    474.883    480.020    474.883
106.770    626.000    644.241    -18.241    474.697    639.047    474.697    479.846    474.697
106.870    587.000    657.109    -70.109    474.512    651.895    474.512    479.679    474.512
106.970    703.905    669.067     34.838    474.329    663.829    474.329    479.520    474.329
107.070    738.000    679.664     58.336    474.147    674.396    474.147    479.368    474.147
107.170    676.000    688.497    -12.497    473.967    683.194    473.967    479.224    473.967
107.270    633.000    695.264    -62.264    473.788    689.924    473.788    479.083    473.788
107.370    711.502    699.824     11.678    473.610    694.441    473.610    478.952    473.610
107.470    748.228    702.224     46.004    473.434    696.790    473.434    478.831    473.434
107.570    734.500    702.695     31.805    473.260    697.204    473.260    478.718    473.260
107.670    698.679    701.620     -2.941    473.087    696.066    473.087    478.613    473.087
107.770    624.000    699.474    -75.474    472.916    693.850    472.916    478.516    472.916
107.870    691.790    696.752     -4.962    472.747    691.052    472.747    478.428    472.747
107.970    645.558    693.914    -48.356    472.579    688.131    472.579    478.348    472.579
108.070    667.000    691.342    -24.342    472.413    685.468    472.413    478.277    472.413
108.170    664.000    689.309    -25.309    472.249    683.337    472.249    478.215    472.249
108.270    708.515    687.962     20.553    472.087    681.885    472.087    478.162    472.087
108.370    681.000    687.311     -6.311    471.926    681.128    471.926    478.111    471.926
108.470    665.000    687.251    -22.251    471.768    680.951    471.768    478.073    471.768
108.570    659.000    687.548    -28.548    471.611    681.118    471.611    478.051    471.611
108.670    650.169    687.865    -37.696    471.456    681.294    471.456    478.040    471.456
108.770    683.000    687.799     -4.799    471.304    681.078    471.304    478.040    471.304
108.870    702.000    686.930     15.070    471.153    680.048    471.153    478.052    471.153
108.970    658.046    684.869    -26.823    471.004    677.817    471.004    478.077    471.004
109.070    676.000    681.322     -5.322    470.858    674.087    470.858    478.115    470.858
109.170    681.000    676.128      4.872    470.713    668.698    470.713    478.167    470.713
109.270    641.119    669.279    -28.160    470.571    661.641    470.571    478.233    470.571
109.370    643.000    660.902    -17.902    470.431    653.042    470.431    478.315    470.431
109.470    633.000    651.229    -18.229    470.293    643.132    470.293    478.413    470.293
109.570    618.000    640.638    -22.638    470.157    632.289    470.157    478.529    470.157
109.670    661.657    629.446     32.211    470.024    620.828    470.024    478.663    470.024
109.770    610.000    617.996     -7.996    469.893    609.093    469.893    478.817    469.893
109.870    646.456    606.618     39.838    469.764    597.408    469.764    478.993    469.764
109.970    609.638    595.604     14.034    469.638    586.068    469.638    479.191    469.638
110.070    556.715    585.204    -28.490    469.514    575.318    469.514    479.415    469.514
110.170    584.963    575.619      9.344    469.393    565.358    469.393    479.666    469.393
110.270    574.000    566.996      7.004    469.274    556.333    469.274    479.947    469.274
110.370    535.161    559.432    -24.270    469.158    548.335    469.158    480.262    469.158
110.470    596.000    552.976     43.024    469.044    541.410    469.044    480.616    469.044
110.570    562.000    547.634     14.366    468.933    535.559    468.933    481.013    468.933
110.670    579.231    543.378     35.853    468.825    530.745    468.825    481.460    468.825
110.770    567.939    540.153     27.786    468.719    526.907    468.719    481.966    468.719
110.870    538.000    537.886      0.114    468.616    523.961    468.616    482.541    468.616
110.970    541.000    536.495      4.505    468.516    521.811    468.516    483.198    468.516
111.070    560.000    535.897     24.103    468.419    520.357    468.419    483.955    468.419
111.170    552.898    536.011     16.886    468.324    519.499    468.324    484.832    468.324
111.270    574.349    536.769     37.580    468.233    519.141    468.233    485.855    468.233
111.370    533.969    538.113     -4.144    468.144    519.195    468.144    487.055    468.144
111.470    556.000    540.004     15.996    468.058    519.583    468.058    488.472    468.058
111.570    559.578    542.419     17.159    467.976    520.237    467.976    490.150    467.976
111.670    557.905    545.357     12.548    467.896    521.098    467.896    492.147    467.896
111.770    590.000    548.835     41.165    467.820    522.121    467.820    494.525    467.820
111.870    518.000    552.892    -34.892    467.747    523.270    467.747    497.359    467.747
111.970    582.000    557.590     24.410    467.677    524.520    467.677    500.736    467.677
112.070    517.461    563.009    -45.548    467.610    525.859    467.610    504.749    467.610
112.170    529.756    569.251    -39.496    467.546    527.283    467.546    509.503    467.546
112.270    605.000    576.436     28.564    467.486    528.800    467.486    515.110    467.486
112.370    550.559    584.696    -34.137    467.429    530.425    467.429    521.688    467.429
112.470    571.000    594.175    -23.175    467.375    532.182    467.375    529.355    467.375
112.570    576.000    605.022    -29.022    467.325    534.103    467.325    538.230    467.325
112.670    568.634    617.386    -48.753    467.279    536.227    467.279    548.423    467.279
112.770    652.000    631.416     20.584    467.236    538.604    467.236    560.032    467.236
112.870    662.000    647.253     14.747    467.196    541.297    467.196    573.136    467.196
112.970    685.000    665.029     19.971    467.160    544.384    467.160    587.787    467.160
113.070    679.000    684.867     -5.867    467.128    547.970    467.128    604.006    467.128
113.170    700.000    706.886     -6.886    467.099    552.190    467.099    621.773    467.099
113.270    697.000    731.196    -34.196    467.075    557.226    467.075    641.020    467.075
113.370    748.000    757.920     -9.920    467.054    563.316    467.054    661.630    467.054
113.470    789.000    787.192      1.808    467.036    570.773    467.036    683.425    467.036
113.570    783.310    819.186    -35.876    467.023    580.008    467.023    706.167    467.023
113.670    846.000    854.129     -8.129    467.013    591.554    467.013    729.548    467.013
113.770    945.000    892.327     52.673    467.008    606.093    467.008    753.196    467.008
113.870    971.000    934.195     36.805    467.007    624.485    467.007    776.662    467.007
113.970    993.000    980.286     12.714    467.009    647.800    467.009    799.432    467.009
114.070   1028.000   1031.326     -3.326    467.016    677.344    467.016    820.923    467.016
114.170   1129.000   1088.250     40.750    467.027    714.685    467.027    840.504    467.027
114.270   1087.664   1152.243    -64.579    467.042    761.664    467.042    857.515    467.042
114.370   1210.662   1224.778    -14.116    467.061    820.404    467.061    871.311    467.061
114.470   1301.000   1307.656     -6.656    467.084    893.285    467.084    881.308    467.084
114.570   1334.495   1403.027    -68.532    467.112    982.914    467.112    887.050    467.112
114.670   1587.000   1513.377     73.623    467.144   1092.055    467.144    888.259    467.144
114.770   1600.899   1641.475    -40.576    467.181   1223.537    467.181    884.876    467.181
114.870   1842.000   1790.254     51.746    467.222   1380.122    467.222    877.071    467.222
114.970   1995.000   1962.624     32.376    467.268   1564.353    467.268    865.212    467.268
115.070   2230.000   2161.249     68.751    467.318   1778.366    467.318    849.827    467.318
115.170   2462.025   2388.277     73.748    467.373   2023.691    467.373    831.536    467.373
115.270   2630.410   2645.072    -14.662    467.432   2301.033    467.432    810.999    467.432
115.370   2891.000   2931.961    -40.961    467.497   2610.072    467.497    788.866    467.497
115.470   3254.524   3248.013      6.511    467.566   2949.267    467.566    765.747    467.566
115.570   3604.000   3590.868     13.132    467.639   3315.710    467.639    742.193    467.639
115.670   3871.000   3956.621    -85.621    467.718   3705.017    467.718    718.687    467.718
115.770   4417.000   4339.778     77.222    467.802   4111.285    467.802    695.639    467.802
115.870   4549.000   4733.284   -184.284    467.890   4527.118    467.890    673.390    467.890
115.970   4957.000   5128.616   -171.616    467.984   4943.724    467.984    652.215    467.984
116.070   5571.755   5515.969     55.786    468.082   5351.092    468.082    632.320    468.082
116.170   5784.000   5884.515   -100.515    468.186   5738.247    468.186    613.854    468.186
116.270   6085.000   6222.766   -137.766    468.295   6093.607    468.295    596.909    468.295
116.370   6379.737   6519.047   -139.310    468.409   6405.455    468.409    581.529    468.409
116.470   6730.491   6762.102    -31.611    468.528   6662.534    468.528    567.713    468.528
116.570   6905.672   6941.940    -36.269    468.653   6854.888    468.653    555.425    468.653
116.670   6926.285   7050.560   -124.275    468.783   6974.576    468.783    544.598    468.783
116.770   7101.000   7082.818     18.182    468.918   7016.538    468.918    535.142    468.918
116.870   6912.000   7037.005   -125.005    469.059   6979.168    469.059    526.954    469.059
116.970   6955.000   6915.041     39.959    469.206   6864.492    469.206    519.919    469.206
117.070   6920.000   6722.221    197.779    469.358   6677.920    469.358    513.918    469.358
117.170   6580.000   6466.594    113.406    469.515   6427.619    469.515    508.831    469.515
117.270   6050.000   6158.158   -108.158    469.679   6123.697    469.679    504.544    469.679
117.370   5915.008   5808.012    106.995    469.848   5777.364    469.848    500.948    469.848
117.470   5363.000   5427.636    -64.636    470.023   5400.197    470.023    497.944    470.023
117.570   4992.000   5028.289    -36.289    470.203   5003.547    470.203    495.442    470.203
117.670   4408.000   4620.565   -212.565    470.390   4598.090    470.390    493.361    470.390
117.770   4324.000   4214.054    109.946    470.583   4193.488    470.583    491.632    470.583
117.870   3979.000   3817.106    161.894    470.781   3798.151    470.781    490.195    470.781
117.970   3552.000   3436.671    115.329    470.986   3419.084    470.986    489.000    470.986
118.070   3185.000   3078.231    106.769    471.197   3061.812    471.197    488.005    471.197
118.170   2816.000   2745.793     70.207    471.413   2730.380    471.413    487.174    471.413
118.270   2534.000   2441.966     92.034    471.637   2427.428    471.637    486.478    471.637
118.370   2109.000   2168.081    -59.081    471.866   2154.311    471.866    485.896    471.866
118.470   1864.410   1924.355    -59.945    472.102   1911.266    472.102    485.408    472.102
118.570   1737.000   1710.080     26.920    472.344   1697.603    472.344    485.000    472.344
118.670   1549.368   1523.817     25.551    472.593   1511.895    472.593    484.659    472.593
118.770   1316.475   1363.592    -47.118    472.848   1352.176    472.848    484.377    472.848
118.870   1195.000   1227.077    -32.077    473.110   1216.127    473.110    484.146    473.110
118.970   1114.000   1111.753      2.247    473.378   1101.234    473.378    483.960    473.378
119.070   1021.201   1015.053      6.148    473.653   1004.936    473.653    483.815    473.653
119.170    940.368    934.475      5.893    473.935    924.733    473.935    483.707    473.935
119.270    867.000    867.664     -0.664    474.223    858.273    474.223    483.634    474.223
119.370    784.697    812.471    -27.773    474.519    803.408    474.519    483.593    474.519
119.470    738.426    766.984    -28.558    474.821    758.229    474.821    483.582    474.821
119.570    707.562    729.542    -21.980    475.131    721.075    475.131    483.600    475.131
119.670    720.000    698.726     21.274    475.447    690.527    475.447    483.647    475.447
119.770    707.591    673.349     34.243    475.771    665.398    475.771    483.720    475.771
119.870    669.169    652.429     16.739    476.101    644.709    476.101    483.820    476.101
119.970    667.318    635.168     32.150    476.439    627.658    476.439    483.947    476.439
120.070    661.530    620.920     40.610    476.784    613.603    476.784    484.101    476.784
120.170    572.904    609.173    -36.269    477.137    602.028    477.137    484.281    477.137
120.270    588.000    599.518    -11.518    477.497    592.526    477.497    484.488    477.497
120.370    562.434    591.633    -29.199    477.864    584.776    477.864    484.723    477.864
120.470    571.000    585.269    -14.269    478.239    578.523    478.239    484.986    478.239
120.570    557.483    580.227    -22.744    478.621    573.573    478.621    485.278    478.621
120.670    569.000    576.355     -7.355    479.011    569.770    479.011    485.600    479.011
120.770    589.895    573.533     16.362    479.409    566.994    479.409    485.952    479.409
120.870    579.479    571.668      7.811    479.815    565.152    479.815    486.337    479.815
120.970    546.000    570.687    -24.687    480.228    564.167    480.228    486.753    480.228
121.070    557.000    570.528    -13.528    480.650    563.981    480.650    487.204    480.650
121.170    578.253    571.141      7.112    481.079    564.540    481.079    487.688    481.079
121.270    577.000    572.481      4.519    481.516    565.800    481.516    488.207    481.516
121.370    599.401    574.503     24.898    481.961    567.714    481.961    488.761    481.961
121.470    581.963    577.161      4.802    482.415    570.238    482.415    489.350    482.415
121.570    539.546    580.403    -40.857    482.877    573.320    482.877    489.974    482.877
121.670    549.000    584.171    -35.171    483.347    576.902    483.347    490.632    483.347
121.770    547.000    588.400    -41.400    483.825    580.922    483.825    491.322    483.825
121.870    577.879    593.014    -15.135    484.312    585.304    484.312    492.043    484.312
121.970    582.000    597.926    -15.926    484.807    589.964    484.807    492.794    484.807
122.070    622.000    603.040     18.960    485.311    594.808    485.311    493.569    485.311
122.170    607.404    608.249     -0.845    485.823    599.734    485.823    494.368    485.823
122.270    621.000    613.438      7.562    486.344    604.630    486.344    495.185    486.344
122.370    615.000    618.485     -3.485    486.874    609.379    486.874    496.015    486.874
122.470    609.000    623.264    -14.264    487.413    613.861    487.413    496.853    487.413
122.570    676.000    627.647     48.353    487.960    617.954    487.960    497.694    487.960
122.670    658.000    631.512     26.488    488.517    621.542    488.517    498.530    488.517
122.770    603.000    634.747    -31.747    489.082    624.520    489.082    499.354    489.082
122.870    679.579    637.255     42.324    489.657    626.800    489.657    500.159    489.657
122.970    595.985    638.963    -42.979    490.240    628.315    490.240    500.937    490.240
123.070    649.231    639.826      9.405    490.833    629.028    490.833    501.681    490.833
123.170    641.184    639.829      1.356    491.435    628.929    491.435    502.385    491.435
123.270    656.000    638.985     17.015    492.047    628.039    492.047    503.042    492.047
123.370    672.365    637.335     35.030    492.668    626.402    492.668    503.650    492.668
123.470    633.000    634.944     -1.944    493.298    624.083    493.298    504.207    493.298
123.570    640.000    631.891      8.109    493.938    621.163    493.938    504.712    493.938
123.670    647.521    628.267     19.254    494.588    617.729    494.588    505.170    494.588
123.770    621.000    624.170     -3.170    495.247    613.875    495.247    505.584    495.247
123.870    639.942    619.700     20.242    495.916    609.695    495.916    505.959    495.916
123.970    589.000    614.955    -25.955    496.595    605.281    496.595    506.305    496.595
124.070    674.000    610.028     63.972    497.284    600.719    497.284    506.625    497.284
124.170    625.000    605.007     19.993    497.983    596.090    497.983    506.928    497.983
124.270    592.025    599.973     -7.948    498.691    591.466    498.691    507.225    498.691
124.370    592.000    594.993     -2.993    499.410    586.906    499.410    507.521    499.410
124.470    612.000    590.125     21.875    500.140    582.464    500.140    507.821    500.140
124.570    577.000    585.414     -8.414    500.879    578.180    500.879    508.131    500.879
124.670    572.000    580.896     -8.896    501.629    574.084    501.629    508.456    501.629
124.770    558.000    576.596    -18.596    502.389    570.196    502.389    508.801    502.389
124.870    612.000    572.534     39.466    503.160    566.534    503.160    509.170    503.160
124.970    572.449    568.724      3.725    503.941    563.109    503.941    509.565    503.941
