neutron_powder_diffraction_0038
R_wp: 3.790
Temperature (K): 583.157
Counts: 83501.00
Wavelength (Ã…): 2.52098
COMMENTS
Test file for demonstrating the .xyy file format in Reel1.0
END OF HEADER
   tth       Y_obs     Y_calc      Y_res    Background    Phase_1_Nuc    Phase_1_Mag    Phase_2_Nuc    Phase_2_Mag
  9.970    706.000    688.639     17.361    687.188    688.158    687.667    687.188    687.188
 10.070    732.939    688.024     44.915    686.490    687.539    686.974    686.490    686.490
 10.170    729.455    687.421     42.033    685.793    686.931    686.282    685.793    685.793
 10.270    675.000    686.832    -11.832    685.096    686.337    685.591    685.096    685.096
 10.370    748.000    686.260     61.740    684.401    685.759    684.901    684.401    684.401
 10.470    638.840    685.708    -46.868    683.706    685.201    684.212    683.706    683.706
 10.570    738.000    685.180     52.820    683.013    684.668    683.524    683.013    683.013
 10.670    734.443    684.682     49.761    682.320    684.164    682.837    682.320    682.320
 10.770    738.000    684.221     53.779    681.629    683.697    682.151    681.629    681.629
 10.870    689.000    683.807      5.193    680.938    683.277    681.467    680.938    680.938
 10.970    642.639    683.454    -40.815    680.249    682.918    680.783    680.249    680.249
 11.070    683.000    683.180     -0.180    679.560    682.638    680.100    679.560    679.560
 11.170    714.000    683.011     30.989    678.873    682.462    679.419    678.873    678.873
 11.270    746.000    682.986     63.014    678.186    682.431    678.739    678.186    678.186
 11.370    719.000    683.169     35.831    677.501    682.607    678.060    677.501    677.501
 11.470    654.300    683.678    -29.378    676.817    683.109    677.382    676.817    676.817
 11.570    712.000    684.773     27.227    676.134    684.197    676.706    676.134    676.134
 11.670    758.000    687.062     70.938    675.452    686.478    676.030    675.452    675.452
 11.770    729.000    691.812     37.188    674.771    691.218    675.356    674.771    674.771
 11.870    748.535    701.153     47.382    674.092    700.546    674.684    674.092    674.092
 11.970    807.000    717.571     89.429    673.413    716.948    674.012    673.413    673.413
 12.070    868.000    742.082    125.918    672.736    741.438    673.342    672.736    672.736
 12.170    776.000    770.965      5.035    672.060    770.297    672.674    672.060    672.060
 12.270    826.547    792.778     33.768    671.386    792.090    672.007    671.386    671.386
 12.370    852.000    793.622     58.378    670.713    792.925    671.341    670.713    670.713
 12.470    820.000    772.276     47.724    670.041    771.583    670.677    670.041    670.041
 12.570    740.000    742.050     -2.050    669.370    741.366    670.014    669.370    669.370
 12.670    675.000    715.348    -40.348    668.701    714.671    669.353    668.701    668.701
 12.770    670.000    696.680    -26.680    668.033    696.004    668.693    668.033    668.033
 12.870    648.000    685.450    -37.450    667.366    684.772    668.035    667.366    667.366
 12.970    638.931    679.023    -40.092    666.701    678.340    667.378    666.701    666.701
 13.070    612.000    675.221    -63.221    666.037    674.531    666.723    666.037    666.037
 13.170    663.000    672.710     -9.710    665.375    672.012    666.069    665.375    665.375
 13.270    661.000    670.828     -9.828    664.714    670.122    665.417    664.714    664.714
 13.370    683.843    669.291     14.552    664.054    668.577    664.767    664.054    664.054
 13.470    627.000    667.971    -40.971    663.396    667.247    664.118    663.396    663.396
 13.570    630.000    666.801    -36.801    662.740    666.068    663.471    662.740    662.740
 13.670    662.000    665.740     -3.740    662.085    664.999    662.825    662.085    662.085
 13.770    685.000    664.762     20.238    661.431    664.010    662.182    661.431    661.431
 13.870    719.000    663.846     55.154    660.779    663.085    661.540    660.779    660.779
 13.970    642.000    662.980    -20.980    660.129    662.208    660.899    660.129    660.129
 14.070    673.000    662.152     10.848    659.480    661.371    660.261    659.480    659.480
 14.170    684.814    661.356     23.458    658.833    660.564    659.624    658.833    658.833
 14.270    662.097    660.586      1.511    658.187    659.783    658.989    658.187    658.187
 14.370    634.000    659.837    -25.837    657.543    659.022    658.356    657.543    657.543
 14.470    666.000    659.106      6.894    656.900    658.281    657.725    656.900    656.900
 14.570    655.000    658.394     -3.394    656.260    657.558    657.096    656.260    656.260
 14.670    640.000    657.691    -17.691    655.620    656.843    656.469    655.620    655.620
 14.770    644.732    656.999    -12.267    654.983    656.139    655.843    654.983    654.983
 14.870    648.000    656.317     -8.317    654.347    655.444    655.220    654.347    654.347
 14.970    660.000    655.644      4.356    653.713    654.759    654.598    653.713    653.713
 15.070    670.000    654.987     15.013    653.081    654.088    653.979    653.081    653.081
 15.170    618.000    654.352    -36.352    652.450    653.440    653.361    652.450    652.450
 15.270    679.000    653.702     25.298    651.821    652.777    652.746    651.821    651.821
 15.370    643.000    653.056    -10.056    651.194    652.117    652.132    651.194    651.194
 15.470    631.000    652.416    -21.416    650.568    651.463    651.521    650.568    650.568
 15.570    602.000    651.780    -49.780    649.945    650.813    650.912    649.945    649.945
 15.670    650.247    651.149     -0.903    649.323    650.167    650.305    649.323    649.323
 15.770    642.000    650.523     -8.523    648.703    649.526    649.699    648.703    648.703
 15.870    698.762    649.901     48.861    648.084    648.889    649.097    648.084    648.084
 15.970    609.000    649.284    -40.284    647.468    648.255    648.496    647.468    647.468
 16.070    655.404    648.671      6.733    646.853    647.627    647.897    646.853    646.853
 16.170    626.049    648.065    -22.016    646.241    647.004    647.301    646.241    646.241
 16.270    678.226    647.459     30.768    645.630    646.381    646.707    645.630    645.630
 16.370    689.635    646.856     42.779    645.021    645.761    646.116    645.021    645.021
 16.470    610.800    646.256    -35.456    644.414    645.144    645.526    644.414    644.414
 16.570    601.000    645.660    -44.660    643.809    644.530    644.939    643.809    643.809
 16.670    606.000    645.067    -39.067    643.205    643.918    644.355    643.205    643.205
 16.770    608.132    644.478    -36.347    642.604    643.310    643.772    642.604    642.604
 16.870    634.000    643.892     -9.892    642.005    642.704    643.192    642.005    642.005
 16.970    632.000    643.309    -11.309    641.407    642.101    642.615    641.407    641.407
 17.070    598.000    642.729    -44.729    640.812    641.501    642.040    640.812    640.812
 17.170    618.261    642.153    -23.892    640.218    640.903    641.468    640.218    640.218
 17.270    631.000    641.579    -10.579    639.627    640.308    640.898    639.627    639.627
 17.370    597.341    641.009    -43.668    639.037    639.716    640.330    639.037    639.037
 17.470    652.000    640.442     11.558    638.450    639.126    639.766    638.450    638.450
 17.570    602.000    639.881    -37.881    637.864    638.541    639.204    637.864    637.864
 17.670    607.000    639.326    -32.326    637.281    637.962    638.645    637.281    637.281
 17.770    623.000    638.775    -15.775    636.699    637.385    638.088    636.699    636.699
 17.870    596.000    638.277    -42.277    636.120    636.861    637.535    636.120    636.120
 17.970    623.000    637.746    -14.746    635.543    636.304    636.984    635.543    635.543
 18.070    626.626    637.200    -10.574    634.967    635.731    636.436    634.967    634.967
 18.170    640.000    636.657      3.343    634.394    635.160    635.891    634.394    634.394
 18.270    619.000    636.127    -17.127    633.823    634.602    635.348    633.823    633.823
 18.370    669.408    635.593     33.815    633.254    634.039    634.808    633.254    633.254
 18.470    663.085    635.059     28.025    632.687    633.475    634.271    632.687    632.687
 18.570    623.000    634.529    -11.529    632.122    632.914    633.738    632.122    632.122
 18.670    657.000    634.002     22.998    631.560    632.355    633.207    631.560    631.560
 18.770    625.000    633.478     -8.478    630.999    631.798    632.679    630.999    630.999
 18.870    610.000    632.959    -22.959    630.441    631.245    632.155    630.441    630.441
 18.970    628.000    632.442     -4.442    629.885    630.694    631.633    629.885    629.885
 19.070    593.000    631.934    -38.934    629.331    630.149    631.115    629.331    629.331
 19.170    624.000    631.450     -7.450    628.779    629.629    630.600    628.779    628.779
 19.270    596.558    630.948    -34.390    628.229    629.088    630.089    628.229    628.229
 19.370    670.528    630.447     40.081    627.682    628.547    629.581    627.682    627.682
 19.470    628.000    629.951     -1.951    627.136    628.010    629.077    627.136    627.136
 19.570    576.000    629.480    -53.480    626.593    627.492    628.581    626.593    626.593
 19.670    656.000    629.053     26.947    626.052    627.008    628.097    626.052    626.052
 19.770    575.000    628.575    -53.575    625.514    626.483    627.605    625.514    625.514
 19.870    615.000    628.095    -13.095    624.977    625.957    627.115    624.977    624.977
 19.970    615.000    627.619    -12.619    624.443    625.433    626.629    624.443    624.443
 20.070    607.000    627.148    -20.148    623.911    624.911    626.147    623.911    623.911
 20.170    599.891    626.681    -26.790    623.381    624.393    625.669    623.381    623.381
 20.270    613.667    626.219    -12.552    622.854    623.878    625.195    622.854    622.854
 20.370    596.000    625.762    -29.762    622.329    623.365    624.725    622.329    622.329
 20.470    609.000    625.310    -16.310    621.806    622.856    624.260    621.806    621.806
 20.570    629.356    624.867      4.489    621.285    622.353    623.799    621.285    621.285
 20.670    619.000    624.466     -5.466    620.767    621.886    623.347    620.767    620.767
 20.770    575.484    624.065    -48.581    620.251    621.408    622.908    620.251    620.251
 20.870    658.000    623.642     34.358    619.737    620.916    622.463    619.737    619.737
 20.970    591.275    623.246    -31.971    619.226    620.451    622.021    619.226    619.226
 21.070    628.000    622.887      5.113    618.717    620.019    621.585    618.717    618.717
 21.170    601.000    622.509    -21.509    618.210    619.565    621.153    618.210    618.210
 21.270    614.000    622.107     -8.107    617.706    619.086    620.727    617.706    617.706
 21.370    589.187    621.712    -32.525    617.203    618.610    620.306    617.203    617.203
 21.470    593.000    621.327    -28.327    616.704    618.140    619.890    616.704    616.704
 21.570    608.068    620.979    -12.911    616.206    617.703    619.482    616.206    616.206
 21.670    604.000    620.626    -16.626    615.711    617.258    619.079    615.711    615.711
 21.770    652.693    620.266     32.426    615.218    616.802    618.682    615.218    615.218
 21.870    664.292    619.909     44.382    614.728    616.345    618.292    614.728    614.728
 21.970    615.100    619.562     -4.463    614.240    615.894    617.909    614.240    614.240
 22.070    607.000    619.235    -12.235    613.755    615.454    617.536    613.755    613.755
 22.170    620.000    618.912      1.088    613.271    615.015    617.168    613.271    613.271
 22.270    612.000    618.598     -6.598    612.791    614.582    616.807    612.791    612.791
 22.370    619.000    618.298      0.702    612.312    614.157    616.454    612.312    612.312
 22.470    646.000    618.009     27.991    611.836    613.736    616.109    611.836    611.836
 22.570    598.000    617.732    -19.732    611.362    613.322    615.773    611.362    611.362
 22.670    616.000    617.473     -1.473    610.891    612.918    615.446    610.891    610.891
 22.770    649.000    617.229     31.771    610.422    612.522    615.130    610.422    610.422
 22.870    612.000    617.008     -5.008    609.956    612.140    614.824    609.956    609.956
 22.970    623.760    616.809      6.952    609.492    611.771    614.530    609.492    609.492
 23.070    594.000    616.629    -22.629    609.030    611.414    614.245    609.030    609.030
 23.170    624.000    616.476      7.524    608.571    611.074    613.973    608.571    608.571
 23.270    647.000    616.352     30.648    608.115    610.753    613.714    608.115    608.115
 23.370    616.982    616.263      0.718    607.660    610.456    613.468    607.660    607.660
 23.470    631.000    616.216     14.784    607.209    610.189    613.237    607.209    607.209
 23.570    600.000    616.219    -16.219    606.759    609.958    613.021    606.759    606.759
 23.670    663.914    616.282     47.633    606.312    609.773    612.822    606.312    606.312
 23.770    625.000    616.420      8.580    605.868    609.648    612.640    605.868    605.868
 23.870    570.339    616.653    -46.315    605.426    609.603    612.478    605.426    605.426
 23.970    573.000    617.014    -44.014    604.986    609.666    612.337    604.986    604.986
 24.070    615.000    617.550     -2.550    604.549    609.884    612.216    604.549    604.549
 24.170    653.000    618.357     34.643    604.114    610.354    612.120    604.114    604.114
 24.270    621.000    619.650      1.350    603.682    611.287    612.049    603.682    603.682
 24.370    617.000    621.911     -4.911    603.253    613.162    612.007    603.253    603.253
 24.470    647.000    626.088     20.912    602.825    616.927    611.995    602.825    602.825
 24.570    676.945    633.655     43.290    602.401    624.054    612.015    602.401    602.401
 24.670    600.463    646.139    -45.675    601.978    636.066    612.073    601.978    601.978
 24.770    688.028    663.805     24.222    601.559    653.228    612.171    601.559    601.559
 24.870    692.633    683.532      9.101    601.141    672.411    612.312    601.141    601.141
 24.970    702.000    697.249      4.751    600.726    685.533    612.501    600.726    600.726
 25.070    697.000    696.520      0.480    600.314    684.148    612.745    600.314    600.314
 25.170    683.000    682.161      0.839    599.904    669.065    613.048    599.904    599.904
 25.270    685.000    663.039     21.961    599.497    649.152    613.417    599.497    599.497
 25.370    675.000    646.612     28.388    599.092    631.863    613.862    599.092    599.092
 25.470    639.000    635.487      3.513    598.690    619.799    614.390    598.690    598.690
 25.570    611.000    629.179    -18.179    598.290    612.462    615.014    598.290    598.290
 25.670    669.039    626.142     42.897    597.892    608.294    615.745    597.892    597.892
 25.770    598.313    624.980    -26.667    597.498    605.881    616.599    597.498    597.498
 25.870    664.569    624.831     39.739    597.105    604.344    617.594    597.105    597.105
 25.970    642.000    625.281     16.719    596.715    603.247    618.750    596.715    596.715
 26.070    632.249    626.165      6.084    596.328    602.399    620.094    596.328    596.328
 26.170    614.000    627.429    -13.429    595.943    601.715    621.658    595.943    595.943
 26.270    595.289    629.069    -33.780    595.561    601.152    623.478    595.561    595.561
 26.370    585.013    631.108    -46.096    595.181    600.686    625.602    595.181    595.181
 26.470    615.000    633.593    -18.593    594.804    600.305    628.090    594.804    594.804
 26.570    589.000    636.589    -47.589    594.429    600.001    631.014    594.429    594.429
 26.670    630.000    640.184    -10.184    594.057    599.772    634.465    594.057    594.057
 26.770    666.000    644.493     21.507    593.687    599.613    638.564    593.687    593.687
 26.870    617.555    649.683    -32.128    593.320    599.533    643.466    593.320    593.320
 26.970    679.868    655.973     23.895    592.955    599.544    649.380    592.955    592.955
 27.070    652.000    663.657    -11.657    592.593    599.661    656.583    592.593    592.593
 27.170    700.495    673.142     27.353    592.233    599.910    665.458    592.233    592.233
 27.270    652.000    684.999    -32.999    591.876    600.324    676.542    591.876    591.876
 27.370    667.000    700.058    -33.058    591.521    600.956    690.613    591.521    591.521
 27.470    712.000    719.587     -7.587    591.169    601.885    708.857    591.169    591.169
 27.570    776.000    745.835     30.165    590.819    603.253    733.384    590.819    590.819
 27.670    759.000    784.101    -25.101    590.472    605.391    769.157    590.472    590.472
 27.770    870.221    850.060     20.161    590.127    609.273    830.872    590.127    590.127
 27.870    979.626    989.512     -9.886    589.785    617.744    961.469    589.785    589.785
 27.970   1271.000   1310.622    -39.622    589.446    637.515   1262.372    589.446    589.446
 28.070   1981.060   1992.506    -11.447    589.109    679.697   1901.560    589.109    589.109
 28.170   2997.000   3187.805   -190.805    588.774    753.774   3022.218    588.774    588.774
 28.270   4716.000   4784.297    -68.297    588.442    852.842   4519.145    588.442    588.442
 28.370   6140.000   6192.013    -52.013    588.112    940.451   5838.990    588.112    588.112
 28.470   6633.000   6568.084     64.916    587.785    964.639   6190.845    587.785    587.785
 28.570   5558.594   5668.602   -110.008    587.461    910.944   5345.013    587.461    587.461
 28.670   4355.000   4249.921    105.079    587.139    827.548   4009.514    587.139    587.139
 28.770   3244.000   3196.560     47.440    586.819    771.105   3012.252    586.819    586.819
 28.870   2866.000   2881.997    -15.997    586.502    765.981   2702.440    586.502    586.502
 28.970   3199.000   3172.000     27.000    586.188    802.249   2955.859    586.188    586.188
 29.070   3565.594   3619.012    -53.418    585.876    845.800   3359.107    585.876    585.876
 29.170   3666.000   3710.187    -44.187    585.566    855.623   3440.298    585.566    585.566
 29.270   3390.000   3241.131    148.869    585.259    815.649   3010.983    585.259    585.259
 29.370   2470.000   2477.506     -7.506    584.955    749.636   2313.044    584.955    584.955
 29.470   1742.001   1767.487    -25.486    584.653    688.109   1664.182    584.653    584.653
 29.570   1235.000   1271.903    -36.903    584.353    645.154   1211.187    584.353    584.353
 29.670   1020.000    988.076     31.924    584.056    620.580    951.593    584.056    584.056
 29.770    881.000    844.600     36.400    583.762    608.197    820.183    583.762    583.762
 29.870    789.000    773.282     15.718    583.469    602.087    754.673    583.469    583.469
 29.970    740.677    733.834      6.843    583.180    598.760    718.259    583.180    583.180
 30.070    755.000    708.361     46.639    582.893    596.679    694.576    582.893    582.893
 30.170    729.000    690.055     38.945    582.608    595.278    677.386    582.608    582.608
 30.270    683.000    676.300      6.700    582.326    594.370    664.256    582.326    582.326
 30.370    712.972    665.976     46.997    582.046    593.947    654.073    582.046    582.046
 30.470    610.675    658.763    -48.087    581.769    594.196    646.332    581.769    581.769
 30.570    628.161    655.203    -27.043    581.494    595.650    641.041    581.494    581.494
 30.670    670.989    656.928     14.061    581.222    599.352    638.785    581.222    581.222
 30.770    618.538    666.391    -47.852    580.952    606.743    640.578    580.952    580.952
 30.870    673.337    685.369    -12.032    580.685    618.865    647.152    580.685    580.685
 30.970    726.000    712.142     13.858    580.420    634.870    657.638    580.420    580.420
 31.070    722.000    738.318    -16.318    580.158    650.320    668.085    580.158    580.158
 31.170    833.000    748.755     84.245    579.898    657.155    671.423    579.898    579.898
 31.270    719.000    733.795    -14.795    579.640    650.240    663.133    579.640    579.640
 31.370    718.000    702.324     15.676    579.385    634.354    647.312    579.385    579.385
 31.470    689.000    669.375     19.625    579.133    617.565    630.917    579.133    579.133
 31.570    676.000    643.542     32.458    578.882    604.490    617.920    578.882    578.882
 31.670    660.181    626.635     33.547    578.635    596.114    609.146    578.635    578.635
 31.770    707.000    616.764     90.236    578.389    591.440    603.707    578.389    578.389
 31.870    671.000    611.186     59.814    578.146    589.010    600.318    578.146    578.146
 31.970    598.000    607.836     -9.836    577.906    587.729    598.009    577.906    577.906
 32.070    647.000    605.587     41.413    577.668    587.002    596.250    577.668    577.668
 32.170    611.000    603.939      7.061    577.432    586.569    594.800    577.432    577.432
 32.270    605.000    602.690      2.310    577.199    586.331    593.556    577.199    577.199
 32.370    640.000    601.757     38.243    576.968    586.250    592.473    576.968    576.968
 32.470    653.000    601.101     51.899    576.740    586.315    591.524    576.740    576.740
 32.570    599.000    600.709     -1.709    576.514    586.528    590.694    576.514    576.514
 32.670    635.904    600.584     35.320    576.290    586.899    589.974    576.290    576.290
 32.770    631.815    600.745     31.070    576.069    587.452    589.360    576.069    576.069
 32.870    647.000    601.226     45.774    575.850    588.221    588.853    575.850    575.850
 32.970    650.000    602.087     47.913    575.634    589.258    588.461    575.634    575.634
 33.070    591.433    603.413    -11.980    575.420    590.635    588.195    575.420    575.420
 33.170    627.000    605.339     21.661    575.208    592.463    588.081    575.208    575.208
 33.270    600.000    608.090     -8.090    574.999    594.925    588.161    574.999    574.999
 33.370    624.000    612.105     11.895    574.792    598.374    588.519    574.792    574.792
 33.470    642.845    618.353     24.492    574.587    603.584    589.351    574.587    574.587
 33.570    642.000    629.022     12.978    574.385    612.305    591.095    574.385    574.385
 33.670    678.016    648.592     29.423    574.185    628.115    594.653    574.185    574.185
 33.770    730.345    684.682     45.663    573.987    657.093    601.559    573.987    573.987
 33.870    738.000    747.050     -9.050    573.792    707.033    613.781    573.792    573.792
 33.970    888.000    842.953     45.047    573.599    783.728    632.782    573.599    573.599
 34.070    955.362    968.551    -13.189    573.409    884.116    657.787    573.409    573.409
 34.170   1106.745   1098.346      8.399    573.221    987.850    683.652    573.221    573.221
 34.270   1207.000   1181.757     25.243    573.035   1054.557    700.178    573.035    573.035
 34.370   1169.000   1172.416     -3.416    572.851   1047.221    698.011    572.851    572.851
 34.470   1080.504   1076.325      4.179    572.670    970.623    678.358    572.670    572.670
 34.570    943.000    943.938     -0.938    572.491    865.034    651.394    572.491    572.491
 34.670    759.000    821.798    -62.798    572.314    767.610    626.505    572.314    572.314
 34.770    696.000    731.044    -35.044    572.140    695.231    607.956    572.140    572.140
 34.870    709.843    672.969     36.874    571.968    648.931    596.008    571.968    571.968
 34.970    702.000    639.452     62.548    571.798    622.228    589.022    571.798    571.798
 35.070    583.955    620.939    -36.983    571.630    607.495    585.073    571.630    571.630
 35.170    606.464    610.371     -3.907    571.465    599.099    582.736    571.465    571.465
 35.270    593.538    603.731    -10.192    571.302    593.831    581.200    571.302    571.302
 35.370    640.512    599.088     41.424    571.141    590.151    580.078    571.141    571.141
 35.470    668.000    595.589     72.411    570.982    587.375    579.195    570.982    570.982
 35.570    602.094    592.836      9.257    570.826    585.188    578.473    570.826    570.826
 35.670    586.000    590.619     -4.619    570.672    583.420    577.870    570.672    570.672
 35.770    598.000    588.804      9.196    570.520    581.964    577.359    570.520    570.520
 35.870    615.000    587.302     27.698    570.371    580.749    576.922    570.371    570.371
 35.970    541.157    586.049    -44.891    570.223    579.722    576.549    570.223    570.223
 36.070    556.605    584.998    -28.393    570.078    578.845    576.230    570.078    570.078
 36.170    568.000    584.116    -16.116    569.935    578.090    575.961    569.935    569.935
 36.270    537.634    583.378    -45.744    569.794    577.434    575.738    569.794    569.794
 36.370    602.000    582.767     19.233    569.655    576.862    575.560    569.655    569.655
 36.470    592.000    582.271      9.729    569.519    576.361    575.428    569.519    569.519
 36.570    553.000    581.884    -28.884    569.385    575.923    575.345    569.385    569.385
 36.670    605.000    581.604     23.396    569.253    575.540    575.315    569.253    569.253
 36.770    550.000    581.435    -31.435    569.123    575.210    575.347    569.123    569.123
 36.870    588.639    581.387      7.252    568.995    574.930    575.451    568.995    568.995
 36.970    552.773    581.477    -28.704    568.869    574.702    575.644    568.869    568.869
 37.070    588.000    581.739      6.261    568.746    574.538    575.946    568.746    568.746
 37.170    559.461    582.234    -22.773    568.624    574.462    576.396    568.624    568.624
 37.270    565.000    583.082    -18.082    568.505    574.532    577.054    568.505    568.505
 37.370    632.731    584.519     48.212    568.388    574.860    578.046    568.388    568.388
 37.470    582.000    586.991     -4.991    568.273    575.626    579.638    568.273    568.273
 37.570    545.000    591.274    -46.274    568.160    577.047    582.386    568.160    568.160
 37.670    602.937    598.554      4.383    568.049    579.288    587.314    568.049    568.049
 37.770    613.314    610.335      2.979    567.941    582.281    595.992    567.941    567.941
 37.870    605.589    627.925    -22.336    567.834    585.514    610.241    567.834    567.834
 37.970    633.000    651.434    -18.434    567.729    587.923    631.235    567.729    567.729
 38.070    686.000    678.780      7.220    567.627    588.375    658.025    567.627    567.627
 38.170    702.000    704.965     -2.965    567.526    586.684    685.800    567.526    567.526
 38.270    711.736    721.551     -9.815    567.428    583.735    705.238    567.428    567.428
 38.370    674.469    720.014    -45.545    567.332    580.526    706.819    567.332    567.332
 38.470    649.891    699.911    -50.019    567.237    577.658    689.492    567.237    567.237
 38.570    673.702    670.236      3.466    567.145    575.411    661.973    567.145    567.145
 38.670    634.484    640.983     -6.499    567.055    573.820    634.221    567.055    567.055
 38.770    614.000    617.618     -3.618    566.967    572.762    611.824    566.967    566.967
 38.870    571.000    601.422    -30.422    566.880    572.073    596.230    566.880    566.880
 38.970    592.997    591.307      1.690    566.796    571.619    586.485    566.796    566.796
 39.070    550.000    585.379    -35.379    566.714    571.308    580.785    566.714    566.714
 39.170    593.542    581.925     11.617    566.633    571.081    577.478    566.633    566.633
 39.270    570.000    579.796     -9.796    566.555    570.903    575.448    566.555    566.555
 39.370    591.583    578.356     13.227    566.479    570.759    574.076    566.479    566.479
 39.470    568.000    577.296     -9.296    566.404    570.638    573.062    566.404    566.404
 39.570    581.492    576.470      5.022    566.332    570.536    572.266    566.332    566.332
 39.670    564.000    575.806    -11.806    566.261    570.450    571.617    566.261    566.261
 39.770    576.000    575.262      0.738    566.192    570.378    571.076    566.192    566.192
 39.870    572.000    574.812     -2.812    566.126    570.319    570.619    566.126    566.126
 39.970    561.000    574.437    -13.437    566.061    570.271    570.227    566.061    566.061
 40.070    594.545    574.124     20.421    565.998    570.236    569.886    565.998    565.998
 40.170    581.731    573.862      7.869    565.937    570.211    569.588    565.937    565.937
 40.270    581.000    573.644      7.356    565.878    570.198    569.324    565.878    565.878
 40.370    607.280    573.466     33.815    565.820    570.197    569.089    565.820    565.820
 40.470    592.356    573.321     19.035    565.765    570.208    568.879    565.765    565.765
 40.570    600.622    573.209     27.412    565.711    570.233    568.689    565.711    565.711
 40.670    540.000    573.128    -33.128    565.660    570.271    568.516    565.660    565.660
 40.770    606.862    573.076     33.787    565.610    570.326    568.360    565.610    565.610
 40.870    543.000    573.054    -30.054    565.562    570.399    568.217    565.562    565.562
 40.970    558.000    573.062    -15.062    565.516    570.492    568.086    565.516    565.516
 41.070    585.321    573.103     12.218    565.471    570.608    567.967    565.471    565.471
 41.170    551.000    573.181    -22.181    565.429    570.752    567.857    565.429    565.429
 41.270    618.761    573.298     45.463    565.388    570.929    567.758    565.388    565.388
 41.370    528.169    573.462    -45.293    565.349    571.145    567.667    565.349    565.349
 41.470    540.000    573.681    -33.681    565.311    571.409    567.585    565.311    565.311
 41.570    561.000    573.967    -12.967    565.276    571.733    567.511    565.276    565.276
 41.670    597.000    574.336     22.664    565.242    572.133    567.446    565.242    565.242
 41.770    571.000    574.813     -3.813    565.210    572.633    567.391    565.210    565.210
 41.870    556.000    575.440    -19.440    565.180    573.275    567.346    565.180    565.180
 41.970    594.000    576.294     17.706    565.151    574.132    567.315    565.151    565.151
 42.070    532.505    577.537    -45.031    565.124    575.361    567.303    565.124    565.124
 42.170    581.480    579.490      1.989    565.099    577.271    567.322    565.099    565.099
 42.270    557.000    582.755    -25.755    565.076    580.441    567.395    565.076    565.076
 42.370    595.629    588.294      7.335    565.054    585.797    567.559    565.054    565.054
 42.470    643.000    597.373     45.627    565.034    594.556    567.861    565.034    565.034
 42.570    564.000    611.187    -47.187    565.015    607.871    568.348    565.015    565.015
 42.670    608.000    630.142    -22.142    564.999    626.131    569.035    564.999    564.999
 42.770    656.000    652.852      3.148    564.984    648.003    569.869    564.984    564.984
 42.870    626.000    675.112    -49.112    564.970    669.441    570.688    564.970    564.970
 42.970    631.000    689.861    -58.861    564.958    683.651    571.224    564.958    564.958
 43.070    736.586    690.565     46.021    564.948    684.347    571.225    564.948    564.948
 43.170    680.000    676.860      3.140    564.939    671.175    570.679    564.939    564.939
 43.270    690.683    654.960     35.723    564.932    650.115    569.822    564.932    564.932
 43.370    635.000    632.115      2.885    564.927    628.143    568.932    564.927    564.927
 43.470    587.000    612.805    -25.805    564.923    609.571    568.180    564.923    564.923
 43.570    552.000    598.612    -46.612    564.921    595.921    567.626    564.921    564.921
 43.670    583.404    589.237     -5.833    564.920    586.908    567.259    564.920    564.920
 43.770    581.000    583.513     -2.513    564.921    581.407    567.034    564.921    564.921
 43.870    605.000    580.162     24.838    564.923    578.187    566.902    564.923    564.923
 43.970    566.000    578.186    -12.186    564.927    576.290    566.826    564.927    564.927
 44.070    613.789    576.958     36.831    564.932    575.112    566.780    564.932    564.932
 44.170    550.217    576.137    -25.920    564.939    574.324    566.753    564.939    564.939
 44.270    541.734    575.553    -33.818    564.947    573.763    566.738    564.947    564.947
 44.370    551.284    575.122    -23.839    564.957    573.350    566.731    564.957    564.957
 44.470    565.805    574.803     -8.998    564.968    573.041    566.731    564.968    564.968
 44.570    606.000    574.568     31.432    564.981    572.813    566.737    564.981    564.981
 44.670    547.000    574.401    -27.401    564.995    572.649    566.748    564.995    564.995
 44.770    544.713    574.290    -29.577    565.011    572.538    566.764    565.011    565.011
 44.870    613.121    574.226     38.895    565.028    572.469    566.785    565.028    565.028
 44.970    536.541    574.201    -37.660    565.047    572.438    566.809    565.047    565.047
 45.070    603.000    574.212     28.788    565.066    572.440    566.838    565.066    565.066
 45.170    565.000    574.253     -9.253    565.088    572.470    566.872    565.088    565.088
 45.270    595.000    574.324     20.676    565.110    572.526    566.909    565.110    565.110
 45.370    561.000    574.422    -13.422    565.135    572.606    566.950    565.135    565.135
 45.470    567.000    574.545     -7.545    565.160    572.709    566.996    565.160    565.160
 45.570    584.000    574.693      9.307    565.187    572.833    567.046    565.187    565.187
 45.670    609.878    574.865     35.013    565.215    572.980    567.100    565.215    565.215
 45.770    617.771    575.063     42.708    565.244    573.148    567.159    565.244    565.244
 45.870    566.000    575.287     -9.287    565.275    573.339    567.223    565.275    565.275
 45.970    588.195    575.537     12.658    565.307    573.552    567.291    565.307    565.307
 46.070    588.000    575.816     12.184    565.341    573.791    567.365    565.341    565.341
 46.170    589.397    576.126     13.271    565.375    574.055    567.445    565.375    565.375
 46.270    585.000    576.470      8.530    565.411    574.349    567.532    565.411    565.411
 46.370    597.000    576.852     20.148    565.449    574.675    567.625    565.449    565.449
 46.470    577.534    577.276      0.258    565.487    575.037    567.725    565.487    565.487
 46.570    609.300    577.749     31.551    565.527    575.440    567.834    565.527    565.527
 46.670    568.071    578.277    -10.206    565.568    575.892    567.952    565.568    565.568
 46.770    574.000    578.873     -4.873    565.610    576.401    568.080    565.610    565.610
 46.870    597.474    579.549     17.926    565.653    576.979    568.221    565.653    565.653
 46.970    564.000    580.326    -16.326    565.698    577.645    568.377    565.698    565.698
 47.070    564.652    581.240    -16.588    565.744    578.429    568.552    565.744    565.744
 47.170    596.890    582.355     14.534    565.791    579.391    568.752    565.791    565.791
 47.270    614.000    583.798     30.202    565.839    580.643    568.990    565.839    565.839
 47.370    533.000    585.804    -52.804    565.888    582.396    569.292    565.888    565.888
 47.470    569.001    588.776    -19.775    565.938    585.011    569.697    565.938    565.938
 47.570    550.186    593.316    -43.131    565.990    589.030    570.267    565.990    565.990
 47.670    572.000    600.170    -28.170    566.043    595.122    571.076    566.043    566.043
 47.770    611.000    610.014      0.986    566.097    603.896    572.193    566.097    566.097
 47.870    596.000    623.084    -27.084    566.151    615.562    573.644    566.151    566.151
 47.970    640.000    638.700      1.300    566.207    629.506    575.361    566.207    566.207
 48.070    621.729    654.779    -33.050    566.264    643.853    577.140    566.264    566.264
 48.170    712.000    667.604     44.396    566.323    655.257    578.614    566.323    566.323
 48.270    610.000    672.869    -62.869    566.382    659.837    579.356    566.382    566.382
 48.370    660.987    668.743     -7.756    566.442    655.944    579.188    566.442    566.442
 48.470    680.782    657.768     23.014    566.503    645.860    578.367    566.503    566.503
 48.570    640.000    644.441     -4.441    566.565    633.626    577.347    566.565    566.565
 48.670    595.456    632.289    -36.834    566.629    622.408    576.485    566.629    566.629
 48.770    585.000    623.171    -38.171    566.693    613.870    575.977    566.693    566.693
 48.870    636.000    617.640     18.360    566.758    608.498    575.888    566.758    566.758
 48.970    596.000    615.447    -19.447    566.824    606.054    576.208    566.824    566.824
 49.070    632.000    616.019     15.981    566.892    606.000    576.903    566.892    566.892
 49.170    626.620    618.825      7.795    566.960    607.831    577.947    566.960    566.960
 49.270    659.796    623.632     36.164    567.029    611.286    579.369    567.029    567.029
 49.370    597.000    630.718    -33.718    567.099    616.516    581.293    567.099    567.099
 49.470    657.697    641.303     16.394    567.170    624.405    584.059    567.170    567.170
 49.570    646.000    658.529    -12.529    567.241    637.282    588.475    567.241    567.241
 49.670    722.550    689.279     33.271    567.314    660.286    596.285    567.314    567.314
 49.770    714.000    746.647    -32.647    567.388    703.232    610.761    567.388    567.388
 49.870    801.000    851.837    -50.837    567.462    781.975    637.253    567.462    567.462
 49.970   1029.000   1032.507     -3.507    567.537    917.051    682.878    567.537    567.537
 50.070   1253.000   1313.393    -60.393    567.614   1127.026    753.812    567.614    567.614
 50.170   1621.000   1700.267    -79.267    567.691   1416.237    851.506    567.691    567.691
 50.270   2115.000   2160.922    -45.922    567.768   1760.630    967.828    567.768    567.768
 50.370   2598.000   2613.494    -15.494    567.847   2099.041   1082.100    567.847    567.847
 50.470   2892.000   2935.057    -43.057    567.926   2339.613   1163.264    567.926    567.926
 50.570   2923.000   3008.916    -85.916    568.007   2395.127   1181.815    568.007    568.007
 50.670   2807.000   2803.459      3.541    568.087   2241.953   1129.717    568.087    568.087
 50.770   2381.000   2401.270    -20.270    568.169   1941.859   1027.754    568.169    568.169
 50.870   1928.000   1933.355     -5.355    568.252   1592.858    908.924    568.252    568.252
 50.970   1499.000   1506.578     -7.578    568.335   1274.953    800.106    568.335    568.335
 51.070   1177.000   1178.018     -1.018    568.419   1030.922    715.623    568.419    568.419
 51.170    987.000    958.805     28.195    568.503    869.119    658.264    568.503    568.503
 51.270    902.000    830.580     71.420    568.589    775.698    623.522    568.589    568.589
 51.370    732.963    764.065    -31.102    568.675    728.416    604.365    568.675    568.675
 51.470    821.000    731.985     89.015    568.762    706.238    594.543    568.762    568.762
 51.570    778.000    714.619     63.381    568.849    693.626    589.874    568.849    568.849
 51.670    726.391    701.035     25.356    568.937    681.904    588.096    568.937    568.937
 51.770    696.000    687.844      8.156    569.026    668.719    588.173    569.026    569.026
 51.870    719.000    675.661     43.339    569.115    655.168    589.623    569.115    569.115
 51.970    679.900    665.755     14.145    569.205    642.926    592.042    569.205    569.205
 52.070    694.000    658.612     35.388    569.295    633.074    594.834    569.295    569.295
 52.170    654.000    653.728      0.272    569.386    625.980    597.131    569.386    569.386
 52.270    686.000    649.961     36.039    569.478    621.488    597.946    569.478    569.478
 52.370    609.587    646.320    -36.733    569.570    619.175    596.710    569.570    569.570
 52.470    702.000    642.638     59.362    569.663    618.591    593.705    569.663    569.663
 52.570    688.000    639.469     48.531    569.757    619.427    589.795    569.757    569.757
 52.670    643.511    637.617      5.894    569.851    621.613    585.852    569.851    569.851
 52.770    621.000    637.933    -16.933    569.945    625.407    582.469    569.945    569.945
 52.870    676.331    641.432     34.899    570.040    631.548    579.923    570.040    570.040
 52.970    696.835    649.606     47.229    570.135    641.492    578.248    570.135    570.135
 53.070    707.000    664.798     42.202    570.231    657.702    577.324    570.231    570.231
 53.170    729.000    690.498     38.502    570.328    683.804    577.017    570.328    570.328
 53.270    770.458    731.292     39.166    570.425    724.344    577.366    570.425    570.425
 53.370    842.000    791.547     50.453    570.522    783.782    578.276    570.522    570.522
 53.470    858.000    873.844    -15.844    570.620    864.732    579.719    570.620    570.620
 53.570   1010.397    976.497     33.899    570.718    965.581    581.620    570.718    570.718
 53.670   1076.000   1090.961    -14.961    570.817   1077.973    583.792    570.817    570.817
 53.770   1158.000   1199.699    -41.699    570.916   1184.730    585.876    570.916    570.916
 53.870   1242.000   1276.831    -34.831    571.015   1260.489    587.359    571.015    571.015
 53.970   1301.541   1297.030      4.511    571.115   1280.423    587.735    571.115    571.115
 54.070   1239.000   1252.393    -13.393    571.215   1236.782    586.847    571.215    571.215
 54.170   1185.000   1159.545     25.455    571.315   1145.864    585.020    571.315    571.315
 54.270    963.000   1046.243    -83.243    571.416   1034.881    582.801    571.416    571.416
 54.370    935.000    935.683     -0.683    571.517    926.576    580.644    571.517    571.517
 54.470    800.000    841.549    -41.549    571.619    834.363    578.820    571.619    571.619
 54.570    789.054    769.215     19.839    571.721    763.514    577.432    571.721    571.721
 54.670    680.000    718.227    -38.227    571.823    713.585    576.472    571.823    571.823
 54.770    669.077    684.854    -15.777    571.925    680.919    575.864    571.925    571.925
 54.870    641.000    664.314    -23.314    572.028    660.829    575.515    572.028    572.028
 54.970    656.000    652.277      3.723    572.131    649.071    575.338    572.131    572.131
 55.070    665.000    645.524     19.476    572.234    642.489    575.270    572.234    572.234
 55.170    650.807    641.992      8.815    572.338    639.062    575.268    572.338    572.338
 55.270    634.000    640.506     -6.506    572.441    637.637    575.310    572.441    572.441
 55.370    662.000    640.467     21.533    572.545    637.629    575.383    572.545    572.545
 55.470    605.987    641.606    -35.619    572.649    638.773    575.482    572.649    572.649
 55.570    674.000    643.844     30.156    572.753    640.992    575.605    572.753    572.753
 55.670    669.000    647.220     21.780    572.858    644.326    575.751    572.858    572.858
 55.770    603.032    651.894    -48.862    572.962    648.932    575.923    572.962    572.962
 55.870    645.000    658.204    -13.204    573.067    655.143    576.127    573.067    573.067
 55.970    689.000    666.825     22.175    573.172    663.621    576.374    573.172    573.172
 56.070    689.000    679.077      9.923    573.277    675.665    576.685    573.277    573.277
 56.170    709.000    697.456     11.544    573.382    693.730    577.103    573.382    573.382
 56.270    681.231    726.373    -45.142    573.487    722.152    577.700    573.487    573.487
 56.370    740.648    772.942    -32.294    573.593    767.925    578.595    573.593    573.593
 56.470    814.929    847.348    -32.419    573.698    841.064    579.958    573.698    573.698
 56.570   1009.947    962.098     47.848    573.803    953.869    581.996    573.803    573.803
 56.670   1061.000   1129.442    -68.442    573.909   1118.385    584.915    573.909    573.909
 56.770   1293.651   1356.779    -63.128    574.015   1341.890    588.836    574.015    574.015
 56.870   1594.215   1640.789    -46.573    574.120   1621.123    593.706    574.120    574.120
 56.970   2031.000   1961.645     69.355    574.226   1936.593    599.197    574.226    574.226
 57.070   2250.980   2278.698    -27.718    574.332   2248.331    604.635    574.332    574.332
 57.170   2550.000   2530.701     19.299    574.437   2496.113    609.002    574.437    574.437
 57.270   2679.000   2650.296     28.704    574.543   2613.696    611.182    574.543    574.543
 57.370   2531.165   2599.055    -67.890    574.648   2563.274    610.539    574.648    574.648
 57.470   2364.000   2395.217    -31.217    574.754   2362.753    607.379    574.754    574.754
 57.570   2067.000   2099.109    -32.109    574.860   2071.441    602.708    574.860    574.860
 57.670   1834.852   1776.701     58.151    574.965   1754.210    597.631    574.965    574.965
 57.770   1350.000   1477.356   -127.356    575.070   1459.587    592.989    575.070    575.070
 57.870   1221.000   1229.129     -8.129    575.176   1215.138    589.284    575.176    575.176
 57.970    999.000   1041.758    -42.758    575.281   1030.371    586.752    575.281    575.281
 58.070    882.000    912.137    -30.137    575.386    902.097    585.482    575.386    575.386
 58.170    794.846    830.520    -35.674    575.491    820.484    585.560    575.491    575.491
 58.270    778.000    785.934     -7.934    575.596    774.355    587.190    575.596    575.596
 58.370    779.000    769.661      9.339    575.701    754.622    590.741    575.701    575.701
 58.470    749.000    776.480    -27.480    575.805    755.590    596.684    575.805    575.805
 58.570    854.081    804.108     49.972    575.910    774.599    605.395    575.910    575.910
 58.670    833.000    851.584    -18.584    576.014    810.704    616.857    576.014    576.014
 58.770    825.000    917.319    -92.319    576.118    863.026    630.365    576.118    576.118
 58.870    968.208    997.370    -29.162    576.222    929.209    644.330    576.222    576.222
 58.970   1061.633   1084.365    -22.732    576.326   1004.300    656.339    576.326    576.326
 59.070   1146.000   1168.048    -22.048    576.429   1080.773    663.661    576.429    576.429
 59.170   1199.499   1238.309    -38.810    576.532   1150.416    664.398    576.532    576.532
 59.270   1319.725   1288.587     31.138    576.635   1206.618    658.597    576.635    576.635
 59.370   1302.000   1315.708    -13.708    576.738   1244.324    648.135    576.738    576.738
 59.470   1398.000   1317.926     80.074    576.840   1259.239    635.557    576.840    576.840
 59.570   1259.314   1296.545    -37.232    576.943   1250.450    623.076    576.943    576.943
 59.670   1257.887   1259.479     -1.592    577.045   1224.369    612.189    577.045    577.045
 59.770   1233.000   1220.118     12.882    577.146   1193.657    603.623    577.146    577.146
 59.870   1268.000   1191.864     76.136    577.247   1171.658    597.438    577.247    577.247
 59.970   1146.320   1184.029    -37.709    577.348   1168.074    593.247    577.348    577.348
 60.070   1211.000   1201.452      9.548    577.449   1188.306    590.491    577.449    577.449
 60.170   1263.942   1245.978     17.964    577.549   1234.704    588.668    577.549    577.549
 60.270   1346.983   1316.274     30.709    577.649   1306.279    587.439    577.649    577.649
 60.370   1384.033   1404.914    -20.881    577.749   1395.804    586.609    577.749    577.749
 60.470   1521.000   1495.795     25.205    577.848   1487.290    586.072    577.848    577.848
 60.570   1574.000   1564.903      9.097    577.947   1556.793    585.766    577.947    577.947
 60.670   1526.967   1586.758    -59.791    578.045   1578.880    585.652    578.045    578.045
 60.770   1542.311   1546.880     -4.569    578.143   1539.090    585.706    578.143    578.143
 60.870   1518.000   1450.891     67.109    578.241   1443.046    585.912    578.241    578.241
 60.970   1359.000   1319.866     39.134    578.338   1311.813    586.269    578.338    578.338
 61.070   1143.030   1178.308    -35.278    578.434   1169.872    586.791    578.434    578.434
 61.170   1026.000   1046.025    -20.025    578.531   1036.987    587.518    578.531    578.531
 61.270    939.313    935.625      3.688    578.626    925.681    588.538    578.626    578.626
 61.370    855.000    852.971      2.029    578.722    841.651    590.018    578.722    578.722
 61.470    767.734    798.996    -31.262    578.816    785.534    592.255    578.816    578.816
 61.570    749.000    772.172    -23.172    578.911    755.325    595.728    578.911    578.911
 61.670    739.742    770.850    -31.107    579.005    748.669    601.143    579.005    579.005
 61.770    753.696    794.766    -41.070    579.098    764.383    609.422    579.098    579.098
 61.870    879.229    845.278     33.951    579.191    802.794    621.592    579.191    579.191
 61.970    902.642    924.310    -21.668    579.283    864.925    638.555    579.283    579.283
 62.070   1034.037   1032.323      1.714    579.374    950.823    660.725    579.374    579.374
 62.170   1183.971   1165.897     18.074    579.465   1057.555    687.621    579.465    579.465
 62.270   1286.000   1315.580    -29.580    579.556   1177.411    717.503    579.556    579.556
 62.370   1451.000   1464.542    -13.542    579.646   1296.796    747.147    579.646    579.646
 62.470   1574.000   1588.941    -14.941    579.735   1396.487    771.939    579.735    579.735
 62.570   1623.000   1662.208    -39.208    579.824   1455.080    786.721    579.824    579.824
 62.670   1641.000   1665.138    -24.138    579.912   1457.093    787.763    579.912    579.912
 62.770   1571.000   1596.617    -25.617    580.000   1401.614    774.856    580.000    580.000
 62.870   1455.085   1474.365    -19.280    580.086   1302.891    751.457    580.086    580.086
 62.970   1336.171   1324.716     11.455    580.173   1182.119    722.704    580.173    580.173
 63.070   1117.000   1171.992    -54.992    580.258   1058.870    693.340    580.258    580.258
 63.170   1012.942   1033.541    -20.599    580.343    947.109    666.752    580.343    580.343
 63.270    891.000    919.035    -28.035    580.427    854.618    644.831    580.427    580.427
 63.370    794.000    831.545    -37.545    580.511    783.867    628.180    580.511    580.511
 63.470    760.000    769.369     -9.369    580.593    733.481    616.473    580.593    580.593
 63.570    725.000    728.162     -3.162    580.676    699.957    608.870    580.676    580.676
 63.670    727.000    702.851     24.149    580.757    679.208    604.388    580.757    580.757
 63.770    733.000    688.999     44.001    580.838    667.651    602.172    580.838    580.838
 63.870    663.793    683.515    -19.723    580.917    662.776    601.641    580.917    580.917
 63.970    701.661    684.887     16.775    580.997    663.310    602.554    580.997    580.997
 64.070    688.858    693.117     -4.259    581.075    669.138    605.030    581.075    581.075
 64.170    690.316    709.526    -19.210    581.153    681.088    609.559    581.153    581.153
 64.270    717.112    736.435    -19.323    581.229    700.623    616.999    581.229    581.229
 64.370    785.000    776.684      8.316    581.306    729.407    628.523    581.306    581.306
 64.470    914.000    832.907     81.093    581.381    768.737    645.471    581.381    581.381
 64.570    862.074    906.569    -44.494    581.455    818.862    669.056    581.455    581.455
 64.670   1051.000    996.836     54.164    581.529    878.281    699.949    581.529    581.529
 64.770   1136.000   1099.462     36.538    581.602    943.120    737.779    581.602    581.602
 64.870   1267.146   1205.908     61.239    581.674   1006.719    780.672    581.674    581.674
 64.970   1375.000   1303.319     71.681    581.745   1059.930    824.926    581.745    581.745
 65.070   1433.000   1376.464     56.536    581.815   1093.117    864.952    581.815    581.815
 65.170   1394.140   1412.106    -17.966    581.884   1099.974    893.821    581.884    581.884
 65.270   1438.000   1403.771     34.229    581.953   1080.462    905.095    581.953    581.953
 65.370   1422.000   1354.242     67.758    582.020   1040.305    895.828    582.020    582.020
 65.470   1344.000   1274.566     69.434    582.087    988.180    868.385    582.087    582.087
 65.570   1240.470   1179.628     60.842    582.153    932.740    828.989    582.153    582.153
 65.670   1132.171   1083.029     49.143    582.218    880.548    784.676    582.218    582.218
 65.770   1000.000    994.191      5.809    582.282    835.232    741.240    582.282    582.282
 65.870    899.043    917.895    -18.852    582.345    797.675    702.579    582.345    582.345
 65.970    807.735    855.238    -47.503    582.407    766.937    670.730    582.407    582.407
 66.070    792.000    805.255    -13.255    582.468    741.559    646.187    582.468    582.468
 66.170    754.000    766.305    -12.305    582.528    720.505    628.349    582.528    582.528
 66.270    690.000    736.671    -46.671    582.588    703.263    616.012    582.588    582.588
 66.370    719.000    714.673      4.327    582.646    689.531    607.799    582.646    582.646
 66.470    699.000    698.788      0.212    582.703    679.043    602.454    582.703    582.703
 66.570    697.000    687.761      9.239    582.759    671.537    598.986    582.759    582.759
 66.670    648.000    680.642    -32.642    582.815    666.766    596.691    582.815    582.815
 66.770    626.000    676.762    -50.762    582.869    664.515    595.114    582.869    582.869
 66.870    601.000    675.696    -74.696    582.922    664.632    593.984    582.922    582.922
 66.970    664.000    677.282    -13.282    582.974    667.108    593.146    582.974    582.974
 67.070    677.000    681.705     -4.705    583.025    672.205    592.522    583.025    583.025
 67.170    654.000    689.657    -35.657    583.076    680.648    592.082    583.076    583.076
 67.270    702.082    702.562     -0.479    583.125    693.858    591.824    583.125    583.125
 67.370    740.000    722.845     17.155    583.172    714.230    591.782    583.172    583.172
 67.470    722.000    754.196    -32.196    583.219    745.394    592.013    583.219    583.219
 67.570    837.537    801.682     35.855    583.265    792.328    592.607    583.265    583.265
 67.670    875.000    871.547      3.453    583.310    861.160    593.679    583.310    583.310
 67.770    943.000    970.501    -27.501    583.353    958.478    595.354    583.353    583.353
 67.870   1151.439   1104.397     47.043    583.396   1090.026    597.739    583.396    583.396
 67.970   1212.000   1276.357    -64.357    583.437   1258.872    600.892    583.437    583.437
 68.070   1532.000   1484.640     47.360    583.478   1463.316    604.775    583.478    583.478
 68.170   1725.000   1720.630      4.370    583.517   1694.914    609.218    583.517    583.517
 68.270   2040.000   1967.314     72.686    583.555   1936.990    613.887    583.555    583.555
 68.370   2279.000   2198.669     80.331    583.591   2164.033    618.273    583.591    583.591
 68.470   2392.000   2381.317     10.683    583.627   2343.314    621.725    583.627    583.627
 68.570   2482.000   2481.262      0.738    583.662   2441.497    623.579    583.662    583.662
 68.670   2468.922   2476.500     -7.577    583.695   2436.995    623.405    583.695    583.695
 68.770   2359.000   2368.181     -9.181    583.727   2330.927    621.225    583.727    583.727
 68.870   2199.000   2179.927     19.073    583.758   2146.446    617.496    583.758    583.758
 68.970   1968.000   1946.061     21.939    583.788   1917.211    612.887    583.788    583.788
 69.070   1619.636   1699.447    -79.811    583.816   1675.454    608.033    583.816    583.816
 69.170   1420.691   1465.329    -44.638    583.844   1445.935    603.428    583.844    583.844
 69.270   1326.628   1259.948     66.680    583.870   1244.581    599.391    583.870    583.870
 69.370   1079.000   1091.249    -12.249    583.895   1079.189    596.073    583.895    583.895
 69.470   1008.000    960.462     47.538    583.918    950.969    593.498    583.918    583.918
 69.570    882.000    864.134     17.866    583.941    856.538    591.599    583.941    583.941
 69.670    867.000    796.259     70.741    583.962    790.007    590.257    583.962    583.962
 69.770    888.000    750.106    137.894    583.982    744.774    589.341    583.982    583.982
 69.870    819.000    719.476     99.524    584.000    714.763    588.732    584.000    584.000
 69.970    749.000    699.362     49.638    584.017    695.061    588.331    584.017    584.017
 70.070    650.611    686.102    -35.491    584.034    682.077    588.066    584.034    584.034
 70.170    685.000    677.226      7.774    584.048    673.389    587.890    584.048    584.048
 70.270    725.000    671.185     53.815    584.062    667.477    587.773    584.062    584.062
 70.370    684.000    667.059     16.941    584.074    663.438    587.696    584.074    584.074
 70.470    655.000    664.337     -9.337    584.085    660.771    587.650    584.085    584.085
 70.570    633.000    662.758    -29.758    584.094    659.220    587.630    584.094    584.094
 70.670    649.553    662.222    -12.669    584.102    658.686    587.635    584.102    584.102
 70.770    674.000    662.758     11.242    584.109    659.196    587.667    584.109    584.109
 70.870    661.633    664.533     -2.900    584.115    660.912    587.730    584.115    584.115
 70.970    666.000    667.902     -1.902    584.119    664.180    587.833    584.119    584.119
 71.070    660.182    673.503    -13.322    584.122    669.619    587.995    584.122    584.122
 71.170    682.000    682.385     -0.385    584.123    678.250    588.243    584.123    584.123
 71.270    687.000    696.159     -9.159    584.124    691.642    588.620    584.124    584.124
 71.370    727.000    717.137      9.863    584.122    712.044    589.187    584.122    584.122
 71.470    753.859    748.389      5.471    584.120    742.445    590.024    584.120    584.120
 71.570    788.000    793.636     -5.636    584.116    786.466    591.231    584.116    584.116
 71.670    840.000    856.896    -16.896    584.110    848.017    592.913    584.110    584.110
 71.770    947.000    941.817      5.183    584.104    930.650    595.167    584.104    584.104
 71.870   1052.000   1050.741      1.259    584.095   1036.645    598.056    584.095    584.095
 71.970   1180.249   1183.603     -3.354    584.086   1165.939    601.578    584.086    584.086
 72.070   1354.000   1336.844     17.156    584.075   1315.068    605.642    584.075    584.075
 72.170   1537.000   1502.528     34.472    584.062   1476.305    610.041    584.062    584.062
 72.270   1706.000   1667.767     38.233    584.048   1637.105    614.437    584.048    584.048
 72.370   1817.207   1814.790      2.417    584.033   1780.166    618.366    584.033    584.033
 72.470   1897.000   1922.655    -25.655    584.016   1885.102    621.281    584.016    584.016
 72.570   1907.000   1972.141    -65.141    583.998   1933.193    622.678    583.998    583.998
 72.670   1904.509   1953.169    -48.660    583.979   1914.621    622.296    583.979    583.979
 72.770   1850.000   1869.750    -19.750    583.958   1833.282    620.240    583.958    583.958
 72.870   1749.791   1737.834     11.957    583.935   1704.699    616.931    583.935    583.935
 72.970   1505.000   1578.261    -73.261    583.911   1549.161    612.911    583.911    583.911
 73.070   1419.056   1410.530      8.526    583.886   1385.663    608.685    583.886    583.886
 73.170   1276.000   1249.803     26.197    583.859   1228.979    604.639    583.859    583.859
 73.270   1047.000   1106.223    -59.223    583.830   1089.003    601.024    583.830    583.830
 73.370    955.000    985.241    -30.241    583.800    971.062    597.964    583.800    583.800
 73.470    848.000    888.388    -40.388    583.769    876.659    595.488    583.769    583.769
 73.570    850.000    814.304     35.696    583.736    804.470    593.563    583.736    583.736
 73.670    732.349    759.855    -27.506    583.702    751.429    592.122    583.702    583.702
 73.770    740.000    721.166     18.834    583.666    713.736    591.090    583.666    583.666
 73.870    734.000    694.397     39.603    583.628    687.623    590.398    583.628    583.628
 73.970    669.000    676.239     -7.239    583.590    669.834    589.990    583.590    583.590
 74.070    659.000    664.116     -5.116    583.549    657.829    589.832    583.549    583.549
 74.170    641.000    656.193    -15.193    583.507    649.791    589.908    583.507    583.507
 74.270    608.557    651.260    -42.703    583.464    644.510    590.214    583.464    583.464
 74.370    609.000    648.561    -39.561    583.419    641.225    590.758    583.419    583.419
 74.470    654.000    647.632      6.368    583.372    639.468    591.543    583.372    583.372
 74.570    641.000    648.158     -7.158    583.324    638.934    592.560    583.324    583.324
 74.670    619.000    649.867    -30.867    583.274    639.374    593.784    583.274    583.274
 74.770    652.000    652.453     -0.453    583.223    640.538    595.161    583.223    583.223
 74.870    645.017    655.529    -10.511    583.171    642.122    596.606    583.171    583.171
 74.970    696.000    658.605     37.395    583.116    643.755    598.000    583.116    583.116
 75.070    697.336    661.106     36.229    583.060    645.003    599.202    583.060    583.060
 75.170    720.000    662.463     57.537    583.003    645.440    600.068    583.003    583.003
 75.270    696.000    662.282     33.718    582.944    644.763    600.506    582.944    582.944
 75.370    697.000    660.528     36.472    582.883    642.931    600.521    582.883    582.883
 75.470    676.000    657.579     18.421    582.821    640.198    600.240    582.821    582.821
 75.570    673.946    654.106     19.840    582.758    637.023    599.873    582.758    582.758
 75.670    710.000    650.912     59.088    582.692    633.945    599.685    582.692    582.692
 75.770    717.000    648.826     68.174    582.625    631.507    599.963    582.625    582.625
 75.870    658.000    648.687      9.313    582.557    630.232    601.022    582.557    582.557
 75.970    659.000    651.341      7.659    582.487    630.629    603.202    582.487    582.487
 76.070    616.936    657.641    -40.705    582.415    633.186    606.864    582.415    582.415
 76.170    657.000    668.403    -11.403    582.342    638.356    612.373    582.342    582.342
 76.270    710.000    684.329     25.671    582.267    646.518    620.052    582.267    582.267
 76.370    664.376    705.880    -41.504    582.191    657.911    630.122    582.191    582.191
 76.470    756.000    733.107     22.893    582.113    672.540    642.628    582.113    582.113
 76.570    773.931    765.485      8.445    582.033    690.097    657.357    582.033    582.033
 76.670    808.439    801.761      6.678    581.952    709.867    673.766    581.952    581.952
 76.770    826.635    839.831    -13.195    581.869    730.672    690.935    581.869    581.869
 76.870    821.000    876.686    -55.686    581.784    750.833    707.533    581.784    581.784
 76.970    960.840    908.490     52.350    581.698    768.218    721.859    581.698    581.698
 77.070    966.000    931.001     34.999    581.610    780.469    732.029    581.610    581.610
 77.170    942.000    940.546      1.454    581.521    785.546    736.410    581.521    581.521
 77.270    934.000    935.341     -1.341    581.430    782.460    734.210    581.430    581.430
 77.370    965.064    916.279     48.785    581.337    771.700    725.827    581.337    581.337
 77.470    857.633    886.496    -28.863    581.243    755.004    712.660    581.243    581.243
 77.570    800.387    850.132    -49.745    581.147    734.665    696.553    581.147    581.147
 77.670    837.792    811.189     26.604    581.049    712.901    679.290    581.049    581.049
 77.770    782.000    772.931      9.069    580.950    691.519    662.326    580.950    580.950
 77.870    755.000    737.711     17.289    580.849    671.823    646.710    580.849    580.849
 77.970    737.000    706.985     30.015    580.747    654.620    633.091    580.747    580.747
 78.070    648.000    681.415    -33.415    580.643    640.277    621.766    580.643    580.643
 78.170    629.000    661.023    -32.023    580.537    628.804    612.745    580.537    580.537
 78.270    600.000    645.374    -45.374    580.430    619.960    605.835    580.430    580.430
 78.370    623.000    633.767    -10.767    580.321    613.356    600.725    580.321    580.321
 78.470    649.844    625.405     24.439    580.210    608.549    597.061    580.210    580.210
 78.570    621.000    619.518      1.482    580.098    605.111    594.499    580.098    580.098
 78.670    624.000    615.439      8.561    579.984    602.673    592.745    579.984    579.984
 78.770    601.000    612.639    -11.639    579.868    600.940    591.563    579.868    579.868
 78.870    636.664    610.729     25.935    579.751    599.695    590.782    579.751    579.751
 78.970    577.659    609.439    -31.779    579.632    598.786    590.281    579.632    579.632
 79.070    593.000    608.593    -15.593    579.511    598.117    589.983    579.511    579.511
 79.170    582.000    608.087    -26.087    579.389    597.628    589.845    579.389    579.389
 79.270    641.000    607.870     33.130    579.265    597.288    589.845    579.265    579.265
 79.370    572.185    607.928    -35.743    579.140    597.086    589.978    579.140    579.140
 79.470    610.000    608.277      1.723    579.013    597.028    590.258    579.013    579.013
 79.570    598.000    608.964    -10.964    578.884    597.129    590.715    578.884    578.884
 79.670    625.000    610.072     14.928    578.753    597.418    591.404    578.753    578.753
 79.770    622.462    611.728     10.734    578.621    597.933    592.411    578.621    578.621
 79.870    594.959    614.120    -19.161    578.487    598.726    593.875    578.487    578.487
 79.970    651.000    617.521     33.479    578.352    599.864    596.003    578.352    578.352
 80.070    660.097    622.320     37.777    578.215    601.429    599.097    578.215    578.215
 80.170    597.000    629.047    -32.047    578.076    603.531    603.582    578.076    578.076
 80.270    597.441    638.408    -40.967    577.936    606.306    610.023    577.936    577.936
 80.370    620.000    651.280    -31.280    577.794    609.925    619.131    577.794    577.794
 80.470    668.567    668.693     -0.126    577.650    614.590    631.730    577.650    577.650
 80.570    677.000    691.754    -14.754    577.505    620.531    648.698    577.505    577.505
 80.670    718.293    721.522     -3.229    577.358    627.990    670.854    577.358    577.358
 80.770    760.000    758.851      1.149    577.209    637.214    698.803    577.209    577.209
 80.870    833.000    804.194     28.806    577.059    648.435    732.769    577.059    577.059
 80.970    873.000    857.382     15.618    576.907    661.831    772.401    576.907    576.907
 81.070    986.000    917.386     68.614    576.753    677.460    816.617    576.753    576.753
 81.170   1045.000    982.120     62.880    576.598    695.173    863.480    576.598    576.598
 81.270   1084.000   1048.353     35.647    576.441    714.545    910.184    576.441    576.441
 81.370   1162.000   1111.808     50.192    576.283    734.852    953.177    576.283    576.283
 81.470   1220.000   1167.555     52.445    576.122    755.098    988.526    576.122    576.122
 81.570   1204.703   1210.838     -6.135    575.961    774.160   1012.598    575.961    575.961
 81.670   1176.973   1238.132    -61.159    575.797    791.013   1022.893    575.797    575.797
 81.770   1337.000   1247.632     89.368    575.632    804.731   1018.527    575.632    575.632
 81.870   1243.000   1239.470      3.530    575.466    814.672   1000.277    575.466    575.466
 81.970   1226.000   1215.391     10.609    575.297    820.485    970.234    575.297    575.297
 82.070   1233.967   1178.349     55.618    575.127    822.103    931.419    575.127    575.127
 82.170   1181.000   1132.013     48.987    574.956    819.675    887.352    574.956    574.956
 82.270   1117.000   1080.134     36.866    574.783    813.437    841.546    574.783    574.783
 82.370    998.320   1026.041    -27.721    574.608    803.689    797.032    574.608    574.608
 82.470    944.525    972.449    -27.923    574.431    790.880    756.075    574.431    574.431
 82.570    901.622    921.461    -19.839    574.253    775.696    720.092    574.253    574.253
 82.670    906.605    874.560     32.044    574.074    758.987    689.718    574.074    574.074
 82.770    804.000    832.568    -28.568    573.893    741.573    664.955    573.893    573.893
 82.870    790.157    795.683     -5.525    573.710    724.103    645.352    573.710    573.710
 82.970    693.000    763.668    -70.668    573.525    707.053    630.197    573.525    573.525
 83.070    717.903    736.107    -18.204    573.339    690.803    618.693    573.339    573.339
 83.170    762.715    712.609     50.106    573.152    675.725    610.078    573.152    573.152
 83.270    670.291    692.883    -22.592    572.962    662.180    603.701    572.962    572.962
 83.370    701.774    676.727     25.047    572.772    650.482    599.044    572.772    572.772
 83.470    615.000    663.986    -48.986    572.579    640.864    595.720    572.579    572.579
 83.570    592.000    654.519    -62.519    572.385    633.458    593.457    572.385    572.385
 83.670    642.000    648.175     -6.175    572.190    628.303    592.064    572.190    572.190
 83.770    658.365    644.762     13.603    571.993    625.340    591.408    571.993    571.993
 83.870    619.607    644.025    -24.418    571.794    624.419    591.386    571.794    571.794
 83.970    606.000    645.616    -39.616    571.594    625.292    591.895    571.594    571.594
 84.070    668.920    649.079     19.841    571.392    627.618    592.822    571.392    571.392
 84.170    615.000    653.854    -38.854    571.188    630.974    594.029    571.188    571.188
 84.270    626.581    659.265    -32.685    570.984    634.850    595.354    570.984    570.984
 84.370    697.602    664.553     33.049    570.777    638.673    596.606    570.777    570.777
 84.470    650.000    668.909    -18.909    570.569    641.842    597.581    570.569    570.569
 84.570    630.000    671.568    -41.568    570.360    643.788    598.084    570.360    570.360
 84.670    670.599    671.945     -1.347    570.148    644.075    597.964    570.148    570.148
 84.770    663.372    669.785     -6.412    569.936    642.509    597.158    569.936    569.936
 84.870    648.000    665.224    -17.224    569.722    639.186    595.711    569.722    569.722
 84.970    626.000    658.726    -32.726    569.506    634.435    593.753    569.506    569.506
 85.070    655.000    650.930      4.070    569.289    628.715    591.466    569.289    569.289
 85.170    615.435    642.499    -27.065    569.070    622.499    589.038    569.070    569.070
 85.270    610.000    634.038    -24.038    568.850    616.214    586.647    568.850    568.850
 85.370    567.000    626.043    -59.043    568.628    610.203    584.447    568.628    568.628
 85.470    620.000    618.896      1.104    568.405    604.719    582.564    568.405    568.405
 85.570    655.739    612.861     42.879    568.181    599.924    581.101    568.181    568.181
 85.670    608.000    608.092     -0.092    567.955    595.894    580.138    567.955    567.955
 85.770    606.974    604.657      2.318    567.727    592.638    579.733    567.727    567.727
 85.870    596.000    602.554     -6.554    567.498    590.111    579.927    567.498    567.498
 85.970    558.000    601.734    -43.734    567.268    588.242    580.746    567.268    567.268
 86.070    634.925    602.121     32.805    567.036    586.945    582.196    567.036    567.036
 86.170    636.652    603.615     33.037    566.802    586.142    584.257    566.802    566.802
 86.270    623.000    606.107     16.893    566.567    585.773    586.882    566.567    566.567
 86.370    613.000    609.476      3.524    566.331    585.803    589.981    566.331    566.331
 86.470    650.402    613.587     36.815    566.093    586.229    593.425    566.093    566.093
 86.570    621.821    618.292      3.529    565.854    587.082    597.034    565.854    565.854
 86.670    622.001    623.427     -1.426    565.614    588.428    600.579    565.614    565.614
 86.770    623.000    628.816     -5.816    565.372    590.361    603.788    565.372    565.372
 86.870    624.000    634.282    -10.282    565.129    593.004    606.363    565.129    565.129
 86.970    613.000    639.674    -26.674    564.884    596.493    608.017    564.884    564.884
 87.070    686.818    644.914     41.904    564.638    600.966    608.531    564.638    564.638
 87.170    609.907    650.037    -40.129    564.390    606.545    607.821    564.390    564.390
 87.270    660.000    655.191      4.809    564.142    613.312    605.953    564.142    564.142
 87.370    681.000    660.588     20.412    563.891    621.280    603.122    563.891    563.891
 87.470    685.000    666.410     18.590    563.640    630.372    599.592    563.640    563.640
 87.570    698.000    672.734     25.266    563.387    640.390    595.634    563.387    563.387
 87.670    709.661    679.477     30.184    563.133    651.006    591.496    563.133    563.133
 87.770    714.091    686.370     27.721    562.877    661.742    587.387    562.877    562.877
 87.870    753.000    692.961     60.039    562.621    671.984    583.472    562.621    562.621
 87.970    699.000    698.640      0.360    562.362    680.999    579.871    562.362    562.362
 88.070    727.000    702.711     24.289    562.103    688.017    576.661    562.103    562.103
 88.170    722.000    704.543     17.457    561.842    692.375    573.875    561.842    561.842
 88.270    717.000    703.732     13.268    561.580    693.670    571.512    561.580    561.580
 88.370    682.852    700.243    -17.391    561.317    691.893    569.545    561.317    561.317
 88.470    710.919    694.416     16.503    561.053    687.426    567.933    561.053    561.053
 88.570    697.000    686.861     10.139    560.787    680.927    566.626    560.787    560.787
 88.670    729.000    678.315     50.685    560.520    673.179    565.575    560.520    560.520
 88.770    651.369    669.529    -18.160    560.252    664.980    564.734    560.252    560.252
 88.870    659.972    661.206     -1.234    559.982    657.072    564.066    559.982    559.982
 88.970    634.000    653.958    -19.958    559.711    650.096    563.536    559.711    559.711
 89.070    696.926    648.261     48.665    559.439    644.556    563.121    559.439    559.439
 89.170    652.547    644.434      8.113    559.166    640.790    562.799    559.166    559.166
 89.270    640.000    642.619     -2.619    558.892    638.958    562.552    558.892    558.892
 89.370    604.267    642.780    -38.513    558.617    639.039    562.367    558.617    558.617
 89.470    656.000    644.708     11.292    558.340    640.839    562.228    558.340    558.340
 89.570    662.000    648.044     13.956    558.062    644.016    562.118    558.062    558.062
 89.670    651.909    652.296     -0.387    557.784    648.093    562.022    557.784    557.784
 89.770    679.000    656.867     22.133    557.504    652.494    561.920    557.504    557.504
 89.870    710.528    661.095     49.433    557.222    656.575    561.793    557.222    557.222
 89.970    691.000    664.305     26.695    556.940    659.683    561.620    556.940    556.940
 90.070    656.000    665.903     -9.903    556.657    661.239    561.383    556.657    556.657
 90.170    616.018    665.477    -49.459    556.373    660.844    561.070    556.373    556.373
 90.270    649.403    662.888    -13.485    556.087    658.360    560.680    556.087    556.087
 90.370    653.000    658.283     -5.283    555.801    653.929    560.217    555.801    555.801
 90.470    669.000    652.035     16.965    555.513    647.911    559.697    555.513    555.513
 90.570    669.534    644.639     24.895    555.224    640.782    559.137    555.224    555.224
 90.670    603.000    636.608    -33.608    554.935    633.038    558.555    554.935    554.935
 90.770    599.000    628.413    -29.413    554.644    625.134    557.966    554.644    554.644
 90.870    606.228    620.450    -14.222    554.352    617.453    557.386    554.352    554.352
 90.970    574.000    613.026    -39.026    554.060    610.291    556.825    554.060    554.060
 91.070    575.000    606.356    -31.356    553.766    603.856    556.290    553.766    553.766
 91.170    584.324    600.570    -16.246    553.472    598.276    555.785    553.472    553.472
 91.270    552.000    595.724    -43.724    553.176    593.602    555.313    553.176    553.176
 91.370    600.000    591.811      8.189    552.880    589.828    554.873    552.880    552.880
 91.470    583.000    588.781     -5.781    552.582    586.907    554.463    552.582    552.582
 91.570    629.503    586.561     42.942    552.284    584.767    554.081    552.284    552.284
 91.670    562.425    585.069    -22.644    551.985    583.330    553.725    551.985    551.985
 91.770    591.000    584.232      6.768    551.685    582.525    553.391    551.685    551.685
 91.870    592.000    584.000      8.000    551.384    582.303    553.079    551.384    551.384
 91.970    592.000    584.348      7.652    551.082    582.640    552.787    551.082    551.082
 92.070    590.000    585.289      4.711    550.779    583.548    552.515    550.779    550.779
 92.170    578.160    586.872     -8.712    550.476    585.075    552.267    550.476    550.476
 92.270    606.000    589.182     16.818    550.172    587.302    552.043    550.172    550.172
 92.370    597.000    592.338      4.662    549.867    590.345    551.849    549.867    549.867
 92.470    619.000    596.485     22.515    549.561    594.343    551.689    549.561    549.561
 92.570    576.324    601.784    -25.460    549.254    599.453    551.568    549.254    549.254
 92.670    615.000    608.402      6.598    548.947    605.837    551.490    548.947    548.947
 92.770    555.000    616.488    -61.488    548.639    613.641    551.459    548.639    548.639
 92.870    642.897    626.165     16.732    548.330    622.985    551.479    548.330    548.330
 92.970    628.000    637.553     -9.553    548.020    633.987    551.548    548.020    548.020
 93.070    687.554    650.659     36.895    547.710    646.658    551.666    547.710    547.710
 93.170    668.000    665.434      2.566    547.399    660.952    551.828    547.399    547.399
 93.270    698.000    681.743     16.257    547.088    676.744    552.027    547.088    547.088
 93.370    630.000    699.359    -69.359    546.775    693.813    552.254    546.775    546.775
 93.470    673.116    717.956    -44.841    546.462    711.844    552.500    546.462    546.462
 93.570    716.000    737.116    -21.116    546.149    730.428    552.755    546.149    546.149
 93.670    751.000    756.358     -5.358    545.835    749.092    553.013    545.835    545.835
 93.770    816.000    775.200     40.800    545.520    767.353    553.275    545.520    545.520
 93.870    794.000    793.259      0.741    545.205    784.816    553.552    545.205    545.205
 93.970    742.000    810.345    -68.345    544.889    801.264    553.872    544.889    544.889
 94.070    818.878    826.518     -7.640    544.573    816.712    554.280    544.573    544.573
 94.170    824.000    842.049    -18.049    544.256    831.371    554.835    544.256    544.256
 94.270    861.000    857.306      3.694    543.939    845.539    555.606    543.939    543.939
 94.370    818.790    872.615    -53.825    543.621    859.473    556.663    543.621    543.621
 94.470    917.000    888.159     28.841    543.303    873.299    558.063    543.303    543.303
 94.570    888.063    903.952    -15.888    542.984    886.988    559.849    542.984    542.984
 94.670    947.000    919.878     27.122    542.665    900.408    562.038    542.665    542.665
 94.770    935.000    935.769     -0.769    542.345    913.406    564.613    542.345    542.345
 94.870    941.945    951.451     -9.506    542.025    925.861    567.523    542.025    542.025
 94.970    975.000    966.715      8.285    541.705    937.653    570.677    541.705    541.705
 95.070    995.000    981.219     13.781    541.384    948.574    573.944    541.384    541.384
 95.170    984.000    994.391    -10.391    541.063    958.214    577.159    541.063    541.063
 95.270   1010.000   1005.372      4.628    540.742    965.914    580.125    540.742    540.742
 95.370    979.921   1013.055    -33.134    540.420    970.780    582.628    540.420    540.420
 95.470    979.000   1016.236    -37.236    540.099    971.818    584.458    540.099    540.099
 95.570   1059.109   1013.830     45.279    539.776    968.123    585.435    539.776    539.776
 95.670   1025.000   1005.143     19.857    539.454    959.118    585.440    539.454    539.454
 95.770    940.371    990.111    -49.739    539.131    944.770    584.443    539.131    539.131
 95.870    947.000    969.376    -22.376    538.808    925.653    582.510    538.808    538.808
 95.970    904.000    944.187    -40.187    538.485    902.871    579.788    538.485    538.485
 96.070    922.000    916.191      5.809    538.162    877.872    576.472    538.162    538.162
 96.170    880.000    887.204     -7.204    537.839    852.259    572.777    537.839    537.839
 96.270    856.000    859.054     -3.054    537.515    827.653    568.912    537.515    537.515
 96.370    766.000    833.478    -67.478    537.192    805.600    565.065    537.192    537.192
 96.470    864.764    812.066     52.698    536.868    787.534    561.393    536.868    536.868
 96.570    797.632    796.233      1.399    536.544    774.747    558.018    536.544    536.544
 96.670    780.878    787.195     -6.317    536.220    768.369    555.028    536.220    536.220
 96.770    829.000    785.927     43.073    535.896    769.325    552.472    535.896    535.896
 96.870    790.000    793.324     -3.324    535.573    778.487    550.375    535.573    535.573
 96.970    816.000    809.958      6.042    535.249    796.432    548.730    535.249    535.249
 97.070    842.000    836.163      5.837    534.925    823.517    547.514    534.925    534.925
 97.170    927.000    872.027     54.973    534.601    859.865    546.694    534.601    534.601
 97.270    889.667    917.338    -27.671    534.277    905.307    546.228    534.277    534.277
 97.370   1008.000    971.529     36.471    533.954    959.321    546.070    533.954    533.954
 97.470   1104.000   1033.649     70.351    533.630   1021.005    546.170    533.630    533.630
 97.570   1147.000   1102.287     44.713    533.307   1089.001    546.479    533.307    533.307
 97.670   1223.394   1175.530     47.864    532.984   1161.450    546.941    532.984    532.984
 97.770   1217.549   1250.947    -33.398    532.661   1235.983    547.497    532.661    532.661
 97.870   1329.000   1325.587      3.413    532.338   1309.713    548.081    532.338    532.338
 97.970   1396.318   1396.022      0.296    532.016   1379.283    548.626    532.016    532.016
 98.070   1453.903   1458.483     -4.580    531.693   1440.996    549.057    531.693    531.693
 98.170   1458.616   1509.124    -50.508    531.371   1491.081    549.302    531.371    531.371
 98.270   1485.285   1544.476    -59.192    531.050   1526.130    549.299    531.050    531.050
 98.370   1628.159   1562.010     66.149    530.728   1543.659    549.000    530.728    530.728
 98.470   1641.000   1560.642     80.358    530.407   1542.604    548.386    530.407    530.407
 98.570   1479.800   1540.964    -61.164    530.087   1523.541    547.470    530.087    530.087
 98.670   1555.225   1505.074     50.151    529.767   1488.529    546.288    529.767    529.767
 98.770   1482.000   1456.127     25.873    529.447   1440.668    544.898    529.447    529.447
 98.870   1435.000   1397.816     37.184    529.127   1383.585    543.364    529.127    529.127
 98.970   1412.000   1333.939     78.061    528.808   1321.012    541.750    528.808    528.808
 99.070   1332.861   1268.119     64.743    528.490   1256.513    540.115    528.490    528.490
 99.170   1204.025   1203.633      0.392    528.172   1193.314    538.513    528.172    528.172
 99.270   1167.162   1143.337     23.825    527.855   1134.227    536.986    527.855    527.855
 99.370   1108.293   1089.638     18.655    527.538   1081.625    535.568    527.538    527.538
 99.470   1012.000   1044.507    -32.507    527.222   1037.457    534.285    527.222    527.222
 99.570    979.000   1009.522    -30.522    526.906   1003.282    533.153    526.906    526.906
 99.670   1013.000    985.898     27.102    526.591    980.309    532.180    526.591    526.591
 99.770    944.000    974.522    -30.522    526.277    969.424    531.368    526.277    526.277
 99.870    975.000    975.971     -0.971    525.963    971.208    530.712    525.963    525.963
 99.970    936.395    990.522    -54.127    525.650    985.949    530.203    525.650    525.650
100.070   1018.000   1018.167     -0.167    525.338   1013.651    529.827    525.338    525.338
100.170   1108.683   1058.610     50.072    525.027   1054.034    529.571    525.027    525.027
100.270   1142.980   1111.266     31.714    524.716   1106.531    529.415    524.716    524.716
100.370   1148.400   1175.240    -26.840    524.406   1170.267    529.341    524.406    524.406
100.470   1239.642   1249.292     -9.649    524.097   1244.022    529.328    524.097    524.097
100.570   1361.000   1331.863     29.137    523.789   1326.261    529.356    523.789    523.789
100.670   1497.000   1420.955     76.045    523.482   1415.005    529.402    523.482    523.482
100.770   1454.377   1514.155    -59.779    523.176   1507.865    529.444    523.176    523.176
100.870   1532.348   1608.678    -76.330    522.871   1602.077    529.460    522.871    522.871
100.970   1728.000   1701.470     26.530    522.566   1694.609    529.431    522.566    522.566
101.070   1840.000   1789.428     50.572    522.263   1782.372    529.341    522.263    522.263
101.170   1922.536   1869.672     52.863    521.961   1862.497    529.178    521.961    521.961
101.270   1998.000   1939.804     58.196    521.660   1932.588    528.939    521.660    521.660
101.370   1942.785   1998.012    -55.227    521.359   1990.825    528.631    521.359    521.359
101.470   2107.000   2042.991     64.009    521.060   2035.891    528.266    521.060    521.060
101.570   2019.359   2073.735    -54.376    520.763   2066.761    527.862    520.763    520.763
101.670   2030.000   2089.355    -59.355    520.466   2082.525    527.440    520.466    520.466
101.770   2104.040   2089.070     14.969    520.171   2082.381    527.018    520.171    520.171
101.870   2116.387   2072.425     43.962    519.876   2065.857    526.615    519.876    519.876
101.970   2039.000   2039.668     -0.668    519.583   2033.184    526.246    519.583    519.583
102.070   1968.625   1992.087    -23.462    519.292   1985.641    525.921    519.292    519.292
102.170   1867.000   1932.121    -65.121    519.001   1925.660    525.647    519.001    519.001
102.270   1819.000   1863.128    -44.128    518.712   1856.595    525.425    518.712    518.712
102.370   1769.000   1788.919    -19.919    518.425   1782.265    525.253    518.425    518.425
102.470   1711.000   1713.254     -2.254    518.139   1706.435    525.122    518.139    518.139
102.570   1576.253   1639.432    -63.179    517.854   1632.418    525.020    517.854    517.854
102.670   1550.992   1570.065    -19.073    517.570   1562.843    524.933    517.570    517.570
102.770   1528.632   1506.960     21.672    517.289   1499.533    524.844    517.289    517.289
102.870   1402.000   1451.124    -49.124    517.008   1443.511    524.737    517.008    517.008
102.970   1413.000   1402.796     10.204    516.730   1395.032    524.600    516.730    516.730
103.070   1282.000   1361.514    -79.514    516.453   1353.644    524.420    516.453    516.453
103.170   1366.662   1326.205     40.458    516.177   1318.283    524.188    516.177    516.177
103.270   1261.000   1295.311    -34.311    515.903   1287.399    523.898    515.903    515.903
103.370   1206.607   1266.970    -60.363    515.631   1259.139    523.543    515.631    515.631
103.470   1305.364   1239.256     66.108    515.361   1231.578    523.117    515.361    515.361
103.570   1129.000   1210.442    -81.442    515.092   1202.993    522.619    515.092    515.092
103.670   1093.000   1179.251    -86.251    514.825   1172.103    522.051    514.825    514.825
103.770   1079.420   1145.000    -65.579    514.560   1138.218    521.420    514.560    514.560
103.870   1125.179   1107.613     17.566    514.297   1101.251    520.736    514.297    514.297
103.970   1025.000   1067.514    -42.514    514.036   1061.612    520.015    514.036    514.036
104.070   1000.000   1025.454    -25.454    513.776   1020.034    519.271    513.776    513.776
104.170   1023.000    982.345     40.655    513.519    977.415    518.520    513.519    513.519
104.270    925.015    939.132    -14.117    513.263    934.688    517.775    513.263    513.263
104.370    911.000    896.713     14.287    513.010    892.738    517.048    513.010    513.010
104.470    901.713    855.886     45.827    512.758    852.355    516.347    512.758    512.758
104.570    814.223    817.308     -3.085    512.509    814.192    515.677    512.509    512.509
104.670    860.000    781.521     78.479    512.262    778.784    515.045    512.262    512.262
104.770    761.000    748.921     12.079    512.016    746.521    514.457    512.016    512.016
104.870    740.000    719.719     20.281    511.773    717.616    513.912    511.773    511.773
104.970    724.591    693.999     30.592    511.533    692.153    513.408    511.533    511.533
105.070    638.326    671.719    -33.393    511.294    670.093    512.945    511.294    511.294
105.170    645.087    652.738     -7.651    511.058    651.297    512.520    511.058    511.058
105.270    625.811    636.838    -11.027    510.824    635.549    512.130    510.824    510.824
105.370    578.770    623.751    -44.980    510.593    622.585    511.771    510.593    510.593
105.470    642.000    613.184     28.816    510.363    612.116    511.441    510.363    510.363
105.570    582.913    604.843    -21.931    510.137    603.851    511.136    510.137    510.137
105.670    652.000    598.451     53.549    509.912    597.515    510.853    509.912    509.912
105.770    634.000    593.758     40.242    509.691    592.861    510.589    509.691    509.691
105.870    615.000    590.553     24.447    509.471    589.680    510.344    509.471    509.471
105.970    544.304    588.666    -44.362    509.255    587.803    510.114    509.255    509.255
106.070    602.000    587.970     14.030    509.041    587.106    509.900    509.041    509.041
106.170    654.000    588.379     65.621    508.829    587.500    509.700    508.829    508.829
106.270    613.950    589.840     24.110    508.620    588.936    509.514    508.620    508.620
106.370    606.000    592.331     13.669    508.414    591.391    509.342    508.414    508.414
106.470    601.087    595.853      5.234    508.211    594.864    509.184    508.211    508.211
106.570    587.494    600.419    -12.925    508.011    599.370    509.041    508.011    508.011
106.670    585.861    606.051    -20.190    507.813    604.929    508.913    507.813    507.813
106.770    611.000    612.769     -1.769    507.618    611.562    508.801    507.618    507.618
106.870    580.044    620.583    -40.539    507.426    619.277    508.704    507.426    507.426
106.970    681.000    629.482     51.518    507.237    628.065    508.622    507.237    507.237
107.070    668.000    639.424     28.576    507.051    637.884    508.555    507.051    507.051
107.170    694.682    650.329     44.354    506.868    648.656    508.502    506.868    506.868
107.270    637.000    662.068    -25.068    506.688    660.253    508.461    506.688    506.688
107.370    660.000    674.466    -14.466    506.511    672.501    508.430    506.511    506.511
107.470    692.000    687.291      4.709    506.337    685.175    508.405    506.337    506.337
107.570    674.000    700.266    -26.266    506.167    697.998    508.383    506.167    506.167
107.670    719.000    713.066      5.934    505.999    710.651    508.360    505.999    505.999
107.770    704.000    725.330    -21.330    505.835    722.779    508.330    505.835    505.835
107.870    692.000    736.677    -44.677    505.674    734.006    508.289    505.674    505.674
107.970    744.503    746.729     -2.226    505.517    743.958    508.231    505.517    505.517
108.070    792.745    755.151     37.594    505.363    752.307    508.152    505.363    505.363
108.170    715.906    761.691    -45.785    505.212    758.802    508.047    505.212    505.212
108.270    806.000    766.224     39.776    505.065    763.324    507.914    505.065    505.065
108.370    722.227    768.787    -46.559    504.921    765.906    507.754    504.921    504.921
108.470    769.000    769.572     -0.572    504.780    766.741    507.567    504.780    504.780
108.570    806.279    768.909     37.370    504.644    766.155    507.358    504.644    504.644
108.670    736.000    767.216    -31.216    504.511    764.561    507.130    504.511    504.511
108.770    782.000    764.943     17.057    504.381    762.403    506.890    504.381    504.381
108.870    764.000    762.524      1.476    504.255    760.111    506.642    504.255    504.255
108.970    712.515    760.339    -47.824    504.133    758.057    506.392    504.133    504.133
109.070    702.000    758.685    -56.685    504.015    756.537    506.144    504.015    504.015
109.170    755.000    757.765     -2.765    503.900    755.748    505.903    503.900    503.900
109.270    788.130    757.675     30.455    503.790    755.782    505.672    503.790    503.790
109.370    728.000    758.400    -30.400    503.683    756.624    505.452    503.683    503.683
109.470    696.000    759.818    -63.818    503.580    758.149    505.246    503.580    503.580
109.570    768.000    761.703      6.297    503.482    760.130    505.053    503.482    503.482
109.670    754.000    763.734     -9.734    503.387    762.248    504.875    503.387    503.387
109.770    717.000    765.518    -48.518    503.296    764.111    504.708    503.296    503.296
109.870    716.000    766.610    -50.610    503.210    765.282    504.546    503.210    503.210
109.970    781.000    766.596     14.404    503.127    765.333    504.401    503.127    503.127
110.070    820.100    765.084     55.016    503.049    763.880    504.267    503.049    503.049
110.170    755.000    761.792     -6.792    502.975    760.643    504.140    502.975    502.975
110.270    740.000    756.581    -16.581    502.905    755.486    504.019    502.905    502.905
110.370    727.000    749.473    -22.473    502.840    748.429    503.904    502.840    502.840
110.470    715.000    740.632    -25.632    502.779    739.637    503.794    502.779    502.779
110.570    735.000    730.324      4.676    502.723    729.378    503.688    502.723    502.723
110.670    689.000    718.910    -29.910    502.671    718.012    503.588    502.671    502.671
110.770    726.000    706.751     19.249    502.623    705.899    503.494    502.623    502.623
110.870    647.598    694.207    -46.609    502.580    693.399    503.406    502.580    502.580
110.970    691.000    681.618      9.382    502.542    680.851    503.325    502.542    502.542
111.070    620.827    669.283    -48.456    502.508    668.555    503.251    502.508    502.508
111.170    672.000    657.464     14.536    502.479    656.771    503.185    502.479    502.479
111.270    596.571    646.371    -49.801    502.455    645.710    503.127    502.455    502.455
111.370    662.063    636.170     25.892    502.435    635.537    503.077    502.435    502.435
111.470    664.000    626.979     37.021    502.421    626.370    503.037    502.421    502.421
111.570    595.000    618.872    -23.872    502.411    618.284    503.004    502.411    502.411
111.670    613.000    611.881      1.119    502.406    611.309    502.981    502.406    502.406
111.770    625.000    606.003     18.997    502.406    605.444    502.966    502.406    502.406
111.870    547.000    601.205    -54.205    502.412    600.655    502.960    502.412    502.412
111.970    600.000    597.428      2.572    502.422    596.885    502.962    502.422    502.422
112.070    615.000    594.597     20.403    502.437    594.057    502.973    502.437    502.437
112.170    592.346    592.627     -0.280    502.458    592.088    502.991    502.458    502.458
112.270    609.000    591.425     17.575    502.484    590.885    503.017    502.484    502.484
112.370    592.158    590.899      1.259    502.515    590.356    503.049    502.515    502.515
112.470    613.068    590.960     22.108    502.551    590.413    503.089    502.551    502.551
112.570    612.000    591.526     20.474    502.593    590.974    503.135    502.593    502.593
112.670    615.000    592.522     22.478    502.640    591.965    503.187    502.640    502.640
112.770    567.635    593.887    -26.252    502.692    593.323    503.245    502.692    502.692
112.870    600.351    595.568      4.783    502.751    594.998    503.309    502.751    502.751
112.970    613.000    597.530     15.470    502.814    596.954    503.378    502.814    502.814
113.070    584.000    599.750    -15.750    502.884    599.168    503.453    502.884    502.884
113.170    591.019    602.220    -11.202    502.959    601.632    503.534    502.959    502.959
113.270    663.000    604.949     58.051    503.039    604.354    503.621    503.039    503.039
113.370    601.601    607.959     -6.358    503.126    607.356    503.714    503.126    503.126
113.470    578.000    611.290    -33.290    503.218    610.679    503.814    503.218    503.218
113.570    582.000    614.998    -32.998    503.316    614.378    503.922    503.316    503.316
113.670    592.000    619.162    -27.162    503.420    618.529    504.038    503.420    503.420
113.770    684.000    623.881     60.119    503.530    623.233    504.162    503.530    503.530
113.870    588.000    629.287    -41.287    503.646    628.621    504.296    503.646    503.646
113.970    611.308    635.548    -24.240    503.768    634.858    504.440    503.768    503.768
114.070    663.000    642.880     20.120    503.896    642.160    504.596    503.896    503.896
114.170    640.000    651.555    -11.555    504.031    650.800    504.765    504.031    504.031
114.270    587.000    661.920    -74.920    504.171    661.120    504.948    504.171    504.171
114.370    667.755    674.408     -6.653    504.318    673.553    505.146    504.318    504.318
114.470    662.000    689.555    -27.555    504.472    688.635    505.361    504.472    504.472
114.570    737.000    708.022     28.978    504.631    707.022    505.594    504.631    504.631
114.670    718.000    730.608    -12.608    504.797    729.514    505.847    504.797    504.797
114.770    730.000    758.272    -28.272    504.970    757.068    506.121    504.970    504.970
114.870    803.539    792.145     11.394    505.149    790.812    506.419    505.149    505.149
114.970    801.000    833.543    -32.543    505.335    832.061    506.742    505.335    505.335
115.070    875.000    883.972     -8.972    505.527    882.316    507.091    505.527    505.527
115.170    929.000    945.119    -16.119    505.726    943.267    507.468    505.726    505.726
115.270    961.000   1018.844    -57.844    505.932   1016.770    507.874    505.932    505.932
115.370    997.000   1107.150   -110.150    506.145   1104.826    508.311    506.145    506.145
115.470   1172.000   1212.135    -40.135    506.364   1209.532    508.779    506.364    506.364
115.570   1258.000   1335.936    -77.936    506.591   1333.028    509.278    506.591    506.591
115.670   1536.502   1480.654     55.847    506.824   1477.410    509.809    506.824    506.824
115.770   1668.656   1648.253     20.402    507.064   1644.646    510.371    507.064    507.064
115.870   1894.863   1840.455     54.407    507.312   1836.458    510.962    507.312    507.312
115.970   2026.000   2058.620    -32.620    507.567   2054.209    511.582    507.567    507.567
116.070   2357.000   2303.612     53.388    507.829   2298.765    512.228    507.829    507.829
116.170   2593.000   2575.647     17.353    508.098   2570.348    512.896    508.098    508.098
116.270   2899.000   2874.265     24.735    508.374   2868.502    513.583    508.374    508.374
116.370   3273.116   3198.134     74.982    508.658   3191.900    514.285    508.658    508.658
116.470   3465.452   3544.931    -79.479    508.950   3538.226    514.997    508.950    508.950
116.570   3800.000   3911.346   -111.346    509.248   3904.176    515.714    509.248    509.248
116.670   4359.276   4293.028     66.249    509.555   4285.406    516.430    509.555    509.555
116.770   4557.000   4684.583   -127.583    509.869   4676.531    517.142    509.869    509.869
116.870   4984.000   5079.614    -95.614    510.190   5071.156    517.846    510.190    510.190
116.970   5332.849   5470.788   -137.939    510.520   5461.955    518.538    510.520    510.520
117.070   5810.000   5849.955    -39.955    510.857   5840.783    519.215    510.857    510.857
117.170   6054.532   6208.314   -153.783    511.202   6198.843    519.875    511.202    511.202
117.270   6664.950   6536.651    128.299    511.555   6526.923    520.515    511.555    511.555
117.370   6807.000   6825.663    -18.663    511.916   6815.726    521.131    511.916    511.916
117.470   6964.000   7066.405   -102.405    512.285   7056.309    521.722    512.285    512.285
117.570   7119.392   7250.830   -131.438    512.662   7240.627    522.282    512.662    512.662
117.670   7271.000   7372.408   -101.408    513.047   7362.151    522.810    513.047    513.047
117.770   7498.000   7426.724     71.276    513.440   7416.466    523.303    513.440    513.440
117.870   7388.000   7411.926    -23.926    513.842   7401.718    523.759    513.842    513.842
117.970   7235.500   7328.931    -93.431    514.252   7318.820    524.177    514.252    514.252
118.070   7244.196   7181.312     62.884    514.670   7171.341    524.557    514.670    514.670
118.170   6882.000   6974.915    -92.915    515.097   6965.122    524.900    515.097    515.097
118.270   6605.617   6717.289   -111.672    515.532   6707.709    525.206    515.532    515.532
118.370   6495.771   6417.067     78.704    515.976   6407.732    525.479    515.976    515.976
118.470   6039.000   6083.386    -44.386    516.428   6074.323    525.719    516.428    516.428
118.570   5598.000   5725.409   -127.409    516.889   5716.643    525.928    516.889    516.889
118.670   5312.000   5351.965    -39.965    517.359   5343.520    526.111    517.359    517.359
118.770   5174.000   4971.283    202.717    517.838   4963.178    526.271    517.838    517.838
118.870   4575.057   4590.807    -15.750    518.325   4583.057    526.412    518.325    518.325
118.970   4400.000   4217.062    182.938    518.822   4209.679    526.540    518.822    518.822
119.070   3869.000   3855.581     13.419    519.327   3848.573    526.661    519.327    519.327
119.170   3542.372   3510.861     31.511    519.842   3504.230    526.782    519.842    519.842
119.270   3258.000   3186.365     71.635    520.365   3180.108    526.909    520.365    520.365
119.370   3013.000   2884.560    128.440    520.898   2878.670    527.049    520.898    520.898
119.470   2709.000   2606.989    102.011    521.440   2601.453    527.207    521.440    521.440
119.570   2462.000   2354.367    107.633    521.992   2349.169    527.390    521.992    521.992
119.670   2226.000   2126.697     99.303    522.553   2121.817    527.603    522.553    522.553
119.770   1970.659   1923.392     47.267    523.123   1918.807    527.849    523.123    523.123
119.870   1686.534   1743.397    -56.863    523.703   1739.081    528.133    523.703    523.703
119.970   1554.304   1585.305    -31.001    524.292   1581.229    528.457    524.292    524.292
120.070   1444.000   1447.466     -3.466    524.891   1443.599    528.825    524.891    524.891
120.170   1357.081   1328.080     29.001    525.500   1324.389    529.239    525.500    525.500
120.270   1258.000   1225.285     32.715    526.118   1221.735    529.701    526.118    526.118
120.370   1169.000   1137.226     31.774    526.746   1133.781    530.211    526.746    526.746
120.470   1092.866   1062.113     30.753    527.385   1058.735    530.772    527.385    527.385
120.570   1028.265    998.262     30.002    528.033    994.913    531.383    528.033    528.033
120.670    963.000    944.132     18.868    528.691    940.772    532.046    528.691    528.691
120.770    921.000    898.334     22.666    529.360    894.923    532.762    529.360    529.360
120.870    863.000    859.642      3.358    530.038    856.139    533.531    530.038    530.038
120.970    894.000    826.994     67.006    530.727    823.355    534.353    530.727    530.727
121.070    788.000    799.476    -11.476    531.426    795.659    535.230    531.426    531.426
121.170    795.606    776.317     19.289    532.135    772.278    536.163    532.135    532.135
121.270    776.000    756.872     19.128    532.855    752.564    537.152    532.855    532.855
121.370    714.637    740.603    -25.966    533.586    735.980    538.199    533.586    533.586
121.470    762.067    727.067     34.999    534.327    722.080    539.306    534.327    534.327
121.570    693.000    715.900    -22.900    535.078    710.499    540.473    535.078    535.078
121.670    672.162    706.803    -34.641    535.841    700.936    541.703    535.841    535.841
121.770    712.258    699.530     12.729    536.614    693.143    542.996    536.614    536.614
121.870    671.277    693.877    -22.600    537.398    686.917    544.356    537.398    537.398
121.970    704.000    689.676     14.324    538.193    682.086    545.783    538.193    538.193
122.070    658.000    686.786    -28.786    538.999    678.507    547.278    538.999    538.999
122.170    633.000    685.084    -52.084    539.816    676.058    548.844    539.816    539.816
122.270    641.623    684.464    -42.841    540.644    674.630    550.482    540.644    540.644
122.370    708.019    684.831     23.188    541.484    674.127    552.192    541.484    541.484
122.470    679.000    686.096     -7.096    542.334    674.461    553.975    542.334    542.334
122.570    710.409    688.175     22.234    543.196    675.549    555.830    543.196    543.196
122.670    732.007    690.984     41.023    544.070    677.309    557.755    544.070    544.070
122.770    712.000    694.439     17.561    544.955    679.659    559.746    544.955    544.955
122.870    716.849    698.451     18.398    545.851    682.518    561.798    545.851    545.851
122.970    619.000    702.928    -83.928    546.760    685.800    563.903    546.760    546.760
123.070    708.000    707.770      0.230    547.679    689.416    566.051    547.679    547.679
123.170    677.234    712.874    -35.639    548.611    693.274    568.231    548.611    548.611
123.270    710.000    718.126     -8.126    549.555    697.275    570.428    549.555    549.555
123.370    724.000    723.408      0.592    550.510    701.317    572.626    550.510    550.510
123.470    729.000    728.596      0.404    551.478    705.295    574.806    551.478    551.478
123.570    749.000    733.558     15.442    552.457    709.097    576.948    552.457    552.457
123.670    780.556    738.137     42.418    553.449    712.588    579.032    553.449    553.449
123.770    754.000    742.255     11.745    554.453    715.709    581.035    554.453    554.453
123.870    795.633    745.783     49.851    555.469    718.352    582.937    555.469    555.469
123.970    732.640    748.598    -15.958    556.498    720.418    584.719    556.498    556.498
124.070    762.000    750.610     11.390    557.539    721.830    586.362    557.539    557.539
124.170    790.000    751.751     38.249    558.592    722.534    587.853    558.592    558.592
124.270    775.677    751.980     23.696    559.658    722.501    589.182    559.658    559.658
124.370    782.000    751.288     30.712    560.737    721.725    590.346    560.737    560.737
124.470    750.000    749.691      0.309    561.829    720.223    591.344    561.829    561.829
124.570    735.000    747.233    -12.233    562.933    718.034    592.179    562.933    562.933
124.670    704.219    743.976    -39.757    564.051    715.214    592.859    564.051    564.051
124.770    790.601    740.000     50.602    565.181    711.832    593.395    565.181    565.181
124.870    723.000    735.392    -12.392    566.325    707.963    593.798    566.325    566.325
124.970    764.000    730.248     33.752    567.481    703.690    594.083    567.481    567.481
