neutron_powder_diffraction_0239
R_wp: 3.962
Temperature (K): 1005.647
Counts: 84063.00
Wavelength (Ã…): 2.52098
COMMENTS
Test file for demonstrating the .xyy file format in Reel1.0
END OF HEADER
   tth       Y_obs     Y_calc      Y_res    Background    Phase_1_Nuc    Phase_1_Mag    Phase_2_Nuc    Phase_2_Mag
  9.970    596.000    570.574     25.426    569.904    570.539    569.904    569.939    569.904
 10.070    610.000    570.726     39.274    569.986    570.690    569.986    570.022    569.986
 10.170    607.000    570.873     36.127    570.062    570.837    570.062    570.098    570.062
 10.270    538.952    571.018    -32.067    570.132    570.982    570.132    570.168    570.132
 10.370    600.000    571.169     28.831    570.196    571.132    570.196    570.232    570.196
 10.470    607.000    571.330     35.670    570.254    571.292    570.254    570.291    570.254
 10.570    551.000    571.509    -20.509    570.307    571.464    570.307    570.351    570.307
 10.670    546.839    571.705    -24.867    570.354    571.654    570.354    570.405    570.354
 10.770    595.754    571.920     23.834    570.395    571.867    570.395    570.447    570.395
 10.870    591.705    572.166     19.539    570.431    572.113    570.431    570.483    570.431
 10.970    624.000    572.456     51.544    570.461    572.403    570.461    570.513    570.461
 11.070    588.000    572.808     15.192    570.486    572.754    570.486    570.538    570.486
 11.170    568.000    573.246     -5.246    570.505    573.192    570.505    570.558    570.505
 11.270    564.000    573.808     -9.808    570.519    573.753    570.519    570.572    570.519
 11.370    565.000    574.560     -9.560    570.528    574.504    570.528    570.581    570.528
 11.470    580.000    575.642      4.358    570.531    575.586    570.531    570.585    570.531
 11.570    625.000    577.437     47.563    570.530    577.376    570.530    570.587    570.530
 11.670    545.832    580.984    -35.152    570.523    580.917    570.523    570.584    570.523
 11.770    663.000    588.663     74.337    570.511    588.591    570.511    570.573    570.511
 11.870    635.000    604.341     30.659    570.494    604.260    570.494    570.556    570.494
 11.970    618.604    631.241    -12.637    570.472    631.145    570.472    570.534    570.472
 12.070    618.401    666.667    -48.266    570.445    666.551    570.445    570.508    570.445
 12.170    677.000    696.598    -19.598    570.413    696.464    570.413    570.476    570.413
 12.270    727.456    701.181     26.276    570.377    701.044    570.377    570.440    570.377
 12.370    638.000    676.304    -38.304    570.335    676.182    570.335    570.399    570.335
 12.470    645.000    640.091      4.909    570.289    639.988    570.289    570.353    570.289
 12.570    577.000    609.997    -32.997    570.238    609.910    570.238    570.303    570.238
 12.670    630.000    591.413     38.587    570.183    591.336    570.183    570.247    570.183
 12.770    590.895    581.999      8.896    570.123    581.927    570.123    570.188    570.123
 12.870    550.000    577.641    -27.641    570.058    577.571    570.058    570.123    570.058
 12.970    519.000    575.488    -56.488    569.989    575.420    569.989    570.055    569.989
 13.070    525.000    574.214    -49.214    569.916    574.146    569.916    569.982    569.916
 13.170    536.000    573.329    -37.329    569.838    573.261    569.838    569.904    569.838
 13.270    553.000    572.660    -19.660    569.756    572.591    569.756    569.823    569.756
 13.370    581.000    572.131      8.869    569.669    572.059    569.669    569.740    569.669
 13.470    542.704    571.696    -28.992    569.579    571.623    569.579    569.650    569.579
 13.570    583.000    571.329     11.671    569.484    571.255    569.484    569.556    569.484
 13.670    511.000    571.010    -60.010    569.385    570.936    569.385    569.458    569.385
 13.770    585.000    570.729     14.271    569.281    570.654    569.281    569.355    569.281
 13.870    554.000    570.474    -16.474    569.174    570.399    569.174    569.249    569.174
 13.970    614.086    570.240     43.846    569.063    570.165    569.063    569.138    569.063
 14.070    526.000    570.022    -44.022    568.948    569.946    568.948    569.023    568.948
 14.170    571.604    569.815      1.789    568.828    569.739    568.828    568.904    568.828
 14.270    563.000    569.617     -6.617    568.705    569.540    568.705    568.782    568.705
 14.370    551.000    569.426    -18.426    568.579    569.349    568.579    568.655    568.579
 14.470    559.000    569.243    -10.243    568.448    569.166    568.448    568.525    568.448
 14.570    575.012    569.063      5.949    568.314    568.985    568.314    568.391    568.314
 14.670    586.000    568.882     17.118    568.176    568.804    568.176    568.254    568.176
 14.770    582.000    568.703     13.297    568.034    568.625    568.034    568.112    568.034
 14.870    596.000    568.525     27.475    567.889    568.446    567.889    567.967    567.889
 14.970    510.000    568.347    -58.347    567.740    568.267    567.740    567.819    567.740
 15.070    562.565    568.168     -5.604    567.587    568.088    567.587    567.667    567.587
 15.170    542.000    567.989    -25.989    567.432    567.909    567.432    567.512    567.432
 15.270    527.262    567.809    -40.548    567.272    567.729    567.272    567.353    567.272
 15.370    553.441    567.628    -14.187    567.110    567.547    567.110    567.191    567.110
 15.470    600.000    567.446     32.554    566.944    567.364    566.944    567.025    566.944
 15.570    605.466    567.261     38.205    566.774    567.179    566.774    566.856    566.774
 15.670    570.000    567.076      2.924    566.602    566.993    566.602    566.684    566.602
 15.770    593.000    566.888     26.112    566.426    566.805    566.426    566.510    566.426
 15.870    607.725    566.700     41.025    566.247    566.615    566.247    566.333    566.247
 15.970    525.000    566.508    -41.508    566.065    566.422    566.065    566.151    566.065
 16.070    520.981    566.315    -45.333    565.880    566.228    565.880    565.967    565.880
 16.170    540.000    566.119    -26.119    565.692    566.032    565.692    565.779    565.692
 16.270    606.374    565.921     40.454    565.501    565.833    565.501    565.588    565.501
 16.370    556.000    565.720     -9.720    565.307    565.632    565.307    565.395    565.307
 16.470    578.000    565.518     12.482    565.110    565.429    565.110    565.198    565.110
 16.570    591.000    565.313     25.687    564.910    565.224    564.910    564.999    564.910
 16.670    569.449    565.106      4.343    564.707    565.016    564.707    564.797    564.707
 16.770    605.432    564.897     40.535    564.502    564.806    564.502    564.592    564.502
 16.870    565.921    564.685      1.236    564.293    564.594    564.293    564.384    564.293
 16.970    541.000    564.472    -23.472    564.082    564.380    564.082    564.174    564.082
 17.070    528.261    564.257    -35.996    563.869    564.165    563.869    563.961    563.869
 17.170    527.000    564.040    -37.040    563.652    563.948    563.652    563.745    563.652
 17.270    546.000    563.820    -17.820    563.433    563.727    563.433    563.527    563.433
 17.370    563.000    563.597     -0.597    563.212    563.503    563.212    563.306    563.212
 17.470    576.000    563.373     12.627    562.988    563.278    562.988    563.082    562.988
 17.570    571.000    563.146      7.854    562.761    563.051    562.761    562.857    562.761
 17.670    523.000    562.917    -39.917    562.533    562.821    562.533    562.628    562.533
 17.770    578.000    562.686     15.314    562.301    562.590    562.301    562.398    562.301
 17.870    578.000    562.453     15.547    562.067    562.356    562.067    562.165    562.067
 17.970    526.000    562.218    -36.218    561.831    562.120    561.831    561.929    561.831
 18.070    577.292    561.983     15.309    561.593    561.884    561.593    561.692    561.593
 18.170    567.000    561.746      5.254    561.353    561.645    561.353    561.454    561.353
 18.270    571.000    561.510      9.490    561.110    561.403    561.110    561.217    561.110
 18.370    518.919    561.268    -42.349    560.865    561.159    560.865    560.973    560.865
 18.470    570.927    561.023      9.904    560.618    560.914    560.618    560.727    560.618
 18.570    517.000    560.777    -43.777    560.368    560.666    560.368    560.479    560.368
 18.670    524.591    560.528    -35.937    560.117    560.417    560.117    560.228    560.117
 18.770    571.000    560.278     10.722    559.864    560.167    559.864    559.976    559.864
 18.870    573.933    560.027     13.907    559.609    559.914    559.609    559.721    559.609
 18.970    530.922    559.773    -28.851    559.351    559.660    559.351    559.465    559.351
 19.070    545.000    559.518    -14.518    559.092    559.404    559.092    559.206    559.092
 19.170    554.000    559.261     -5.261    558.831    559.146    558.831    558.946    558.831
 19.270    549.167    559.003     -9.837    558.568    558.887    558.568    558.684    558.568
 19.370    551.061    558.744     -7.683    558.303    558.627    558.303    558.420    558.303
 19.470    586.948    558.488     28.460    558.037    558.369    558.037    558.155    558.037
 19.570    540.000    558.243    -18.243    557.768    558.124    557.768    557.887    557.768
 19.670    589.990    557.981     32.009    557.498    557.861    557.498    557.618    557.498
 19.770    566.000    557.716      8.284    557.226    557.595    557.226    557.348    557.226
 19.870    559.000    557.450      1.550    556.953    557.328    556.953    557.075    556.953
 19.970    550.000    557.183     -7.183    556.678    557.059    556.678    556.801    556.678
 20.070    559.000    556.914      2.086    556.402    556.790    556.402    556.526    556.402
 20.170    576.000    556.644     19.356    556.123    556.519    556.123    556.249    556.123
 20.270    554.000    556.373     -2.373    555.844    556.247    555.844    555.970    555.844
 20.370    567.000    556.101     10.899    555.563    555.974    555.563    555.690    555.563
 20.470    498.000    555.829    -57.829    555.280    555.700    555.280    555.409    555.280
 20.570    550.000    555.555     -5.555    554.996    555.425    554.996    555.126    554.996
 20.670    570.000    555.281     14.719    554.711    555.149    554.711    554.842    554.711
 20.770    541.000    555.006    -14.006    554.424    554.873    554.424    554.556    554.424
 20.870    542.000    554.730    -12.730    554.136    554.596    554.136    554.270    554.136
 20.970    525.000    554.454    -29.454    553.846    554.319    553.846    553.982    553.846
 21.070    578.000    554.177     23.823    553.556    554.041    553.556    553.692    553.556
 21.170    579.508    553.900     25.608    553.264    553.762    553.264    553.402    553.264
 21.270    558.000    553.623      4.377    552.971    553.484    552.971    553.110    552.971
 21.370    548.674    553.346     -4.673    552.676    553.205    552.676    552.818    552.676
 21.470    506.252    553.069    -46.817    552.381    552.927    552.381    552.524    552.381
 21.570    549.000    552.792     -3.792    552.085    552.648    552.085    552.229    552.085
 21.670    563.103    552.516     10.587    551.787    552.370    551.787    551.933    551.787
 21.770    514.655    552.241    -37.586    551.488    552.093    551.488    551.636    551.488
 21.870    592.955    551.970     40.985    551.189    551.821    551.189    551.338    551.189
 21.970    514.000    551.698    -37.698    550.888    551.546    550.888    551.040    550.888
 22.070    569.409    551.425     17.984    550.587    551.272    550.587    550.740    550.587
 22.170    533.000    551.155    -18.155    550.284    551.000    550.284    550.439    550.284
 22.270    601.000    550.887     50.113    549.981    550.729    549.981    550.139    549.981
 22.370    575.717    550.627     25.090    549.676    550.465    549.676    549.839    549.676
 22.470    597.000    550.365     46.635    549.371    550.200    549.371    549.536    549.371
 22.570    541.252    550.106     -8.854    549.065    549.939    549.065    549.233    549.065
 22.670    579.307    549.853     29.454    548.759    549.684    548.759    548.928    548.759
 22.770    515.131    549.617    -34.486    548.451    549.445    548.451    548.623    548.451
 22.870    547.660    549.446     -1.786    548.143    549.272    548.143    548.317    548.143
 22.970    505.036    549.336    -44.300    547.834    549.159    547.834    548.011    547.834
 23.070    567.000    549.135     17.865    547.524    548.955    547.524    547.704    547.524
 23.170    534.817    548.928    -14.111    547.214    548.746    547.214    547.397    547.214
 23.270    569.000    548.737     20.263    546.903    548.553    546.903    547.089    546.903
 23.370    534.000    548.568    -14.568    546.592    548.381    546.592    546.780    546.592
 23.470    514.000    548.427    -34.427    546.280    548.237    546.280    546.471    546.280
 23.570    502.747    548.324    -45.577    545.967    548.130    545.967    546.162    545.967
 23.670    559.000    548.269     10.731    545.654    548.072    545.654    545.852    545.654
 23.770    549.433    548.281      1.152    545.341    548.081    545.341    545.542    545.341
 23.870    559.000    548.389     10.611    545.027    548.185    545.027    545.232    545.027
 23.970    558.722    548.644     10.079    544.712    548.436    544.712    544.922    544.712
 24.070    552.000    549.165      2.835    544.397    548.954    544.397    544.611    544.397
 24.170    539.000    550.269    -11.269    544.082    550.055    544.082    544.300    544.082
 24.270    577.000    552.771     24.229    543.767    552.554    543.767    543.989    543.767
 24.370    580.000    558.342     21.658    543.451    558.124    543.451    543.678    543.451
 24.470    598.000    569.356     28.644    543.134    569.142    543.134    543.366    543.134
 24.570    587.036    587.305     -0.269    542.818    587.099    542.818    543.055    542.818
 24.670    610.000    609.630      0.370    542.501    609.434    542.501    542.744    542.501
 24.770    612.000    627.044    -15.044    542.184    626.855    542.184    542.433    542.184
 24.870    620.000    628.013     -8.013    541.867    627.819    541.867    542.121    541.867
 24.970    652.250    611.482     40.767    541.549    611.271    541.549    541.811    541.549
 25.070    589.000    588.499      0.501    541.232    588.264    541.232    541.500    541.232
 25.170    602.000    569.202     32.798    540.914    568.945    540.914    541.190    540.914
 25.270    543.598    556.857    -13.258    540.596    556.584    540.596    540.879    540.596
 25.370    575.000    550.250     24.750    540.278    549.965    540.278    540.570    540.278
 25.470    545.000    546.976     -1.976    539.960    546.680    539.960    540.261    539.960
 25.570    552.000    545.247      6.753    539.642    544.940    539.642    539.952    539.642
 25.670    498.993    544.174    -45.181    539.324    543.856    539.324    539.644    539.324
 25.770    510.072    543.405    -33.333    539.006    543.076    539.006    539.337    539.006
 25.870    572.747    542.800     29.947    538.688    542.459    538.688    539.031    538.688
 25.970    589.376    542.294     47.082    538.370    541.940    538.370    538.725    538.370
 26.070    579.944    541.862     38.082    538.052    541.495    538.052    538.421    538.052
 26.170    584.000    541.499     42.501    537.734    541.116    537.734    538.118    537.734
 26.270    539.000    541.194     -2.194    537.417    540.795    537.417    537.816    537.417
 26.370    613.000    540.946     72.054    537.099    540.529    537.099    537.516    537.099
 26.470    562.000    540.733     21.267    536.782    540.297    536.782    537.217    536.782
 26.570    499.448    540.567    -41.119    536.464    540.112    536.464    536.920    536.464
 26.670    572.000    540.459     31.541    536.147    539.980    536.147    536.626    536.147
 26.770    521.000    540.412    -19.412    535.830    539.909    535.830    536.334    535.830
 26.870    574.979    540.468     34.511    535.514    539.937    535.514    536.045    535.514
 26.970    490.984    540.570    -49.586    535.198    540.009    535.198    535.759    535.198
 27.070    581.764    540.777     40.987    534.881    540.182    534.881    535.476    534.881
 27.170    561.497    541.121     20.376    534.566    540.488    534.566    535.198    534.566
 27.270    574.571    541.644     32.928    534.250    540.968    534.250    534.925    534.250
 27.370    557.000    542.421     14.579    533.935    541.698    533.935    534.657    533.935
 27.470    522.000    543.580    -21.580    533.620    542.803    533.620    534.396    533.620
 27.570    545.000    545.457     -0.457    533.306    544.618    533.306    534.143    533.306
 27.670    534.000    549.131    -15.131    532.992    548.221    532.992    533.899    532.992
 27.770    557.000    558.617     -1.617    532.678    557.623    532.678    533.666    532.678
 27.870    582.000    584.792     -2.792    532.365    583.695    532.365    533.446    532.365
 27.970    655.000    646.180      8.820    532.052    644.954    532.052    533.242    532.052
 28.070    802.000    754.188     47.812    531.740    752.801    531.740    533.059    531.740
 28.170    850.000    882.588    -32.588    531.429    881.019    531.429    532.900    531.429
 28.270   1027.000    957.128     69.872    531.117    955.376    531.117    532.773    531.117
 28.370    915.000    919.528     -4.528    530.807    917.588    530.807    532.685    530.807
 28.470    796.000    809.970    -13.970    530.496    807.791    530.496    532.651    530.496
 28.570    700.000    714.371    -14.371    530.187    711.860    530.187    532.691    530.187
 28.670    657.286    685.425    -28.139    529.878    682.455    529.878    532.838    529.878
 28.770    697.142    724.900    -27.758    529.570    721.296    529.570    533.154    529.570
 28.870    808.000    795.652     12.348    529.262    791.144    529.262    533.745    529.262
 28.970    819.000    837.366    -18.366    528.955    831.516    528.955    534.787    528.955
 29.070    864.234    808.465     55.770    528.648    800.574    528.648    536.540    528.648
 29.170    738.319    731.801      6.518    528.342    720.836    528.342    539.320    528.342
 29.270    625.000    655.817    -30.817    528.037    640.448    528.037    543.419    528.037
 29.370    606.000    607.138     -1.138    527.733    585.945    527.733    548.933    527.733
 29.470    600.740    585.758     14.982    527.429    557.740    527.429    555.450    527.429
 29.570    631.000    579.902     51.098    527.126    545.445    527.126    561.583    527.126
 29.670    534.822    578.266    -43.444    526.824    540.166    526.824    564.923    526.824
 29.770    594.000    574.553     19.447    526.522    537.479    526.522    563.594    526.522
 29.870    616.610    567.778     48.832    526.222    535.790    526.222    558.207    526.222
 29.970    569.000    559.802      9.198    525.922    534.610    525.922    551.112    525.922
 30.070    574.477    552.489     21.988    525.623    533.785    525.623    544.324    525.623
 30.170    533.000    546.738    -13.738    525.324    533.281    525.324    538.779    525.324
 30.270    527.000    542.795    -15.795    525.027    533.178    525.027    534.641    525.027
 30.370    548.000    540.829      7.171    524.730    533.843    524.730    531.713    524.730
 30.470    511.351    541.552    -30.202    524.435    536.303    524.435    529.678    524.435
 30.570    543.000    546.704     -3.704    524.140    542.592    524.140    528.240    524.140
 30.670    613.000    558.548     54.452    523.846    555.198    523.846    527.174    523.846
 30.770    617.000    577.466     39.534    523.553    574.648    523.553    526.335    523.553
 30.870    631.000    598.473     32.527    523.261    596.048    523.261    525.636    523.261
 30.970    606.000    610.273     -4.273    522.970    608.158    522.970    525.030    522.970
 31.070    608.000    603.813      4.187    522.680    601.957    522.680    524.488    522.680
 31.170    574.506    583.815     -9.309    522.391    582.179    522.391    523.995    522.391
 31.270    546.967    561.905    -14.938    522.102    560.451    522.102    523.538    522.102
 31.370    542.000    545.574     -3.574    521.815    544.270    521.815    523.110    521.815
 31.470    550.000    536.091     13.909    521.529    534.909    521.529    522.705    521.529
 31.570    536.000    531.420      4.580    521.244    530.342    521.244    522.319    521.244
 31.670    498.532    529.223    -30.692    520.960    528.232    520.960    521.949    520.960
 31.770    530.000    528.074      1.926    520.677    527.157    520.677    521.592    520.677
 31.870    515.703    527.353    -11.651    520.395    526.501    520.395    521.245    520.395
 31.970    552.000    526.846     25.154    520.114    526.050    520.114    520.908    520.114
 32.070    518.989    526.479     -7.491    519.834    525.733    519.834    520.579    519.834
 32.170    548.000    526.229     21.771    519.555    525.525    519.555    520.257    519.555
 32.270    568.000    526.081     41.919    519.278    525.416    519.278    519.941    519.278
 32.370    511.000    526.036    -15.036    519.001    525.405    519.001    519.631    519.001
 32.470    499.905    526.100    -26.195    518.726    525.500    518.726    519.325    518.726
 32.570    531.000    526.288      4.712    518.452    525.715    518.452    519.024    518.452
 32.670    554.677    526.621     28.056    518.179    526.072    518.179    518.726    518.179
 32.770    533.732    527.133      6.599    517.907    526.607    517.907    518.432    517.907
 32.870    553.000    527.874     25.126    517.636    527.367    517.636    518.142    517.636
 32.970    563.000    528.915     34.085    517.367    528.426    517.367    517.855    517.367
 33.070    557.033    530.371     26.662    517.099    529.898    517.099    517.570    517.099
 33.170    528.000    532.429     -4.429    516.831    531.970    516.831    517.288    516.831
 33.270    542.000    535.527      6.473    516.566    535.081    516.566    517.009    516.566
 33.370    572.832    540.841     31.991    516.301    540.407    516.301    516.732    516.301
 33.470    567.000    551.538     15.462    516.038    551.112    516.038    516.458    516.038
 33.570    575.000    574.784      0.216    515.776    574.363    515.776    516.186    515.776
 33.670    630.000    622.685      7.315    515.515    622.263    515.515    515.916    515.515
 33.770    709.000    707.830      1.170    515.255    707.401    515.255    515.648    515.255
 33.870    855.000    830.519     24.481    514.997    830.078    514.997    515.382    514.997
 33.970    981.000    962.399     18.601    514.740    961.954    514.740    515.118    514.740
 34.070   1078.000   1042.622     35.378    514.485   1042.190    514.485    514.855    514.485
 34.170   1070.000   1019.380     50.620    514.230   1018.979    514.230    514.595    514.230
 34.270    922.715    909.859     12.856    513.977    909.488    513.977    514.337    513.977
 34.370    788.000    776.449     11.551    513.726    776.096    513.726    514.080    513.726
 34.470    635.268    667.415    -32.147    513.476    667.070    513.476    513.825    513.476
 34.570    609.368    597.830     11.538    513.227    597.487    513.227    513.572    513.227
 34.670    595.863    560.710     35.153    512.979    560.369    512.979    513.321    512.979
 34.770    515.000    542.877    -27.877    512.733    542.539    512.733    513.071    512.733
 34.870    514.000    534.211    -20.211    512.488    533.875    512.488    512.823    512.488
 34.970    512.000    529.385    -17.385    512.245    529.052    512.245    512.577    512.245
 35.070    495.694    526.197    -30.503    512.003    525.867    512.003    512.332    512.003
 35.170    481.000    523.838    -42.838    511.762    523.510    511.762    512.089    511.762
 35.270    530.000    521.989      8.011    511.523    521.663    511.523    511.848    511.523
 35.370    501.105    520.494    -19.389    511.285    520.170    511.285    511.609    511.285
 35.470    528.420    519.259      9.161    511.049    518.936    511.049    511.371    511.049
 35.570    527.529    518.218      9.311    510.814    517.897    510.814    511.134    510.814
 35.670    552.209    517.327     34.882    510.581    517.008    510.581    510.900    510.581
 35.770    480.000    516.554    -36.554    510.349    516.235    510.349    510.667    510.349
 35.870    521.000    515.874      5.126    510.118    515.556    510.118    510.435    510.118
 35.970    477.578    515.270    -37.692    509.889    514.953    509.889    510.206    509.889
 36.070    527.684    514.728     12.956    509.661    514.412    509.661    509.977    509.661
 36.170    499.000    514.240    -15.240    509.435    513.924    509.435    509.751    509.435
 36.270    476.490    513.797    -37.308    509.211    513.482    509.211    509.526    509.211
 36.370    488.000    513.395    -25.395    508.987    513.079    508.987    509.303    508.987
 36.470    486.000    513.029    -27.029    508.766    512.714    508.766    509.081    508.766
 36.570    482.000    512.700    -30.700    508.546    512.384    508.546    508.861    508.546
 36.670    507.000    512.406     -5.406    508.327    512.091    508.327    508.643    508.327
 36.770    533.000    512.155     20.845    508.110    511.838    508.110    508.426    508.110
 36.870    499.000    511.960    -12.960    507.894    511.643    507.894    508.211    507.894
 36.970    475.997    511.863    -35.866    507.680    511.546    507.680    507.998    507.680
 37.070    506.828    511.960     -5.132    507.468    511.642    507.468    507.786    507.468
 37.170    497.000    512.438    -15.438    507.257    512.120    507.257    507.576    507.257
 37.270    530.000    513.574     16.426    507.048    513.255    507.048    507.368    507.048
 37.370    507.000    515.636     -8.636    506.840    515.316    506.840    507.161    506.840
 37.470    500.000    518.652    -18.652    506.633    518.331    506.633    506.956    506.633
 37.570    500.109    522.114    -22.006    506.429    521.793    506.429    506.752    506.429
 37.670    523.137    524.829     -1.692    506.226    524.508    506.226    506.551    506.226
 37.770    526.000    525.423      0.577    506.024    525.102    506.024    506.350    506.024
 37.870    563.651    523.574     40.076    505.824    523.254    505.824    506.152    505.824
 37.970    523.000    520.344      2.656    505.626    520.024    505.626    505.955    505.626
 38.070    537.790    516.929     20.861    505.429    516.608    505.429    505.760    505.429
 38.170    558.497    513.945     44.552    505.233    513.621    505.233    505.567    505.233
 38.270    501.722    511.631     -9.909    505.040    511.303    505.040    505.375    505.040
 38.370    488.694    509.999    -21.305    504.848    509.666    504.848    505.185    504.848
 38.470    494.836    508.912    -14.076    504.657    508.575    504.657    504.997    504.657
 38.570    496.000    508.199    -12.199    504.468    507.858    504.468    504.810    504.468
 38.670    513.000    507.714      5.286    504.281    507.371    504.281    504.626    504.281
 38.770    492.000    507.358    -15.358    504.096    507.012    504.096    504.442    504.096
 38.870    506.436    507.070     -0.633    503.912    506.721    503.912    504.261    503.912
 38.970    485.000    506.819    -21.819    503.729    506.468    503.729    504.081    503.729
 39.070    490.000    506.592    -16.592    503.549    506.238    503.549    503.903    503.549
 39.170    490.520    506.382    -15.862    503.369    506.024    503.369    503.727    503.369
 39.270    496.000    506.184    -10.184    503.192    505.824    503.192    503.553    503.192
 39.370    509.000    505.998      3.002    503.016    505.634    503.016    503.380    503.016
 39.470    524.000    505.821     18.179    502.842    505.455    502.842    503.209    502.842
 39.570    559.000    505.654     53.346    502.669    505.284    502.669    503.040    502.669
 39.670    478.000    505.494    -27.494    502.498    505.121    502.498    502.872    502.498
 39.770    485.000    505.343    -20.343    502.329    504.966    502.329    502.706    502.329
 39.870    496.000    505.199     -9.199    502.162    504.819    502.162    502.542    502.162
 39.970    457.000    505.063    -48.063    501.996    504.679    501.996    502.380    501.996
 40.070    529.034    504.936     24.098    501.831    504.547    501.831    502.220    501.831
 40.170    512.000    504.816      7.184    501.669    504.424    501.669    502.061    501.669
 40.270    527.000    504.706     22.294    501.508    504.309    501.508    501.904    501.508
 40.370    511.570    504.605      6.965    501.348    504.204    501.348    501.749    501.348
 40.470    464.257    504.514    -40.257    501.190    504.109    501.190    501.596    501.190
 40.570    493.551    504.435    -10.884    501.034    504.025    501.034    501.444    501.034
 40.670    513.125    504.369      8.755    500.880    503.955    500.880    501.295    500.880
 40.770    545.213    504.318     40.894    500.727    503.899    500.727    501.147    500.727
 40.870    499.000    504.285     -5.285    500.576    503.861    500.576    501.001    500.576
 40.970    549.399    504.272     45.127    500.427    503.843    500.427    500.857    500.427
 41.070    494.000    504.285    -10.285    500.279    503.850    500.279    500.715    500.279
 41.170    476.000    504.327    -28.327    500.133    503.887    500.133    500.574    500.133
 41.270    487.000    504.406    -17.406    499.989    503.961    499.989    500.435    499.989
 41.370    509.300    504.533      4.768    499.846    504.081    499.846    500.299    499.846
 41.470    518.000    504.720     13.280    499.705    504.263    499.705    500.164    499.705
 41.570    484.000    504.989    -20.989    499.566    504.526    499.566    500.031    499.566
 41.670    541.000    505.377     35.623    499.428    504.907    499.428    499.900    499.428
 41.770    489.000    505.959    -16.959    499.292    505.483    499.292    499.770    499.292
 41.870    501.000    506.920     -5.920    499.158    506.437    499.158    499.643    499.158
 41.970    498.000    508.688    -10.688    499.025    508.199    499.025    499.518    499.025
 42.070    483.000    512.148    -29.148    498.894    511.652    498.894    499.394    498.894
 42.170    519.000    518.803      0.197    498.765    518.303    498.765    499.273    498.765
 42.270    546.000    530.571     15.429    498.637    530.067    498.637    499.153    498.637
 42.370    513.000    548.865    -35.865    498.512    548.363    498.512    499.035    498.512
 42.470    614.447    572.989     41.457    498.387    572.490    498.387    498.920    498.387
 42.570    622.000    598.464     23.536    498.265    597.969    498.265    498.806    498.265
 42.670    556.000    616.730    -60.730    498.144    616.238    498.144    498.694    498.144
 42.770    587.405    619.030    -31.626    498.025    618.534    498.025    498.585    498.025
 42.870    585.583    603.956    -18.373    497.907    603.444    497.907    498.477    497.907
 42.970    541.000    579.110    -38.110    497.791    578.575    497.791    498.372    497.791
 43.070    592.998    553.832     39.166    497.677    553.272    497.677    498.268    497.677
 43.170    518.631    533.719    -15.089    497.564    533.136    497.564    498.167    497.564
 43.270    510.000    520.266    -10.266    497.453    519.663    497.453    498.068    497.453
 43.370    527.000    512.399     14.601    497.344    511.779    497.344    497.971    497.344
 43.470    470.687    508.189    -37.502    497.237    507.554    497.237    497.876    497.237
 43.570    510.000    505.979      4.021    497.131    505.330    497.131    497.783    497.131
 43.670    508.000    504.737      3.263    497.027    504.073    497.027    497.693    497.027
 43.770    470.000    503.944    -33.944    496.924    503.265    496.924    497.605    496.924
 43.870    539.510    503.378     36.133    496.823    502.684    496.823    497.519    496.823
 43.970    479.804    502.944    -23.140    496.724    502.234    496.724    497.435    496.724
 44.070    501.057    502.600     -1.543    496.626    501.873    496.626    497.354    496.626
 44.170    543.956    502.324     41.632    496.530    501.579    496.530    497.276    496.530
 44.270    533.000    502.100     30.900    496.436    501.337    496.436    497.199    496.436
 44.370    524.000    501.919     22.081    496.343    501.137    496.343    497.126    496.343
 44.470    460.000    501.772    -41.772    496.252    500.970    496.252    497.055    496.252
 44.570    470.164    501.655    -31.490    496.163    500.832    496.163    496.987    496.163
 44.670    500.000    501.563     -1.563    496.075    500.717    496.075    496.921    496.075
 44.770    480.111    501.494    -21.382    495.989    500.624    495.989    496.859    495.989
 44.870    479.000    501.444    -22.444    495.905    500.550    495.905    496.799    495.905
 44.970    551.000    501.414     49.586    495.822    500.493    495.822    496.743    495.822
 45.070    486.000    501.401    -15.401    495.741    500.452    495.741    496.689    495.741
 45.170    548.000    501.405     46.595    495.661    500.427    495.661    496.639    495.661
 45.270    509.000    501.425      7.575    495.584    500.416    495.584    496.593    495.584
 45.370    534.512    501.463     33.050    495.507    500.420    495.507    496.550    495.507
 45.470    525.866    501.517     24.349    495.433    500.439    495.433    496.511    495.433
 45.570    510.961    501.589      9.372    495.360    500.473    495.360    496.476    495.360
 45.670    535.768    501.679     34.089    495.288    500.522    495.288    496.445    495.288
 45.770    481.000    501.789    -20.789    495.219    500.589    495.219    496.418    495.219
 45.870    503.000    501.920      1.080    495.150    500.674    495.150    496.397    495.150
 45.970    500.449    502.075     -1.626    495.084    500.779    495.084    496.380    495.084
 46.070    509.000    502.256      6.744    495.019    500.905    495.019    496.369    495.019
 46.170    520.674    502.466     18.207    494.955    501.057    494.955    496.364    494.955
 46.270    476.000    502.710    -26.710    494.894    501.238    494.894    496.365    494.894
 46.370    464.000    502.992    -38.992    494.834    501.451    494.834    496.374    494.834
 46.470    498.000    503.320     -5.320    494.775    501.705    494.775    496.390    494.775
 46.570    515.000    503.704     11.296    494.718    502.006    494.718    496.414    494.718
 46.670    527.033    504.155     22.877    494.662    502.369    494.662    496.448    494.662
 46.770    530.730    504.698     26.032    494.609    502.813    494.609    496.492    494.609
 46.870    478.000    505.376    -27.376    494.556    503.384    494.556    496.547    494.556
 46.970    508.000    506.287      1.713    494.506    504.175    494.506    496.616    494.506
 47.070    463.635    507.640    -44.005    494.456    505.394    494.456    496.699    494.456
 47.170    512.000    509.843      2.157    494.409    507.448    494.409    496.800    494.409
 47.270    521.000    513.578      7.422    494.363    511.015    494.363    496.919    494.363
 47.370    501.000    519.785    -18.785    494.318    517.030    494.318    497.061    494.318
 47.470    526.000    529.332     -3.332    494.275    526.360    494.275    497.228    494.275
 47.570    544.000    542.460      1.540    494.234    539.239    494.234    497.426    494.234
 47.670    583.620    558.057     25.563    494.194    554.551    494.194    497.660    494.194
 47.770    593.000    573.125     19.875    494.156    569.294    494.156    497.937    494.156
 47.870    603.000    583.089     19.911    494.119    578.887    494.119    498.267    494.119
 47.970    541.570    584.086    -42.516    494.084    579.457    494.084    498.659    494.084
 48.070    561.000    576.165    -15.165    494.050    571.038    494.050    499.132    494.050
 48.170    544.000    563.270    -19.270    494.018    557.546    494.018    499.708    494.018
 48.270    551.000    550.042      0.958    493.987    543.582    493.987    500.423    493.987
 48.370    560.000    539.560     20.440    493.958    532.164    493.958    501.337    493.958
 48.470    520.000    533.063    -13.063    493.930    524.429    493.930    502.554    493.930
 48.570    525.000    530.522     -5.522    493.904    520.174    493.904    504.245    493.904
 48.670    514.000    531.399    -17.399    493.879    518.584    493.879    506.689    493.879
 48.770    531.000    535.258     -4.258    493.855    518.808    493.855    510.301    493.855
 48.870    532.659    542.062     -9.403    493.834    520.258    493.834    515.633    493.834
 48.970    526.000    552.178    -26.178    493.813    522.663    493.813    523.324    493.813
 49.070    604.520    566.204     38.316    493.794    526.041    493.794    533.953    493.794
 49.170    538.000    584.795    -46.795    493.777    530.765    493.777    547.802    493.777
 49.270    611.752    608.752      3.001    493.761    537.972    493.761    564.532    493.761
 49.370    699.000    639.776     59.224    493.746    550.750    493.746    582.759    493.746
 49.470    690.000    682.538      7.462    493.733    576.624    493.733    599.624    493.733
 49.570    737.000    748.517    -11.517    493.721    631.275    493.721    610.920    493.721
 49.670    866.000    860.362      5.638    493.711    741.208    493.711    612.789    493.711
 49.770   1076.000   1050.869     25.131    493.702    939.985    493.702    604.466    493.702
 49.870   1365.000   1347.529     17.471    493.695   1252.076    493.695    588.985    493.695
 49.970   1718.000   1743.123    -25.123    493.689   1665.853    493.689    570.780    493.689
 50.070   2180.000   2169.648     10.352    493.684   2109.907    493.684    553.286    493.684
 50.170   2593.634   2499.550     94.084    493.681   2454.837    493.681    538.355    493.681
 50.270   2554.618   2595.288    -40.669    493.679   2562.428    493.679    526.628    493.679
 50.370   2437.208   2405.164     32.043    493.678   2381.037    493.678    517.990    493.678
 50.470   1974.000   2013.098    -39.098    493.679   1995.060    493.679    511.931    493.679
 50.570   1529.000   1565.003    -36.003    493.681   1551.065    493.681    507.810    493.681
 50.670   1104.000   1177.684    -73.684    493.685   1166.479    493.685    505.032    493.685
 50.770    872.935    904.581    -31.646    493.690    895.233    493.690    503.132    493.690
 50.870    736.254    743.391     -7.138    493.696    735.361    493.696    501.788    493.696
 50.970    659.000    662.626     -3.626    493.704    655.581    493.704    500.794    493.704
 51.070    644.000    626.697     17.303    493.713    620.420    493.713    500.028    493.713
 51.170    626.000    609.041     16.959    493.723    603.379    493.723    499.419    493.723
 51.270    616.000    595.262     20.738    493.735    590.104    493.735    498.923    493.735
 51.370    532.329    580.956    -48.628    493.748    576.214    493.748    498.515    493.748
 51.470    571.000    566.739      4.261    493.762    562.345    493.762    498.175    493.762
 51.570    587.000    554.215     32.785    493.777    550.114    493.777    497.892    493.777
 51.670    558.648    544.410     14.238    493.794    540.559    493.794    497.655    493.794
 51.770    565.000    537.542     27.458    493.812    533.904    493.812    497.456    493.812
 51.870    501.000    533.236    -32.236    493.832    529.781    493.832    497.291    493.832
 51.970    513.605    530.875    -17.269    493.852    527.577    493.852    497.154    493.852
 52.070    573.305    529.890     43.415    493.874    526.726    493.874    497.041    493.874
 52.170    544.000    529.916     14.084    493.897    526.867    493.897    496.949    493.897
 52.270    554.873    530.818     24.055    493.922    527.866    493.922    496.875    493.922
 52.370    538.000    532.701      5.299    493.947    529.832    493.947    496.818    493.947
 52.470    590.000    536.006     53.994    493.974    533.206    493.974    496.776    493.974
 52.570    579.000    541.766     37.234    494.002    539.022    494.002    496.746    494.002
 52.670    515.446    552.050    -36.604    494.031    549.352    494.031    496.729    494.031
 52.770    628.000    570.494     57.506    494.062    567.831    494.062    496.723    494.062
 52.870    590.000    602.529    -12.529    494.094    599.892    494.094    496.726    494.094
 52.970    702.000    654.692     47.308    494.126    652.072    494.126    496.740    494.126
 53.070    754.000    732.430     21.570    494.160    729.820    494.160    496.762    494.160
 53.170    912.000    836.479     75.521    494.196    833.873    494.196    496.793    494.196
 53.270    904.232    958.825    -54.593    494.232    956.220    494.232    496.831    494.232
 53.370   1088.000   1079.843      8.157    494.269   1077.236    494.269    496.878    494.269
 53.470   1155.000   1169.133    -14.133    494.308   1166.523    494.308    496.932    494.308
 53.570   1134.000   1195.594    -61.594    494.348   1192.975    494.348    496.994    494.348
 53.670   1137.526   1148.069    -10.543    494.389   1145.430    494.389    497.063    494.389
 53.770   1062.000   1045.658     16.342    494.431   1042.986    494.431    497.139    494.431
 53.870    967.862    921.591     46.271    494.474    918.874    494.474    497.223    494.474
 53.970    789.508    803.715    -14.207    494.518    800.944    494.518    497.315    494.518
 54.070    675.000    707.930    -32.930    494.564    705.097    494.564    497.414    494.564
 54.170    688.000    639.125     48.875    494.610    636.226    494.610    497.521    494.610
 54.270    620.000    594.624     25.376    494.658    591.653    494.658    497.636    494.658
 54.370    631.000    568.256     62.744    494.706    565.207    494.706    497.759    494.706
 54.470    552.352    553.623     -1.271    494.756    550.490    494.756    497.891    494.756
 54.570    581.000    545.810     35.190    494.807    542.586    494.807    498.032    494.807
 54.670    569.000    541.711     27.289    494.858    538.387    494.858    498.184    494.858
 54.770    552.000    539.637     12.363    494.911    536.204    494.911    498.345    494.911
 54.870    537.000    538.769     -1.769    494.965    535.217    494.965    498.518    494.965
 54.970    543.000    538.748      4.252    495.020    535.066    495.020    498.702    495.020
 55.070    566.000    539.428     26.572    495.075    535.605    495.075    498.899    495.075
 55.170    508.188    540.770    -32.581    495.132    536.792    495.132    499.110    495.132
 55.270    528.525    542.788    -14.263    495.190    538.643    495.190    499.336    495.190
 55.370    567.094    545.550     21.544    495.249    541.221    495.249    499.578    495.249
 55.470    557.000    549.180      7.820    495.309    544.651    495.309    499.838    495.309
 55.570    532.000    553.920    -21.920    495.369    549.171    495.369    500.118    495.369
 55.670    544.000    560.257    -16.257    495.431    555.267    495.431    500.420    495.431
 55.770    602.000    569.247     32.753    495.494    563.993    495.494    500.746    495.494
 55.870    542.356    583.180    -40.824    495.557    577.634    495.557    501.099    495.557
 55.970    622.000    606.723     15.277    495.622    600.855    495.622    501.483    495.622
 56.070    661.041    648.468     12.573    495.687    642.240    495.687    501.900    495.687
 56.170    708.077    722.208    -14.131    495.753    715.579    495.753    502.356    495.753
 56.270    827.000    846.486    -19.486    495.820    839.407    495.820    502.855    495.820
 56.370   1022.367   1040.546    -18.179    495.888   1032.967    495.888    503.404    495.888
 56.470   1259.000   1315.775    -56.775    495.957   1307.642    495.957    504.011    495.957
 56.570   1593.000   1664.225    -71.225    496.027   1655.487    496.027    504.683    496.027
 56.670   1970.729   2048.467    -77.738    496.098   2039.075    496.098    505.432    496.098
 56.770   2331.000   2398.252    -67.252    496.169   2388.149    496.169    506.269    496.169
 56.870   2551.094   2622.401    -71.307    496.242   2611.514    496.242    507.212    496.242
 56.970   2713.502   2646.666     66.836    496.315   2634.877    496.315    508.278    496.315
 57.070   2487.000   2462.307     24.693    496.389   2449.438    496.389    509.493    496.389
 57.170   2168.509   2133.469     35.041    496.463   2119.295    496.463    510.888    496.463
 57.270   1816.000   1752.545     63.455    496.539   1736.804    496.539    512.506    496.539
 57.370   1446.000   1396.132     49.868    496.615   1378.517    496.615    514.412    496.615
 57.470   1114.000   1108.626      5.374    496.693   1088.745    496.693    516.703    496.693
 57.570    912.616    903.545      9.072    496.771    880.862    496.771    519.538    496.771
 57.670    772.000    772.885     -0.885    496.849    746.607    496.849    523.178    496.849
 57.770    672.126    698.931    -26.805    496.929    667.842    496.929    528.045    496.929
 57.870    663.620    663.964     -0.344    497.009    626.191    497.009    534.793    497.009
 57.970    672.000    655.587     16.413    497.090    608.300    497.090    544.378    497.090
 58.070    674.000    668.012      5.988    497.171    607.098    497.171    558.077    497.171
 58.170    706.000    700.875      5.125    497.254    620.680    497.254    577.430    497.254
 58.270    727.000    756.937    -29.937    497.337    650.205    497.337    604.039    497.337
 58.370    836.000    839.296     -3.296    497.420    697.463    497.420    639.212    497.420
 58.470    920.000    948.694    -28.694    497.505    762.683    497.505    683.465    497.505
 58.570   1143.362   1081.237     62.124    497.590    842.856    497.590    735.917    497.590
 58.670   1205.550   1226.880    -21.331    497.676    930.925    497.676    793.580    497.676
 58.770   1410.143   1369.673     40.469    497.762   1016.812    497.762    850.584    497.762
 58.870   1527.000   1491.002     35.998    497.849   1090.962    497.849    897.867    497.849
 58.970   1545.238   1573.526    -28.288    497.936   1146.643    497.936    924.820    497.936
 59.070   1615.000   1603.521     11.479    498.025   1177.637    498.025    923.932    498.025
 59.170   1596.000   1575.314     20.686    498.114   1177.957    498.114    895.513    498.114
 59.270   1465.000   1497.223    -32.223    498.203   1148.011    498.203    847.462    498.203
 59.370   1324.280   1390.821    -66.542    498.293   1098.770    498.293    790.379    498.293
 59.470   1365.000   1281.372     83.628    498.384   1046.642    498.384    733.122    498.384
 59.570   1263.000   1190.053     72.947    498.475   1007.152    498.475    681.347    498.475
 59.670   1185.000   1133.305     51.695    498.567    993.917    498.567    637.881    498.567
 59.770   1113.546   1123.660    -10.115    498.659   1018.699    498.659    603.495    498.659
 59.870   1206.000   1166.785     39.215    498.752   1087.752    498.752    577.604    498.752
 59.970   1261.000   1256.656      4.344    498.845   1196.399    498.845    558.869    498.845
 60.070   1393.000   1372.934     20.066    498.939   1325.917    498.939    545.683    498.939
 60.170   1586.000   1482.252    103.748    499.033   1444.475    499.033    536.521    499.033
 60.270   1598.000   1545.333     52.667    499.128   1514.061    499.128    530.127    499.128
 60.370   1558.000   1532.330     25.670    499.223   1505.757    499.223    525.571    499.223
 60.470   1496.958   1439.420     57.538    499.319   1416.357    499.319    522.217    499.319
 60.570   1334.000   1289.992     44.008    499.415   1269.639    499.415    519.661    499.415
 60.670   1122.788   1119.006      3.782    499.512   1100.798    499.512    517.658    499.512
 60.770    902.000    957.211    -55.211    499.609    940.724    499.609    516.063    499.609
 60.870    819.000    824.000     -5.000    499.707    808.895    499.707    514.796    499.707
 60.970    666.000    726.786    -60.786    499.805    712.770    499.805    513.812    499.805
 61.070    693.000    664.050     28.950    499.903    650.858    499.903    513.086    499.903
 61.170    591.658    630.032    -38.374    500.002    617.414    500.002    512.607    500.002
 61.270    652.964    619.113     33.852    500.101    606.831    500.101    512.363    500.101
 61.370    598.000    628.627    -30.627    500.201    616.460    500.201    512.338    500.201
 61.470    675.000    659.714     15.286    500.301    647.466    500.301    512.502    500.301
 61.570    752.762    716.325     36.436    500.401    703.856    500.401    512.802    500.401
 61.670    832.000    802.679     29.321    500.501    789.929    500.501    513.154    500.501
 61.770    882.000    919.629    -37.629    500.602    906.662    500.602    513.439    500.602
 61.870   1045.000   1060.941    -15.941    500.704   1047.965    500.704    513.520    500.704
 61.970   1192.641   1210.784    -18.143    500.805   1198.122    500.805    513.289    500.805
 62.070   1245.000   1343.760    -98.760    500.907   1331.762    500.907    512.724    500.907
 62.170   1378.517   1429.334    -50.818    501.009   1418.281    501.009    511.903    501.009
 62.270   1374.000   1442.878    -68.878    501.112   1432.919    501.112    510.950    501.112
 62.370   1418.566   1379.542     39.024    501.214   1370.696    501.214    509.982    501.214
 62.470   1242.000   1257.795    -15.795    501.317   1249.990    501.317    509.082    501.317
 62.570   1053.000   1107.912    -54.912    501.421   1101.024    501.421    508.295    501.421
 62.670    989.636    958.224     31.412    501.524    952.109    501.524    507.641    501.524
 62.770    825.000    828.244     -3.244    501.628    822.760    501.628    507.118    501.628
 62.870    706.000    727.298    -21.298    501.732    722.321    501.732    506.716    501.732
 62.970    637.000    656.161    -19.161    501.836    651.586    501.836    506.415    501.836
 63.070    586.714    610.205    -23.490    501.940    605.951    501.940    506.195    501.940
 63.170    626.647    582.752     43.895    502.045    578.759    502.045    506.036    502.045
 63.270    599.048    567.539     31.509    502.149    563.762    502.149    505.923    502.149
 63.370    580.000    559.939     20.061    502.254    556.345    502.254    505.843    502.254
 63.470    585.167    557.226     27.941    502.359    553.790    502.359    505.787    502.359
 63.570    576.959    558.349     18.610    502.464    555.053    502.464    505.751    502.464
 63.670    552.000    563.614    -11.614    502.569    560.441    502.569    505.730    502.569
 63.770    545.725    574.407    -28.682    502.675    571.343    502.675    505.720    502.675
 63.870    613.175    592.909     20.266    502.780    589.941    502.780    505.721    502.780
 63.970    642.000    621.649     20.351    502.886    618.764    502.886    505.731    502.886
 64.070    715.572    662.756     52.816    502.991    659.942    502.991    505.749    502.991
 64.170    779.000    716.954     62.046    503.097    714.201    503.097    505.774    503.097
 64.270    821.403    782.449     38.954    503.203    779.751    503.203    505.805    503.203
 64.370    909.000    854.026     54.974    503.309    851.379    503.309    505.842    503.309
 64.470    862.808    922.773    -59.965    503.415    920.176    503.415    505.884    503.415
 64.570    965.589    977.254    -11.666    503.521    974.714    503.521    505.932    503.521
 64.670   1048.405   1006.937     41.469    503.626   1004.460    503.626    505.984    503.626
 64.770   1016.000   1006.506      9.494    503.732   1004.100    503.732    506.040    503.732
 64.870   1013.000    977.719     35.281    503.838    975.384    503.838    506.100    503.838
 64.970    989.361    927.980     61.382    503.944    925.713    503.944    506.163    503.944
 65.070    908.260    867.511     40.749    504.050    865.308    504.050    506.230    504.050
 65.170    802.406    806.044     -3.638    504.156    803.896    504.156    506.300    504.156
 65.270    737.000    750.273    -13.273    504.262    748.172    504.262    506.374    504.262
 65.370    656.000    703.214    -47.214    504.368    701.152    504.368    506.450    504.368
 65.470    668.150    665.145      3.006    504.473    663.112    504.473    506.529    504.473
 65.570    639.136    635.056      4.080    504.579    633.047    504.579    506.610    504.579
 65.670    587.000    611.668    -24.668    504.685    609.678    504.685    506.694    504.685
 65.770    594.000    593.782      0.218    504.790    591.806    504.790    506.780    504.790
 65.870    588.000    580.363      7.637    504.895    578.399    504.895    506.869    504.895
 65.970    571.000    570.574      0.426    505.001    568.621    505.001    506.960    505.001
 66.070    525.746    563.763    -38.017    505.106    561.819    505.106    507.053    505.106
 66.170    536.926    559.416    -22.490    505.211    557.480    505.211    507.148    505.211
 66.270    546.000    557.111    -11.111    505.315    555.181    505.315    507.245    505.315
 66.370    513.752    556.505    -42.754    505.420    554.581    505.420    507.344    505.420
 66.470    531.000    557.360    -26.360    505.525    555.440    505.525    507.444    505.525
 66.570    546.000    559.593    -13.593    505.629    557.675    505.629    507.547    505.629
 66.670    553.391    563.364     -9.973    505.733    561.445    505.733    507.652    505.733
 66.770    546.000    569.236    -23.236    505.837    567.313    505.837    507.759    505.837
 66.870    530.771    578.452    -47.681    505.940    576.523    505.940    507.869    505.940
 66.970    551.747    593.359    -41.612    506.044    591.419    506.044    507.980    506.044
 67.070    620.000    617.951      2.049    506.147    615.997    506.147    508.094    506.147
 67.170    646.000    658.370    -12.370    506.250    656.397    506.250    508.209    506.250
 67.270    642.000    723.037    -81.037    506.353    721.042    506.353    508.327    506.353
 67.370    761.000    821.947    -60.947    506.455    819.926    506.455    508.447    506.455
 67.470   1003.000    964.715     38.285    506.557    962.667    506.557    508.570    506.557
 67.570   1092.477   1157.305    -64.828    506.659   1155.234    506.659    508.695    506.659
 67.670   1429.000   1397.990     31.010    506.761   1395.904    506.761    508.823    506.761
 67.770   1633.000   1673.654    -40.654    506.862   1671.568    506.862    508.953    506.862
 67.870   1976.000   1957.704     18.296    506.963   1955.633    506.963    509.087    506.963
 67.970   2228.484   2210.694     17.790    507.064   2208.654    507.064    509.223    507.064
 68.070   2429.000   2385.715     43.285    507.164   2383.714    507.164    509.363    507.164
 68.170   2377.000   2442.032    -65.032    507.264   2440.060    507.264    509.506    507.264
 68.270   2404.852   2364.679     40.173    507.364   2362.707    507.364    509.652    507.364
 68.370   2147.719   2173.789    -26.071    507.463   2171.779    507.463    509.803    507.463
 68.470   1953.000   1912.583     40.417    507.562   1910.497    507.562    509.958    507.562
 68.570   1558.567   1627.620    -69.053    507.660   1625.432    507.660    510.118    507.660
 68.670   1312.064   1356.493    -44.429    507.758   1354.186    507.758    510.283    507.758
 68.770   1131.000   1123.528      7.472    507.856   1121.095    507.856    510.454    507.856
 68.870    915.000    939.743    -24.743    507.953    937.184    507.953    510.630    507.953
 68.970    855.039    805.290     49.749    508.050    802.607    508.050    510.813    508.050
 69.070    697.000    713.298    -16.298    508.146    710.493    508.146    511.003    508.146
 69.170    674.000    653.859     20.141    508.242    650.932    508.242    511.202    508.242
 69.270    652.000    617.110     34.890    508.337    614.060    508.337    511.409    508.337
 69.370    595.000    594.966      0.034    508.432    591.786    508.432    511.626    508.432
 69.470    607.000    581.644     25.356    508.527    578.327    508.527    511.854    508.527
 69.570    597.000    573.437     23.563    508.621    569.970    508.621    512.094    508.621
 69.670    596.000    568.170     27.830    508.714    564.542    508.714    512.347    508.714
 69.770    616.000    564.661     51.339    508.807    560.855    508.807    512.616    508.807
 69.870    608.000    562.298     45.702    508.900    558.298    508.900    512.902    508.900
 69.970    579.000    560.780     18.220    508.992    556.565    508.992    513.207    508.992
 70.070    593.000    559.960     33.040    509.083    555.509    509.083    513.535    509.083
 70.170    547.575    559.780    -12.206    509.174    555.067    509.174    513.887    509.174
 70.270    598.569    560.241     38.328    509.264    555.237    509.264    514.268    509.264
 70.370    583.655    561.408     22.247    509.354    556.078    509.354    514.682    509.354
 70.470    591.000    563.447     27.553    509.443    557.753    509.443    515.133    509.443
 70.570    585.000    566.699     18.301    509.531    560.597    509.531    515.629    509.531
 70.670    591.000    571.814     19.186    509.619    565.250    509.619    516.177    509.619
 70.770    608.000    579.946     28.054    509.706    572.858    509.706    516.786    509.706
 70.870    586.000    593.017     -7.017    509.793    585.328    509.793    517.469    509.793
 70.970    615.000    613.982      1.018    509.879    605.595    509.879    518.246    509.879
 71.070    682.482    647.000     35.482    509.965    637.790    509.965    519.144    509.965
 71.170    683.000    697.320    -14.320    510.049    687.117    510.049    520.207    510.049
 71.270    760.429    770.687    -10.258    510.133    759.248    510.133    521.505    510.133
 71.370    829.316    872.158    -42.841    510.217    859.129    510.217    523.151    510.217
 71.470   1012.000   1004.378      7.622    510.300    989.231    510.300    525.321    510.300
 71.570   1125.000   1165.648    -40.648    510.382   1147.586    510.382    528.283    510.382
 71.670   1284.000   1348.263    -64.263    510.463   1326.111    510.463    532.422    510.463
 71.770   1536.000   1537.631     -1.631    510.544   1509.694    510.544    538.261    510.544
 71.870   1628.077   1712.588    -84.511    510.624   1676.524    510.624    546.456    510.624
 71.970   1846.000   1847.800     -1.800    510.703   1800.521    510.703    557.755    510.703
 72.070   1968.000   1919.877     48.123    510.781   1857.547    510.781    572.910    510.781
 72.170   1908.000   1916.772     -8.772    510.859   1834.940    510.859    592.530    510.859
 72.270   1929.188   1844.043     85.145    510.936   1737.971    510.936    616.894    510.936
 72.370   1643.762   1721.684    -77.922    511.012   1586.885    511.012    645.740    511.012
 72.470   1600.000   1574.781     25.219    511.088   1407.760    511.088    678.070    511.088
 72.570   1448.000   1425.503     22.497    511.163   1224.676    511.163    711.974    511.163
 72.670   1342.000   1289.079     52.921    511.237   1055.801    511.237    744.512    511.237
 72.770   1162.000   1172.732    -10.732    511.310    912.262    511.310    771.785    511.310
 72.870    987.000   1076.645    -89.645    511.382    798.553    511.382    789.480    511.382
 72.970   1053.164    996.647     56.516    511.454    713.946    511.454    794.161    511.454
 73.070    898.000    927.678    -29.678    511.524    654.391    511.524    784.816    511.524
 73.170    914.349    866.223     48.125    511.594    614.403    511.594    763.418    511.594
 73.270    803.310    810.757     -7.447    511.663    588.515    511.663    733.907    511.663
 73.370    733.000    760.988    -27.988    511.731    572.134    511.731    700.587    511.731
 73.470    678.000    717.117    -39.117    511.799    561.853    511.799    667.064    511.799
 73.570    709.891    679.436     30.455    511.865    555.394    511.865    635.909    511.865
 73.670    598.000    648.132    -50.132    511.931    551.371    511.931    608.695    511.931
 73.770    630.267    623.150      7.117    511.995    549.013    511.995    586.137    511.995
 73.870    633.793    604.141     29.653    512.059    547.926    512.059    568.281    512.059
 73.970    608.171    590.479     17.692    512.122    547.905    512.122    554.707    512.122
 74.070    562.182    581.341    -19.159    512.184    548.806    512.184    544.734    512.184
 74.170    586.000    575.793     10.207    512.245    550.462    512.245    537.597    512.245
 74.270    564.071    572.869     -8.797    512.305    552.631    512.305    532.569    512.305
 74.370    594.729    571.617     23.113    512.364    554.972    512.364    529.040    512.364
 74.470    619.000    571.132     47.868    512.423    557.055    512.423    526.536    512.423
 74.570    619.000    570.597     48.403    512.480    558.403    512.480    524.715    512.480
 74.670    655.000    569.373     85.627    512.536    558.606    512.536    523.345    512.536
 74.770    544.741    567.131    -22.390    512.592    557.489    512.592    522.276    512.592
 74.870    624.000    563.924     60.076    512.646    555.197    512.646    521.412    512.646
 74.970    527.835    560.095    -32.260    512.700    552.134    512.700    520.695    512.700
 75.070    546.929    556.124     -9.196    512.752    548.818    512.752    520.086    512.752
 75.170    614.000    552.509     61.491    512.804    545.772    512.804    519.563    512.804
 75.270    538.424    549.726    -11.302    512.854    543.487    512.854    519.109    512.854
 75.370    509.450    548.234    -38.784    512.904    542.436    512.904    518.712    512.904
 75.470    570.000    548.497     21.503    512.952    543.090    512.952    518.363    512.952
 75.570    595.000    551.001     43.999    512.999    545.944    512.999    518.055    512.999
 75.670    587.000    556.253     30.747    513.046    551.508    513.046    517.783    513.046
 75.770    585.000    564.726     20.274    513.091    560.262    513.091    517.541    513.091
 75.870    615.556    576.764     38.793    513.135    572.552    513.135    517.326    513.135
 75.970    622.354    592.429     29.925    513.179    588.444    513.179    517.135    513.179
 76.070    539.000    611.343    -72.343    513.221    607.563    513.221    516.963    513.221
 76.170    606.694    632.549    -25.855    513.262    628.955    513.262    516.809    513.262
 76.270    659.000    654.437      4.563    513.302    651.014    513.302    516.671    513.302
 76.370    701.000    674.777     26.223    513.341    671.510    513.341    516.547    513.341
 76.470    677.000    690.908    -13.908    513.379    687.788    513.379    516.435    513.379
 76.570    679.000    700.218    -21.218    513.416    697.237    513.416    516.335    513.416
 76.670    713.000    700.932     12.068    513.451    698.082    513.451    516.243    513.451
 76.770    681.000    692.844    -11.844    513.486    690.118    513.486    516.160    513.486
 76.870    678.307    677.417      0.890    513.519    674.807    513.519    516.085    513.519
 76.970    609.252    657.146    -47.894    513.551    654.645    513.551    516.017    513.551
 77.070    623.000    634.726    -11.726    513.583    632.326    513.583    515.955    513.583
 77.170    568.836    612.487    -43.651    513.613    610.181    513.613    515.898    513.613
 77.270    569.000    592.148    -23.148    513.641    589.928    513.641    515.846    513.641
 77.370    565.000    574.756     -9.756    513.669    572.616    513.669    515.798    513.669
 77.470    562.000    560.737      1.263    513.696    558.671    513.696    515.755    513.696
 77.570    492.000    550.023    -58.023    513.721    548.024    513.721    515.715    513.721
 77.670    526.265    542.206    -15.940    513.745    540.270    513.745    515.677    513.745
 77.770    569.890    536.711     33.179    513.768    534.834    513.768    515.643    513.768
 77.870    514.000    533.015    -19.015    513.790    531.192    513.790    515.611    513.790
 77.970    536.277    530.572      5.705    513.811    528.800    513.811    515.582    513.811
 78.070    544.787    528.970     15.818    513.830    527.245    513.830    515.554    513.830
 78.170    536.000    527.911      8.089    513.849    526.230    513.849    515.528    513.849
 78.270    529.000    527.198      1.802    513.866    525.559    513.866    515.504    513.866
 78.370    517.207    526.707     -9.499    513.882    525.106    513.882    515.481    513.882
 78.470    528.000    526.366      1.634    513.896    524.802    513.896    515.459    513.896
 78.570    503.000    526.139    -23.139    513.910    524.609    513.910    515.439    513.910
 78.670    535.000    526.011      8.989    513.922    524.512    513.922    515.420    513.922
 78.770    573.306    525.983     47.323    513.933    524.513    513.933    515.402    513.933
 78.870    511.000    526.066    -15.066    513.942    524.622    513.942    515.386    513.942
 78.970    543.000    526.281     16.719    513.951    524.860    513.951    515.371    513.951
 79.070    524.000    526.652     -2.652    513.958    525.252    513.958    515.357    513.958
 79.170    514.130    527.209    -13.079    513.964    525.825    513.964    515.347    513.964
 79.270    565.704    527.980     37.725    513.969    526.607    513.969    515.339    513.969
 79.370    538.000    528.993      9.007    513.972    527.627    513.972    515.335    513.972
 79.470    521.000    530.275     -9.275    513.974    528.910    513.974    515.336    513.974
 79.570    532.000    531.858      0.142    513.975    530.485    513.975    515.344    513.975
 79.670    526.000    533.783     -7.783    513.974    532.394    513.974    515.358    513.974
 79.770    535.000    536.119     -1.119    513.973    534.705    513.973    515.382    513.973
 79.870    552.000    538.978     13.022    513.970    537.527    513.970    515.414    513.970
 79.970    572.429    542.537     29.891    513.965    541.041    513.965    515.457    513.965
 80.070    533.529    547.065    -13.536    513.960    545.512    513.960    515.508    513.960
 80.170    556.000    552.933      3.067    513.953    551.316    513.953    515.566    513.953
 80.270    552.738    560.602     -7.864    513.945    558.915    513.945    515.629    513.945
 80.370    574.000    570.550      3.450    513.935    568.793    513.935    515.692    513.935
 80.470    563.000    583.165    -20.165    513.924    581.343    513.924    515.749    513.924
 80.570    602.000    598.617      3.383    513.912    596.743    513.912    515.792    513.912
 80.670    605.855    616.761    -10.907    513.898    614.856    513.898    515.815    513.898
 80.770    654.693    637.064     17.629    513.884    635.155    513.884    515.809    513.884
 80.870    636.000    658.593    -22.593    513.867    656.711    513.867    515.772    513.867
 80.970    664.000    680.088    -16.088    513.850    678.262    513.850    515.705    513.850
 81.070    681.069    700.128    -19.059    513.831    698.381    513.831    515.614    513.831
 81.170    705.000    717.353    -12.353    513.811    715.699    513.811    515.506    513.811
 81.270    768.000    730.622     37.378    513.789    729.068    513.789    515.391    513.789
 81.370    747.673    739.113      8.561    513.766    737.660    513.766    515.273    513.766
 81.470    778.518    742.389     36.128    513.742    741.032    513.742    515.157    513.742
 81.570    785.701    740.438     45.263    513.716    739.168    513.716    515.048    513.716
 81.670    758.828    733.597     25.231    513.689    732.405    513.689    514.947    513.689
 81.770    756.000    722.487     33.513    513.661    721.361    513.661    514.855    513.661
 81.870    723.000    708.021     14.979    513.631    706.948    513.631    514.771    513.631
 81.970    683.000    691.370     -8.370    513.600    690.340    513.600    514.696    513.600
 82.070    629.000    673.762    -44.762    513.567    672.765    513.567    514.627    513.567
 82.170    702.000    656.208     45.792    513.533    655.236    513.533    514.565    513.533
 82.270    623.000    639.349    -16.349    513.498    638.396    513.498    514.507    513.498
 82.370    578.568    623.495    -44.927    513.461    622.556    513.461    514.452    513.461
 82.470    635.617    608.775     26.842    513.423    607.845    513.423    514.400    513.423
 82.570    613.000    595.293     17.707    513.384    594.369    513.384    514.349    513.384
 82.670    599.000    583.200     15.800    513.343    582.280    513.343    514.299    513.343
 82.770    569.000    572.684     -3.684    513.301    571.765    513.301    514.248    513.301
 82.870    544.000    563.926    -19.926    513.257    563.008    513.257    514.198    513.257
 82.970    577.000    557.076     19.924    513.212    556.156    513.212    514.147    513.212
 83.070    522.928    552.234    -29.306    513.166    551.312    513.166    514.096    513.166
 83.170    514.000    549.436    -35.436    513.118    548.512    513.118    514.044    513.118
 83.270    519.000    548.639    -29.639    513.068    547.710    513.068    513.991    513.068
 83.370    586.246    549.695     36.551    513.018    548.762    513.018    513.938    513.018
 83.470    586.500    552.346     34.154    512.966    551.409    512.966    513.883    512.966
 83.570    530.214    556.211    -25.997    512.912    555.269    512.912    513.827    512.912
 83.670    534.000    560.797    -26.797    512.857    559.849    512.857    513.771    512.857
 83.770    591.000    565.512     25.488    512.801    564.560    512.801    513.713    512.801
 83.870    608.000    569.708     38.292    512.743    568.753    512.743    513.654    512.743
 83.970    548.045    572.743    -24.698    512.684    571.786    512.684    513.595    512.684
 84.070    590.000    574.085     15.915    512.623    573.128    512.623    513.534    512.623
 84.170    597.000    573.441     23.559    512.561    572.485    512.561    513.472    512.561
 84.270    547.000    570.837    -23.837    512.498    569.885    512.498    513.409    512.498
 84.370    553.000    566.597    -13.597    512.433    565.648    512.433    513.346    512.433
 84.470    599.267    561.224     38.043    512.366    560.279    512.366    513.281    512.366
 84.570    580.589    555.272     25.317    512.299    554.330    512.299    513.214    512.299
 84.670    544.000    549.248     -5.248    512.230    548.310    512.230    513.147    512.230
 84.770    489.000    543.563    -54.563    512.159    542.627    512.159    513.079    512.159
 84.870    543.560    538.505      5.055    512.087    537.570    512.087    513.009    512.087
 84.970    522.000    534.238    -12.238    512.013    533.303    512.013    512.939    512.013
 85.070    512.000    530.813    -18.813    511.939    529.877    511.939    512.867    511.939
 85.170    556.000    528.195     27.805    511.862    527.257    511.862    512.795    511.862
 85.270    533.000    526.297      6.703    511.785    525.356    511.785    512.721    511.785
 85.370    507.000    525.004    -18.004    511.705    524.059    511.705    512.646    511.705
 85.470    478.889    524.203    -45.314    511.625    523.254    511.625    512.570    511.625
 85.570    540.000    523.801     16.199    511.543    522.847    511.543    512.493    511.543
 85.670    530.000    523.736      6.264    511.459    522.776    511.459    512.415    511.459
 85.770    558.000    523.982     34.018    511.374    523.016    511.374    512.336    511.374
 85.870    504.000    524.556    -20.556    511.288    523.582    511.288    512.255    511.288
 85.970    500.000    525.515    -25.515    511.200    524.534    511.200    512.174    511.200
 86.070    480.000    526.960    -46.960    511.111    525.970    511.111    512.092    511.111
 86.170    553.221    529.030     24.190    511.021    528.030    511.021    512.008    511.021
 86.270    561.976    531.897     30.079    510.929    530.885    510.929    511.924    510.929
 86.370    580.336    535.749     44.587    510.835    534.724    510.835    511.839    510.835
 86.470    528.000    540.771    -12.771    510.740    539.732    510.740    511.752    510.740
 86.570    572.000    547.113     24.887    510.644    546.056    510.644    511.665    510.644
 86.670    578.000    554.851     23.149    510.546    553.776    510.546    511.577    510.546
 86.770    551.625    563.949    -12.324    510.447    562.853    510.447    511.488    510.447
 86.870    531.000    574.219    -43.219    510.347    573.101    510.347    511.397    510.347
 86.970    610.421    585.297     25.124    510.245    584.156    510.245    511.306    510.245
 87.070    569.967    596.631    -26.664    510.141    595.467    510.141    511.214    510.141
 87.170    617.000    607.491      9.509    510.037    606.304    510.037    511.122    510.037
 87.270    630.477    617.012     13.465    509.931    615.804    509.931    511.028    509.931
 87.370    614.000    624.286    -10.286    509.823    623.060    509.823    510.934    509.823
 87.470    685.000    628.523     56.477    509.714    627.282    509.714    510.839    509.714
 87.570    650.000    629.243     20.757    509.604    627.991    509.604    510.743    509.604
 87.670    660.000    626.427     33.573    509.492    625.168    509.492    510.647    509.492
 87.770    660.000    620.552     39.448    509.379    619.288    509.379    510.550    509.379
 87.870    634.000    612.379     21.621    509.264    611.110    509.264    510.452    509.264
 87.970    560.575    602.835    -42.260    509.148    601.563    509.148    510.354    509.148
 88.070    586.178    592.869     -6.690    509.031    591.591    509.031    510.255    509.031
 88.170    606.722    583.352     23.369    508.912    582.068    508.912    510.156    508.912
 88.270    603.000    575.026     27.974    508.792    573.733    508.792    510.057    508.792
 88.370    604.000    568.457     35.543    508.670    567.153    508.670    509.957    508.670
 88.470    567.000    564.020      2.980    508.547    562.701    508.547    509.857    508.547
 88.570    583.000    561.888     21.112    508.423    560.554    508.423    509.757    508.423
 88.670    544.360    562.045    -17.684    508.298    560.693    508.298    509.657    508.298
 88.770    589.940    564.292     25.648    508.171    562.921    508.171    509.556    508.171
 88.870    587.000    568.270     18.730    508.042    566.878    508.042    509.457    508.042
 88.970    589.450    573.480     15.970    507.912    572.066    507.912    509.357    507.912
 89.070    626.000    579.309     46.691    507.781    577.870    507.781    509.258    507.781
 89.170    622.000    585.064     36.936    507.649    583.598    507.649    509.159    507.649
 89.270    578.657    590.017    -11.360    507.515    588.522    507.515    509.061    507.515
 89.370    596.000    593.478      2.522    507.380    591.951    507.380    508.963    507.380
 89.470    605.000    594.903     10.097    507.244    593.340    507.244    508.866    507.244
 89.570    586.783    594.005     -7.222    507.106    592.401    507.106    508.771    507.106
 89.670    616.000    590.822     25.178    506.967    589.171    506.967    508.678    506.967
 89.770    590.385    585.685      4.699    506.826    583.982    506.826    508.587    506.826
 89.870    586.261    579.115      7.146    506.685    577.355    506.685    508.498    506.685
 89.970    548.336    571.698    -23.362    506.542    569.876    506.542    508.411    506.542
 90.070    569.000    563.997      5.003    506.397    562.108    506.397    508.327    506.397
 90.170    554.000    556.491     -2.491    506.251    554.530    506.251    508.247    506.251
 90.270    539.226    549.552    -10.326    506.105    547.514    506.105    508.171    506.105
 90.370    517.382    543.432    -26.050    505.956    541.312    505.956    508.099    505.956
 90.470    530.778    538.268     -7.489    505.807    536.059    505.807    508.033    505.807
 90.570    551.000    534.093     16.907    505.656    531.789    505.656    507.973    505.656
 90.670    486.174    530.867    -44.693    505.504    528.459    505.504    507.921    505.504
 90.770    524.000    528.496     -4.496    505.350    525.973    505.350    507.880    505.350
 90.870    521.517    526.860     -5.343    505.196    524.210    505.196    507.850    505.196
 90.970    549.000    525.817     23.183    505.040    523.022    505.040    507.837    505.040
 91.070    479.000    525.286    -46.286    504.883    522.325    504.883    507.845    504.883
 91.170    550.000    525.234     24.766    504.724    522.078    504.724    507.881    504.724
 91.270    509.000    525.597    -16.597    504.565    522.207    504.565    507.954    504.565
 91.370    499.000    526.377    -27.377    504.404    522.703    504.404    508.075    504.404
 91.470    505.842    527.628    -21.786    504.242    523.605    504.242    508.262    504.242
 91.570    538.000    529.449      8.551    504.079    524.991    504.079    508.533    504.079
 91.670    507.000    531.988    -24.988    503.914    526.983    503.914    508.914    503.914
 91.770    495.239    535.436    -40.197    503.749    529.743    503.749    509.433    503.749
 91.870    583.808    540.020     43.788    503.582    533.466    503.582    510.126    503.582
 91.970    552.391    545.997      6.394    503.414    538.369    503.414    511.029    503.414
 92.070    532.000    553.629    -21.629    503.244    544.674    503.244    512.181    503.244
 92.170    547.000    563.159    -16.159    503.074    552.588    503.074    513.622    503.074
 92.270    551.000    574.785    -23.785    502.902    562.275    502.902    515.385    502.902
 92.370    616.145    588.626     27.519    502.730    573.826    502.730    517.496    502.730
 92.470    595.000    604.683     -9.683    502.556    587.231    502.556    519.967    502.556
 92.570    639.709    622.842     16.867    502.381    602.380    502.381    522.795    502.381
 92.670    664.000    642.805     21.195    502.205    619.004    502.205    525.951    502.205
 92.770    644.533    664.115    -19.583    502.028    636.697    502.028    529.383    502.028
 92.870    722.000    686.147     35.853    501.849    654.920    501.849    533.007    501.849
 92.970    731.000    708.135     22.865    501.670    673.027    501.670    536.704    501.670
 93.070    769.000    729.247     39.753    501.489    690.340    501.489    540.319    501.489
 93.170    780.871    748.692     32.180    501.308    706.260    501.308    543.660    501.308
 93.270    811.000    765.863     45.137    501.125    720.401    501.125    546.506    501.125
 93.370    758.000    780.435    -22.435    500.941    732.669    500.941    548.628    500.941
 93.470    753.000    792.386    -39.386    500.756    743.246    500.756    549.819    500.756
 93.570    764.319    801.945    -37.626    500.571    752.494    500.571    549.946    500.571
 93.670    863.000    809.510     53.490    500.384    760.845    500.384    548.977    500.384
 93.770    786.000    815.600    -29.600    500.196    768.731    500.196    546.995    500.196
 93.870    830.000    820.829      9.171    500.007    776.593    500.007    544.176    500.007
 93.970    846.000    825.892     20.108    499.817    784.904    499.817    540.741    499.817
 94.070    877.000    831.515     45.485    499.626    794.160    499.626    536.919    499.626
 94.170    884.000    838.341     45.659    499.434    804.792    499.434    532.924    499.434
 94.270    876.181    846.738     29.443    499.241    816.994    499.241    528.927    499.241
 94.370    864.019    856.651      7.367    499.047    830.576    499.047    525.066    499.047
 94.470    870.000    867.518      2.482    498.852    844.874    498.852    521.442    498.852
 94.570    875.000    878.274     -3.274    498.657    858.756    498.657    518.125    498.657
 94.670    905.000    887.453     17.547    498.460    870.714    498.460    515.154    498.460
 94.770    938.000    893.361     44.639    498.262    879.040    498.262    512.546    498.262
 94.870    908.000    894.347     13.653    498.064    882.085    498.064    510.295    498.064
 94.970    875.000    889.134    -14.134    497.865    878.593    497.865    508.383    497.865
 95.070    887.000    877.162      9.838    497.664    868.034    497.664    506.779    497.664
 95.170    901.289    858.749     42.540    497.463    850.760    497.463    505.448    497.463
 95.270    813.567    834.986    -21.419    497.261    827.902    497.261    504.349    497.261
 95.370    844.015    807.537     36.478    497.058    801.160    497.058    503.444    497.058
 95.470    793.000    778.354     14.646    496.855    772.524    496.855    502.698    496.855
 95.570    744.500    749.458     -4.958    496.650    744.044    496.650    502.079    496.650
 95.670    800.000    722.791     77.209    496.445    717.690    496.445    501.560    496.445
 95.770    672.237    700.125    -27.888    496.239    695.257    496.239    501.118    496.239
 95.870    663.602    683.019    -19.417    496.032    678.322    496.032    500.737    496.032
 95.970    635.000    672.802    -37.802    495.824    668.226    495.824    500.401    495.824
 96.070    671.000    670.580      0.420    495.616    666.088    495.616    500.102    495.616
 96.170    652.000    677.256    -25.256    495.407    672.816    495.407    499.832    495.407
 96.270    685.855    693.534     -7.680    495.197    689.122    495.197    499.585    495.197
 96.370    734.000    719.915     14.085    494.986    715.508    494.986    499.357    494.986
 96.470    762.320    756.640      5.680    494.775    752.222    494.775    499.146    494.775
 96.570    805.774    803.619      2.155    494.563    799.174    494.563    498.949    494.563
 96.670    840.000    860.326    -20.326    494.351    855.838    494.351    498.766    494.351
 96.770    922.451    925.685     -3.235    494.137    921.143    494.137    498.596    494.137
 96.870   1006.000    997.988      8.012    493.923    993.379    493.923    498.439    493.923
 96.970   1046.000   1074.830    -28.830    493.709   1070.143    493.709    498.294    493.709
 97.070   1166.452   1153.103     13.349    493.494   1148.329    493.494    498.162    493.494
 97.170   1213.000   1229.056    -16.056    493.278   1224.185    493.278    498.042    493.278
 97.270   1246.157   1298.435    -52.278    493.062   1293.458    493.062    497.936    493.062
 97.370   1406.000   1356.764     49.236    492.845   1351.671    492.845    497.844    492.845
 97.470   1456.000   1399.826     56.174    492.627   1394.608    492.627    497.767    492.627
 97.570   1385.901   1424.282    -38.381    492.409   1418.926    492.409    497.706    492.409
 97.670   1461.803   1428.314     33.488    492.191   1422.805    492.191    497.662    492.191
 97.770   1441.000   1411.997     29.003    491.972   1406.315    491.972    497.637    491.972
 97.870   1317.000   1377.209    -60.209    491.752   1371.333    491.752    497.634    491.752
 97.970   1269.000   1327.173    -58.173    491.532   1321.074    491.532    497.655    491.532
 98.070   1234.725   1265.864    -31.139    491.312   1259.509    491.312    497.705    491.312
 98.170   1231.000   1197.507     33.493    491.091   1190.858    491.091    497.790    491.091
 98.270   1124.000   1126.222     -2.222    490.870   1119.231    490.870    497.916    490.870
 98.370   1104.914   1055.796     49.118    490.648   1048.408    490.648    498.093    490.648
 98.470    938.000    989.547    -51.547    490.426    981.692    490.426    498.336    490.426
 98.570    929.000    930.264     -1.264    490.203    921.855    490.203    498.663    490.203
 98.670    878.000    880.190     -2.190    489.980    871.118    489.980    499.097    489.980
 98.770    880.000    841.081     38.919    489.757    831.203    489.757    499.670    489.757
 98.870    830.000    814.273     15.727    489.534    803.410    489.534    500.422    489.534
 98.970    827.000    800.714     26.286    489.310    788.635    489.310    501.404    489.310
 99.070    769.000    801.079    -32.079    489.086    787.492    489.086    502.679    489.086
 99.170    817.000    815.820      1.180    488.862    800.357    488.862    504.321    488.862
 99.270    862.160    845.187     16.973    488.637    827.394    488.637    506.418    488.637
 99.370    841.000    889.212    -48.212    488.412    868.536    488.412    509.070    488.412
 99.470    951.000    947.661      3.339    488.187    923.440    488.187    512.385    488.187
 99.570   1077.975   1019.949     58.026    487.962    991.408    487.962    516.477    487.962
 99.670   1149.392   1105.047     44.345    487.737   1071.300    487.737    521.458    487.737
 99.770   1216.000   1201.386     14.614    487.511   1161.442    487.511    527.433    487.511
 99.870   1338.159   1306.780     31.380    487.286   1259.563    487.286    534.488    487.286
 99.970   1442.000   1418.377     23.623    487.060   1362.752    487.060    542.680    487.060
100.070   1549.682   1532.673     17.008    486.834   1467.490    486.834    552.028    486.834
100.170   1781.000   1645.623    135.377    486.608   1569.761    486.608    562.500    486.608
100.270   1812.000   1752.870     59.130    486.382   1665.303    486.382    574.002    486.382
100.370   1874.000   1850.111     23.889    486.156   1749.975    486.156    586.370    486.156
100.470   1891.365   1933.490    -42.125    485.930   1820.161    485.930    599.363    485.930
100.570   2026.249   1999.888     26.362    485.704   1873.065    485.704    612.656    485.704
100.670   2122.000   2046.998     75.002    485.478   1906.794    485.478    625.836    485.478
100.770   2095.000   2073.250     21.750    485.252   1920.276    485.252    638.400    485.252
100.870   2194.000   2077.724    116.276    485.026   1913.172    485.026    649.771    485.026
100.970   2064.000   2060.252      3.748    484.801   1885.937    484.801    659.321    484.801
101.070   2075.000   2021.670     53.330    484.575   1840.027    484.575    666.431    484.575
101.170   1884.000   1964.074    -80.074    484.349   1778.067    484.349    670.572    484.349
101.270   1911.042   1890.858     20.185    484.124   1703.794    484.124    671.401    484.124
101.370   1788.000   1806.422    -18.422    483.899   1621.696    483.899    668.830    483.899
101.470   1684.000   1715.660    -31.660    483.674   1536.477    483.674    663.051    483.674
101.570   1548.000   1623.393    -75.393    483.449   1452.532    483.449    654.491    483.449
101.670   1490.000   1533.902    -43.902    483.225   1373.567    483.225    643.724    483.225
101.770   1373.000   1450.624    -77.624    483.000   1302.389    483.000    631.383    483.000
101.870   1352.000   1375.994    -23.994    482.776   1240.821    482.776    618.081    482.776
101.970   1360.468   1311.402     49.066    482.553   1189.701    482.553    604.370    482.553
102.070   1225.000   1257.230    -32.230    482.329   1148.946    482.329    590.718    482.329
102.170   1086.000   1212.940   -126.940    482.107   1117.636    482.107    577.504    482.107
102.270   1195.573   1177.206     18.367    481.884   1094.155    481.884    565.020    481.884
102.370   1164.000   1148.087     15.913    481.662   1076.354    481.662    553.476    481.662
102.470   1152.820   1123.249     29.571    481.440   1061.760    481.440    543.007    481.440
102.570   1052.074   1100.229    -48.155    481.219   1047.843    481.219    533.681    481.219
102.670   1079.000   1076.748      2.252    480.998   1032.313    480.998    525.511    480.998
102.770   1093.550   1051.009     42.541    480.778   1013.404    480.778    518.461    480.778
102.870   1000.000   1021.908    -21.908    480.558    990.085    480.558    512.460    480.558
102.970    952.377    989.100    -36.723    480.339    962.102    480.339    507.415    480.339
103.070    982.000    952.896     29.104    480.120    929.877    480.120    503.217    480.120
103.170    895.876    914.079    -18.203    479.902    894.304    479.902    499.752    479.902
103.270    857.000    873.690    -16.690    479.685    856.539    479.685    496.908    479.685
103.370    822.000    832.860    -10.860    479.468    817.817    479.468    494.579    479.468
103.470    839.906    792.688     47.218    479.252    779.332    479.252    492.670    479.252
103.570    725.000    754.154    -29.154    479.037    742.148    479.037    491.099    479.037
103.670    665.444    718.071    -52.627    478.822    707.148    478.822    489.795    478.822
103.770    703.871    685.062     18.808    478.608    675.013    478.608    488.700    478.608
103.870    668.000    655.528     12.472    478.395    646.191    478.395    487.769    478.395
103.970    631.379    629.663      1.716    478.183    620.913    478.183    486.964    478.183
104.070    605.000    607.478     -2.478    477.972    599.218    477.972    486.257    477.972
104.170    610.000    588.823     21.177    477.761    580.978    477.761    485.627    477.761
104.270    564.000    573.439     -9.439    477.551    565.950    477.551    485.057    477.551
104.370    574.000    560.995     13.005    477.343    553.815    477.343    484.535    477.343
104.470    580.000    551.112     28.888    477.135    544.204    477.135    484.052    477.135
104.570    540.000    543.410     -3.410    476.928    536.743    476.928    483.602    476.928
104.670    561.055    537.531     23.523    476.722    531.079    476.722    483.180    476.722
104.770    583.000    533.155     49.845    476.517    526.894    476.517    482.781    476.517
104.870    543.000    530.011     12.989    476.314    523.922    476.314    482.403    476.314
104.970    558.000    527.881     30.119    476.111    521.948    476.111    482.044    476.111
105.070    546.000    526.606     19.394    475.910    520.811    475.910    481.702    475.910
105.170    526.742    526.074      0.668    475.709    520.405    475.709    481.376    475.709
105.270    497.000    526.228    -29.228    475.510    520.669    475.510    481.064    475.510
105.370    578.000    527.049     50.951    475.312    521.590    475.312    480.765    475.312
105.470    573.663    528.561     45.102    475.115    523.190    475.115    480.478    475.115
105.570    515.363    530.817    -15.454    474.920    525.524    474.920    480.204    474.920
105.670    494.963    533.898    -38.936    474.726    528.673    474.726    479.940    474.726
105.770    544.000    537.899      6.101    474.533    532.731    474.533    479.687    474.533
105.870    580.492    542.917     37.574    474.341    537.799    474.341    479.443    474.341
105.970    546.000    549.042     -3.042    474.151    543.964    474.151    479.210    474.151
106.070    561.000    556.335      4.665    473.962    551.290    473.962    478.985    473.962
106.170    615.000    564.820     50.180    473.775    559.800    473.775    478.770    473.775
106.270    561.000    574.469    -13.469    473.589    569.467    473.589    478.563    473.589
106.370    593.000    585.189      7.811    473.405    580.198    473.405    478.364    473.405
106.470    641.887    596.821     45.067    473.222    591.837    473.222    478.170    473.222
106.570    583.000    609.138    -26.138    473.041    604.156    473.041    477.984    473.041
106.670    594.000    621.850    -27.850    472.861    616.861    472.861    477.809    472.861
106.770    593.000    634.599    -41.599    472.683    629.597    472.683    477.642    472.683
106.870    639.000    646.985     -7.985    472.507    641.964    472.507    477.483    472.507
106.970    604.000    658.579    -54.579    472.332    653.533    472.332    477.332    472.332
107.070    635.000    668.952    -33.952    472.160    663.878    472.160    477.188    472.160
107.170    643.551    677.718    -34.167    471.988    672.609    471.988    477.052    471.988
107.270    709.625    684.576     25.049    471.819    679.429    471.819    476.924    471.819
107.370    689.000    689.369     -0.369    471.652    684.178    471.652    476.803    471.652
107.470    676.000    692.108    -16.108    471.486    686.874    471.486    476.683    471.486
107.570    719.679    692.994     26.685    471.322    687.713    471.322    476.572    471.322
107.670    680.956    692.380    -11.425    471.161    687.038    471.161    476.475    471.161
107.770    734.438    690.700     43.738    471.001    685.291    471.001    476.386    471.001
107.870    686.000    688.422     -2.422    470.843    682.939    470.843    476.307    470.843
107.970    692.972    685.989      6.983    470.687    680.426    470.687    476.235    470.687
108.070    687.000    683.773      3.227    470.533    678.123    470.533    476.173    470.533
108.170    718.049    682.048     36.000    470.382    676.303    470.382    476.120    470.382
108.270    639.000    680.970    -41.970    470.232    675.123    470.232    476.076    470.232
108.370    708.000    680.569     27.431    470.085    674.611    470.085    476.042    470.085
108.470    663.000    680.749    -17.749    469.940    674.674    469.940    476.018    469.940
108.570    714.000    681.297     32.703    469.797    675.095    469.797    476.005    469.797
108.670    684.155    681.898      2.257    469.656    675.561    469.656    476.002    469.656
108.770    675.000    682.166     -7.166    469.518    675.685    469.518    476.011    469.518
108.870    682.000    681.686      0.314    469.382    675.051    469.382    476.032    469.382
108.970    663.000    680.066    -17.066    469.249    673.266    469.249    476.065    469.249
109.070    658.000    676.994    -18.994    469.118    670.019    469.118    476.112    469.118
109.170    642.388    672.288    -29.900    468.989    665.125    468.989    476.172    468.989
109.270    679.000    665.915     13.085    468.863    658.553    468.863    476.246    468.863
109.370    690.000    657.991     32.009    468.739    650.416    468.739    476.336    468.739
109.470    649.000    648.738      0.262    468.618    640.937    468.618    476.442    468.618
109.570    654.000    638.437     15.563    468.500    630.394    468.500    476.565    468.500
109.670    593.000    627.501    -34.501    468.384    619.200    468.384    476.706    468.384
109.770    596.258    616.241    -19.983    468.271    607.666    468.271    476.866    468.271
109.870    571.821    604.982    -33.160    468.161    596.113    468.161    477.047    468.161
109.970    609.000    594.018     14.982    468.053    584.837    468.053    477.251    468.053
110.070    545.000    583.604    -38.604    467.948    574.088    467.948    477.479    467.948
110.170    595.000    573.947     21.053    467.846    564.073    467.846    477.733    467.846
110.270    542.111    565.204    -23.092    467.747    554.945    467.747    478.017    467.747
110.370    594.150    557.479     36.671    467.651    546.807    467.651    478.333    467.651
110.470    570.000    550.832     19.168    467.558    539.713    467.558    478.685    467.558
110.570    500.489    545.279    -44.790    467.468    533.674    467.468    479.078    467.468
110.670    521.000    540.798    -19.798    467.381    528.664    467.381    479.518    467.381
110.770    536.000    537.342     -1.342    467.297    524.628    467.297    480.014    467.297
110.870    512.000    534.844    -22.844    467.216    521.487    467.216    480.574    467.216
110.970    543.139    533.225      9.913    467.138    519.152    467.138    481.211    467.138
111.070    550.738    532.403     18.335    467.064    517.524    467.064    481.941    467.064
111.170    517.872    532.298    -14.425    466.992    516.505    466.992    482.782    466.992
111.270    548.048    532.838     15.210    466.924    516.000    466.924    483.759    466.924
111.370    490.950    533.965    -43.016    466.860    515.918    466.860    484.903    466.860
111.470    584.000    535.636     48.364    466.798    516.180    466.798    486.248    466.798
111.570    568.523    537.823     30.700    466.740    516.716    466.740    487.841    466.740
111.670    533.529    540.521     -6.992    466.686    517.466    466.686    489.734    466.686
111.770    564.056    543.743     20.313    466.635    518.380    466.635    491.991    466.635
111.870    576.000    547.524     28.476    466.588    519.420    466.588    494.684    466.588
111.970    528.961    551.922    -22.961    466.544    520.559    466.544    497.899    466.544
112.070    537.203    557.015    -19.813    466.504    521.781    466.504    501.730    466.504
112.170    564.000    562.904      1.096    466.467    523.081    466.467    506.282    466.467
112.270    582.000    569.708     12.292    466.434    524.463    466.434    511.671    466.434
112.370    560.000    577.561    -17.561    466.405    525.941    466.405    518.017    466.405
112.470    589.000    586.612      2.388    466.380    527.538    466.380    525.445    466.380
112.570    556.215    597.013    -40.798    466.358    529.282    466.358    534.080    466.358
112.670    626.000    608.923     17.077    466.341    531.214    466.341    544.041    466.341
112.770    584.000    622.498    -38.498    466.327    533.379    466.327    555.437    466.327
112.870    634.000    637.889     -3.889    466.318    535.839    466.318    568.358    466.318
112.970    656.000    655.237      0.763    466.312    538.670    466.312    582.869    466.312
113.070    623.010    674.677    -51.667    466.311    541.974    466.311    599.003    466.311
113.170    687.000    696.333     -9.333    466.313    545.882    466.313    616.753    466.313
113.270    737.000    720.327     16.673    466.320    550.569    466.320    636.066    466.320
113.370    725.000    746.781    -21.781    466.331    556.264    466.331    656.834    466.331
113.470    787.000    775.833     11.167    466.346    563.274    466.346    678.891    466.346
113.570    835.851    807.652     28.199    466.366    571.996    466.366    702.004    466.366
113.670    896.000    842.456     53.544    466.389    582.950    466.389    725.875    466.389
113.770    905.511    880.538     24.973    466.418    596.799    466.418    750.133    466.418
113.870    891.626    922.293    -30.667    466.450    614.383    466.450    774.333    466.450
113.970   1010.000    968.250     41.750    466.488    636.747    466.488    797.956    466.488
114.070   1052.000   1019.101     32.899    466.529    665.171    466.529    820.418    466.529
114.170   1124.000   1075.739     48.261    466.576    701.191    466.576    841.072    466.576
114.270   1130.000   1139.300     -9.300    466.627    746.621    466.627    859.242    466.627
114.370   1218.000   1211.195      6.805    466.682    803.550    466.682    874.248    466.682
114.470   1248.000   1293.156    -45.156    466.743    874.333    466.743    885.467    466.743
114.570   1355.000   1387.259    -32.259    466.808    961.554    466.808    892.390    466.808
114.670   1555.000   1495.920     59.080    466.878   1067.963    466.878    894.685    466.878
114.770   1624.000   1621.854      2.146    466.953   1196.386    466.953    892.239    466.953
114.870   1819.712   1767.963     51.748    467.032   1349.600    467.032    885.178    467.032
114.970   1903.454   1937.169    -33.715    467.117   1530.179    467.117    873.849    467.117
115.070   2171.417   2132.179     39.237    467.207   1740.315    467.207    858.767    467.207
115.170   2449.000   2355.228     93.772    467.302   1981.614    467.302    840.564    467.302
115.270   2618.000   2607.802     10.198    467.402   2254.885    467.402    819.917    467.402
115.370   2815.000   2890.382    -75.382    467.507   2559.930    467.507    797.506    467.507
115.470   3212.000   3202.212      9.788    467.617   2895.357    467.617    773.970    467.617
115.570   3543.000   3541.126      1.874    467.733   3258.417    467.733    749.893    467.733
115.670   3867.023   3903.423    -36.400    467.854   3644.899    467.854    725.789    467.854
115.770   4264.000   4283.819    -19.819    467.980   4049.081    467.980    702.097    467.980
115.870   4625.176   4675.463    -50.287    468.112   4463.748    468.112    679.184    468.112
115.970   4873.000   5070.039   -197.039    468.250   4880.289    468.250    657.346    468.250
116.070   5349.000   5457.938   -108.938    468.392   5288.872    468.392    636.810    468.392
116.170   5901.919   5828.519     73.400    468.541   5678.694    468.541    617.738    468.541
116.270   5980.000   6170.462   -190.462    468.695   6038.333    468.695    600.236    468.695
116.370   6616.000   6472.229    143.771    468.855   6356.198    468.855    584.353    468.855
116.470   6822.000   6722.651     99.349    469.020   6621.118    469.020    570.094    469.020
116.570   7063.959   6911.650    152.309    469.192   6823.047    469.192    557.424    469.192
116.670   7113.000   7031.025     81.975    469.369   6953.848    469.369    546.276    469.369
116.770   7048.000   7075.311    -27.311    469.552   7008.145    469.552    536.558    469.552
116.870   7104.000   7042.267     61.733    469.741   6983.802    469.741    528.162    469.741
116.970   7010.000   6933.170     76.830    469.936   6882.208    469.936    520.967    469.936
117.070   6807.000   6752.652     54.348    470.138   6708.115    470.138    514.848    470.138
117.170   6391.560   6508.160   -116.600    470.345   6469.091    470.345    509.682    470.345
117.270   6055.327   6209.207   -153.879    470.559   6174.767    470.559    505.347    470.559
117.370   5697.000   5866.566   -169.566    470.778   5836.028    470.778    501.730    470.778
117.470   5303.000   5491.548   -188.548    471.005   5464.288    471.005    498.725    471.005
117.570   5058.000   5095.388    -37.388    471.237   5070.878    471.237    496.239    471.237
117.670   4593.000   4688.778    -95.778    471.476   4666.572    471.476    494.188    471.476
117.770   4414.656   4281.499    133.158    471.721   4261.228    471.721    492.498    471.721
117.870   3773.030   3882.159   -109.129    471.973   3863.516    471.973    491.109    471.973
117.970   3686.000   3498.010    187.990    472.232   3480.744    472.232    489.967    472.232
118.070   3159.670   3134.851     24.819    472.497   3118.757    472.497    489.028    472.497
118.170   2887.000   2797.007     89.993    472.768   2781.918    472.768    488.256    472.768
118.270   2408.120   2487.382    -79.262    473.047   2473.163    473.047    487.623    473.047
118.370   2191.000   2207.573    -16.573    473.332   2194.115    473.332    487.103    473.332
118.470   2000.000   1958.020     41.980    473.625   1945.235    473.625    486.679    473.625
118.570   1704.000   1738.195    -34.195    473.924   1726.012    473.924    486.335    473.924
118.670   1480.609   1546.795    -66.186    474.230   1535.154    474.230    486.059    474.230
118.770   1391.558   1381.935      9.623    474.543   1370.789    474.543    485.841    474.543
118.870   1233.000   1241.338     -8.338    474.864   1230.648    474.864    485.675    474.864
118.970   1071.000   1122.506    -51.506    475.191   1112.236    475.191    485.555    475.191
119.070   1007.000   1022.859    -15.859    475.526   1012.980    475.526    485.475    475.526
119.170    921.000    939.862    -18.862    475.868    930.349    475.868    485.433    475.868
119.270    849.991    871.113    -21.123    476.217    861.943    476.217    485.425    476.217
119.370    842.859    814.407     28.452    476.574    805.557    476.574    485.450    476.574
119.470    764.028    767.770     -3.743    476.939    759.221    476.939    485.505    476.939
119.570    702.000    729.480    -27.480    477.310    721.213    477.310    485.589    477.310
119.670    720.000    698.062     21.938    477.690    690.057    477.690    485.702    477.690
119.770    657.000    672.276    -15.276    478.077    664.515    478.077    485.842    478.077
119.870    631.000    651.096    -20.096    478.472    643.562    478.472    486.008    478.472
119.970    571.000    633.685    -62.685    478.874    626.359    478.874    486.202    478.874
120.070    611.000    619.368     -8.368    479.285    612.232    479.285    486.422    479.285
120.170    599.000    607.605     -8.605    479.703    600.641    479.703    486.669    479.703
120.270    603.944    597.970      5.974    480.129    591.159    480.129    486.943    480.129
120.370    549.544    590.127    -40.582    480.564    583.448    480.564    487.244    480.564
120.470    536.000    583.812    -47.812    481.006    577.247    481.006    487.574    481.006
120.570    568.848    578.822     -9.974    481.457    572.349    481.457    487.933    481.457
120.670    595.061    574.996     20.065    481.916    568.593    481.916    488.322    481.916
120.770    557.000    572.210    -15.210    482.383    565.855    482.383    488.742    482.383
120.870    583.000    570.368     12.632    482.858    564.037    482.858    489.195    482.858
120.970    612.014    569.393     42.620    483.342    563.062    483.342    489.680    483.342
121.070    580.814    569.224     11.590    483.834    562.867    483.834    490.199    483.834
121.170    527.852    569.808    -41.956    484.335    563.399    484.335    490.752    484.335
121.270    544.000    571.100    -27.100    484.845    564.612    484.845    491.341    484.845
121.370    556.784    573.055    -16.271    485.363    566.462    485.363    491.967    485.363
121.470    621.389    575.629     45.760    485.890    568.904    485.890    492.628    485.890
121.570    611.053    578.773     32.281    486.426    571.888    486.426    493.325    486.426
121.670    581.000    582.432     -1.432    486.971    575.362    486.971    494.057    486.971
121.770    557.697    586.544    -28.847    487.524    579.264    487.524    494.823    487.524
121.870    592.000    591.038      0.962    488.087    583.524    488.087    495.622    488.087
121.970    565.223    595.834    -30.611    488.659    588.065    488.659    496.451    488.659
122.070    647.109    600.841     46.268    489.239    592.798    489.239    497.308    489.239
122.170    616.000    605.959     10.041    489.830    597.628    489.830    498.189    489.830
122.270    648.000    611.082     36.918    490.429    602.452    490.429    499.091    490.429
122.370    594.000    616.094    -22.094    491.038    607.158    491.038    500.008    491.038
122.470    603.000    620.876    -17.876    491.656    611.634    491.656    500.936    491.656
122.570    628.130    625.309      2.821    492.284    615.765    492.284    501.868    492.284
122.670    617.000    629.275    -12.275    492.921    619.440    492.921    502.797    492.921
122.770    603.988    632.665    -28.676    493.568    622.560    493.568    503.717    493.568
122.870    636.142    635.385      0.758    494.224    625.035    494.224    504.620    494.224
122.970    615.000    637.360    -22.360    494.891    626.801    494.891    505.498    494.891
123.070    647.000    638.541      8.459    495.567    627.814    495.567    506.343    495.567
123.170    631.000    638.906     -7.906    496.253    628.059    496.253    507.149    496.253
123.270    603.761    638.459    -34.698    496.949    627.547    496.949    507.910    496.949
123.370    679.000    637.233     41.767    497.655    626.315    497.655    508.621    497.655
123.470    614.598    635.280    -20.682    498.371    624.418    498.371    509.281    498.371
123.570    655.000    632.670     22.330    499.098    621.925    499.098    509.888    499.098
123.670    622.000    629.483     -7.483    499.835    618.917    499.835    510.444    499.835
123.770    663.791    625.814     37.977    500.582    615.480    500.582    510.957    500.582
123.870    649.000    621.754     27.246    501.339    611.702    501.339    511.431    501.339
123.970    603.127    617.397    -14.271    502.107    607.669    502.107    511.872    502.107
124.070    595.392    612.833    -17.441    502.886    603.465    502.886    512.287    502.886
124.170    641.000    608.148     32.852    503.675    599.168    503.675    512.684    503.675
124.270    619.972    603.420     16.553    504.475    594.849    504.475    513.072    504.475
124.370    642.000    598.718     43.282    505.286    590.571    505.286    513.457    505.286
124.470    589.310    594.101     -4.791    506.107    586.385    506.107    513.845    506.107
124.570    606.000    589.619     16.381    506.940    582.334    506.940    514.243    506.940
124.670    563.000    585.310    -22.310    507.783    578.453    507.783    514.655    507.783
124.770    616.372    581.203     35.168    508.638    574.766    508.638    515.088    508.638
124.870    572.000    577.321     -5.321    509.504    571.292    509.504    515.544    509.504
124.970    567.000    573.677     -6.677    510.381    568.040    510.381    516.027    510.381
