neutron_powder_diffraction_0129
R_wp: 3.821
Temperature (K): 1032.401
Counts: 83675.00
Wavelength (Ã…): 2.52098
COMMENTS
Test file for demonstrating the .xyy file format in Reel1.0
END OF HEADER
   tth       Y_obs     Y_calc      Y_res    Background    Phase_1_Nuc    Phase_1_Mag    Phase_2_Nuc    Phase_2_Mag
  9.970    584.000    567.848     16.152    566.919    567.763    566.919    567.003    566.919
 10.070    597.000    568.095     28.905    567.092    568.010    567.092    567.177    567.092
 10.170    592.214    568.346     23.868    567.259    568.260    567.259    567.344    567.259
 10.270    576.000    568.602      7.398    567.419    568.516    567.419    567.505    567.419
 10.370    528.503    568.867    -40.364    567.572    568.780    567.572    567.658    567.572
 10.470    553.391    569.144    -15.753    567.718    569.057    567.718    567.804    567.718
 10.570    577.742    569.438      8.304    567.857    569.351    567.857    567.944    567.857
 10.670    542.881    569.755    -26.874    567.989    569.667    567.989    568.076    567.989
 10.770    605.000    570.103     34.897    568.115    570.015    568.115    568.202    568.115
 10.870    536.015    570.493    -34.478    568.234    570.404    568.234    568.322    568.234
 10.970    561.000    570.941     -9.941    568.346    570.852    568.346    568.435    568.346
 11.070    544.016    571.469    -27.453    568.453    571.379    568.453    568.541    568.453
 11.170    569.000    572.108     -3.108    568.552    572.017    568.552    568.641    568.552
 11.270    558.856    572.908    -14.053    568.645    572.817    568.645    568.735    568.645
 11.370    565.000    573.960     -8.960    568.732    573.867    568.732    568.822    568.732
 11.470    577.982    575.462      2.520    568.813    575.368    568.813    568.903    568.813
 11.570    597.708    577.920     19.788    568.887    577.824    568.887    568.978    568.887
 11.670    639.000    582.557     56.443    568.955    582.458    568.955    569.046    568.955
 11.770    556.000    591.778    -35.778    569.018    591.675    569.018    569.109    569.018
 11.870    650.000    608.906     41.094    569.074    608.793    569.074    569.165    569.074
 11.970    648.000    636.027     11.973    569.124    635.897    569.124    569.216    569.124
 12.070    651.148    669.629    -18.480    569.168    669.481    569.168    569.261    569.168
 12.170    689.327    696.463     -7.136    569.206    696.300    569.206    569.299    569.206
 12.270    740.376    699.273     41.103    569.239    699.108    569.239    569.332    569.239
 12.370    652.000    675.688    -23.688    569.266    675.535    569.266    569.360    569.266
 12.470    589.000    641.910    -52.910    569.287    641.775    569.287    569.381    569.287
 12.570    587.000    613.116    -26.116    569.303    612.997    569.303    569.397    569.303
 12.670    601.000    594.337      6.663    569.313    594.228    569.313    569.408    569.313
 12.770    551.454    584.066    -32.613    569.317    583.963    569.317    569.412    569.317
 12.870    606.418    578.935     27.483    569.316    578.834    569.316    569.412    569.316
 12.970    565.000    576.301    -11.301    569.310    576.201    569.310    569.406    569.310
 13.070    606.000    574.761     31.239    569.298    574.662    569.298    569.395    569.298
 13.170    570.000    573.725     -3.725    569.281    573.626    569.281    569.378    569.281
 13.270    592.000    572.963     19.037    569.259    572.864    569.259    569.356    569.259
 13.370    609.000    572.375     36.625    569.231    572.275    569.231    569.329    569.231
 13.470    548.000    571.907    -23.907    569.198    571.807    569.198    569.297    569.198
 13.570    566.796    571.524     -4.727    569.161    571.423    569.161    569.260    569.161
 13.670    594.000    571.203     22.797    569.118    571.102    569.118    569.218    569.118
 13.770    577.000    570.929      6.071    569.070    570.828    569.070    569.171    569.070
 13.870    531.000    570.689    -39.689    569.018    570.587    569.018    569.118    569.018
 13.970    550.389    570.475    -20.086    568.960    570.373    568.960    569.061    568.960
 14.070    593.000    570.281     22.719    568.898    570.179    568.898    569.000    568.898
 14.170    557.202    570.102    -12.900    568.831    570.000    568.831    568.933    568.831
 14.270    577.325    569.935      7.390    568.759    569.832    568.759    568.862    568.759
 14.370    562.000    569.776     -7.776    568.683    569.673    568.683    568.786    568.683
 14.470    608.880    569.624     39.256    568.602    569.520    568.602    568.706    568.602
 14.570    592.000    569.476     22.524    568.517    569.372    568.517    568.621    568.517
 14.670    573.000    569.332      3.668    568.426    569.227    568.426    568.531    568.426
 14.770    553.000    569.190    -16.190    568.332    569.084    568.332    568.437    568.332
 14.870    583.542    569.049     14.493    568.233    568.942    568.233    568.339    568.233
 14.970    541.896    568.908    -27.012    568.130    568.801    568.130    568.236    568.130
 15.070    584.000    568.767     15.233    568.022    568.660    568.022    568.129    568.022
 15.170    532.769    568.626    -35.857    567.911    568.518    567.911    568.018    567.911
 15.270    544.000    568.485    -24.485    567.795    568.376    567.795    567.903    567.795
 15.370    583.000    568.342     14.658    567.675    568.233    567.675    567.783    567.675
 15.470    593.000    568.197     24.803    567.550    568.087    567.550    567.660    567.550
 15.570    558.461    568.049     -9.589    567.422    567.939    567.422    567.532    567.422
 15.670    580.757    567.900     12.858    567.290    567.789    567.290    567.400    567.290
 15.770    536.000    567.748    -31.748    567.154    567.637    567.154    567.265    567.154
 15.870    557.000    567.594    -10.594    567.014    567.482    567.014    567.125    567.014
 15.970    589.000    567.438     21.562    566.870    567.325    566.870    566.982    566.870
 16.070    556.552    567.279    -10.726    566.722    567.165    566.722    566.835    566.722
 16.170    586.000    567.117     18.883    566.570    567.003    566.570    566.684    566.570
 16.270    549.558    566.953    -17.394    566.415    566.838    566.415    566.529    566.415
 16.370    593.714    566.786     26.929    566.256    566.670    566.256    566.371    566.256
 16.470    570.000    566.616      3.384    566.094    566.500    566.094    566.209    566.094
 16.570    599.703    566.443     33.260    565.927    566.327    565.927    566.044    565.927
 16.670    526.000    566.268    -40.268    565.758    566.151    565.758    565.875    565.758
 16.770    602.556    566.090     36.466    565.585    565.972    565.585    565.703    565.585
 16.870    560.000    565.909     -5.909    565.408    565.790    565.408    565.527    565.408
 16.970    560.000    565.726     -5.726    565.228    565.606    565.228    565.348    565.228
 17.070    534.304    565.539    -31.235    565.045    565.419    565.045    565.165    565.045
 17.170    541.000    565.351    -24.351    564.858    565.230    564.858    564.979    564.858
 17.270    531.000    565.160    -34.160    564.668    565.038    564.668    564.790    564.668
 17.370    554.445    564.966    -10.521    564.475    564.843    564.475    564.598    564.475
 17.470    556.000    564.768     -8.768    564.279    564.645    564.279    564.402    564.279
 17.570    562.000    564.568     -2.568    564.080    564.444    564.080    564.204    564.080
 17.670    531.208    564.366    -33.157    563.877    564.241    563.877    564.002    563.877
 17.770    529.317    564.160    -34.843    563.672    564.035    563.672    563.798    563.672
 17.870    523.146    563.953    -40.807    563.463    563.827    563.463    563.590    563.463
 17.970    556.000    563.756     -7.756    563.252    563.628    563.252    563.379    563.252
 18.070    605.000    563.599     41.401    563.038    563.471    563.038    563.166    563.038
 18.170    586.165    563.459     22.707    562.820    563.329    562.820    562.950    562.820
 18.270    524.000    563.248    -39.248    562.600    563.118    562.600    562.731    562.600
 18.370    527.000    563.028    -36.028    562.378    562.897    562.378    562.509    562.378
 18.470    576.000    562.806     13.194    562.152    562.674    562.152    562.284    562.152
 18.570    547.829    562.581    -14.752    561.924    562.448    561.924    562.057    561.924
 18.670    544.412    562.354    -17.942    561.693    562.220    561.693    561.827    561.693
 18.770    551.447    562.125    -10.678    561.460    561.990    561.460    561.594    561.460
 18.870    541.963    561.893    -19.931    561.223    561.757    561.223    561.359    561.223
 18.970    519.000    561.660    -42.660    560.985    561.523    560.985    561.122    560.985
 19.070    594.024    561.424     32.600    560.744    561.286    560.744    560.882    560.744
 19.170    566.000    561.186      4.814    560.500    561.047    560.500    560.639    560.500
 19.270    560.000    560.946     -0.946    560.254    560.806    560.254    560.395    560.254
 19.370    546.000    560.704    -14.704    560.006    560.563    560.006    560.147    560.006
 19.470    549.000    560.461    -11.461    559.755    560.318    559.755    559.898    559.755
 19.570    533.000    560.215    -27.215    559.502    560.071    559.502    559.646    559.502
 19.670    530.000    559.968    -29.968    559.247    559.823    559.247    559.392    559.247
 19.770    522.000    559.718    -37.718    558.990    559.572    558.990    559.136    558.990
 19.870    562.000    559.468      2.532    558.730    559.320    558.730    558.878    558.730
 19.970    530.512    559.215    -28.704    558.469    559.067    558.469    558.617    558.469
 20.070    552.189    558.963     -6.775    558.205    558.813    558.205    558.355    558.205
 20.170    535.000    558.710    -23.710    557.939    558.559    557.939    558.090    557.939
 20.270    536.039    558.453    -22.414    557.671    558.301    557.671    557.824    557.671
 20.370    537.000    558.195    -21.195    557.401    558.041    557.401    557.555    557.401
 20.470    524.000    557.936    -33.936    557.129    557.781    557.129    557.285    557.129
 20.570    557.000    557.685     -0.685    556.855    557.528    556.855    557.012    556.855
 20.670    569.000    557.460     11.540    556.580    557.302    556.580    556.738    556.580
 20.770    547.585    557.229     -9.644    556.302    557.069    556.302    556.462    556.302
 20.870    573.000    556.968     16.032    556.023    556.807    556.023    556.185    556.023
 20.970    522.000    556.704    -34.704    555.742    556.541    555.742    555.905    555.742
 21.070    579.000    556.439     22.561    555.459    556.275    555.459    555.624    555.459
 21.170    526.000    556.174    -30.174    555.175    556.008    555.175    555.341    555.175
 21.270    574.000    555.910     18.090    554.889    555.742    554.889    555.057    554.889
 21.370    530.657    555.661    -25.004    554.601    555.491    554.601    554.771    554.601
 21.470    555.000    555.431     -0.431    554.312    555.259    554.312    554.484    554.312
 21.570    517.196    555.169    -37.973    554.021    554.995    554.021    554.195    554.021
 21.670    581.843    554.904     26.939    553.729    554.728    553.729    553.904    553.729
 21.770    533.000    554.639    -21.639    553.435    554.462    553.435    553.613    553.435
 21.870    558.000    554.376      3.624    553.139    554.196    553.139    553.319    553.139
 21.970    568.000    554.113     13.887    552.843    553.931    552.843    553.025    552.843
 22.070    551.000    553.852     -2.852    552.545    553.668    552.545    552.729    552.545
 22.170    550.000    553.594     -3.594    552.245    553.407    552.245    552.432    552.245
 22.270    534.279    553.337    -19.058    551.944    553.148    551.944    552.133    551.944
 22.370    498.000    553.084    -55.084    551.642    552.893    551.642    551.834    551.642
 22.470    574.000    552.835     21.165    551.339    552.641    551.339    551.533    551.339
 22.570    530.266    552.590    -22.324    551.034    552.394    551.034    551.231    551.034
 22.670    561.000    552.358      8.642    550.729    552.159    550.729    550.928    550.729
 22.770    547.000    552.130     -5.130    550.422    551.929    550.422    550.624    550.422
 22.870    558.000    551.908      6.092    550.114    551.703    550.114    550.319    550.114
 22.970    594.000    551.696     42.304    549.805    551.488    549.805    550.013    549.805
 23.070    576.000    551.498     24.502    549.495    551.287    549.495    549.706    549.495
 23.170    548.546    551.325     -2.779    549.184    551.111    549.184    549.398    549.184
 23.270    575.000    551.169     23.831    548.872    550.951    548.872    549.090    548.872
 23.370    555.000    551.049      3.951    548.559    550.828    548.559    548.780    548.559
 23.470    551.000    550.979      0.021    548.245    550.754    548.245    548.470    548.245
 23.570    509.329    550.940    -41.610    547.930    550.712    547.930    548.159    547.930
 23.670    536.071    550.954    -14.882    547.614    550.722    547.614    547.847    547.614
 23.770    567.233    551.052     16.182    547.297    550.816    547.297    547.535    547.297
 23.870    535.952    551.289    -15.337    546.980    551.049    546.980    547.222    546.980
 23.970    555.000    551.719      3.281    546.662    551.475    546.662    546.908    546.662
 24.070    521.000    552.507    -31.507    546.343    552.259    546.343    546.594    546.343
 24.170    565.000    554.083     10.917    546.023    553.831    546.023    546.279    546.023
 24.270    570.000    557.332     12.668    545.703    557.078    545.703    545.964    545.703
 24.370    572.000    563.986      8.014    545.382    563.731    545.382    545.649    545.382
 24.470    589.242    576.133     13.109    545.060    575.881    545.060    545.333    545.060
 24.570    599.000    594.636      4.364    544.738    594.392    544.738    545.017    544.738
 24.670    623.000    616.335      6.665    544.415    616.100    544.415    544.701    544.415
 24.770    635.572    631.889      3.683    544.092    631.659    544.092    544.384    544.092
 24.870    638.259    630.981      7.278    543.768    630.743    543.768    544.067    543.768
 24.970    660.331    614.111     46.219    543.443    613.854    543.443    543.751    543.443
 25.070    578.000    591.924    -13.924    543.118    591.643    543.118    543.434    543.118
 25.170    536.387    573.296    -36.909    542.793    572.993    542.793    543.117    542.793
 25.270    604.000    561.041     42.959    542.468    560.720    542.468    542.801    542.468
 25.370    582.000    554.157     27.843    542.141    553.821    542.141    542.484    542.141
 25.470    576.000    550.542     25.458    541.815    550.193    541.815    542.168    541.815
 25.570    558.929    548.554     10.375    541.488    548.193    541.488    541.852    541.488
 25.670    551.000    547.305      3.695    541.161    546.931    541.161    541.537    541.161
 25.770    555.658    546.403      9.255    540.834    546.017    540.834    541.222    540.834
 25.870    576.000    545.699     30.301    540.506    545.299    540.506    540.908    540.506
 25.970    569.000    545.128     23.872    540.178    544.713    540.178    540.595    540.178
 26.070    578.000    544.657     33.343    539.850    544.226    539.850    540.283    539.850
 26.170    564.000    544.265     19.735    539.522    543.817    539.522    539.972    539.522
 26.270    526.000    543.939    -17.939    539.194    543.472    539.194    539.662    539.194
 26.370    557.000    543.669     13.331    538.865    543.182    538.865    539.353    538.865
 26.470    556.000    543.455     12.545    538.537    542.946    538.537    539.046    538.537
 26.570    534.000    543.298     -9.298    538.208    542.766    538.208    538.741    538.208
 26.670    586.289    543.203     43.085    537.880    542.645    537.880    538.438    537.880
 26.770    569.000    543.176     25.824    537.551    542.589    537.551    538.138    537.551
 26.870    510.078    543.228    -33.150    537.222    542.610    537.222    537.840    537.222
 26.970    586.324    543.378     42.945    536.894    542.726    536.894    537.545    536.894
 27.070    568.000    543.649     24.351    536.565    542.958    536.565    537.255    536.565
 27.170    586.920    544.077     42.843    536.236    543.344    536.236    536.968    536.236
 27.270    548.022    544.716      3.306    535.908    543.936    535.908    536.687    535.908
 27.370    529.000    545.650    -16.650    535.580    544.818    535.580    536.411    535.580
 27.470    590.000    547.035     42.965    535.251    546.143    535.251    536.141    535.251
 27.570    483.000    549.287    -66.287    534.923    548.328    534.923    535.880    534.923
 27.670    535.000    553.856    -18.856    534.595    552.820    534.595    535.628    534.595
 27.770    559.000    565.419     -6.419    534.268    564.293    534.268    535.386    534.268
 27.870    569.021    595.222    -26.201    533.940    593.987    533.940    535.158    533.940
 27.970    689.000    659.952     29.048    533.613    658.580    533.613    534.947    533.613
 28.070    762.000    766.484     -4.484    533.286    764.947    533.286    534.755    533.286
 28.170    871.000    886.268    -15.268    532.960    884.545    532.960    534.589    532.960
 28.270    966.000    950.601     15.399    532.633    948.690    532.633    534.454    532.633
 28.370    904.000    910.833     -6.833    532.307    908.724    532.307    534.358    532.307
 28.470    844.687    808.844     35.843    531.982    806.490    531.982    534.312    531.982
 28.570    706.000    722.973    -16.973    531.657    720.293    531.657    534.328    531.657
 28.670    697.000    698.985     -1.985    531.332    695.888    531.332    534.421    531.332
 28.770    735.000    736.205     -1.205    531.007    732.591    531.007    534.606    531.007
 28.870    799.000    798.800      0.200    530.683    794.564    530.683    534.900    530.683
 28.970    845.000    831.800     13.200    530.360    826.828    530.360    535.321    530.360
 29.070    764.000    799.861    -35.861    530.037    794.025    530.037    535.878    530.037
 29.170    746.112    725.609     20.503    529.714    718.767    529.714    536.572    529.714
 29.270    674.000    651.540     22.460    529.392    643.574    529.392    537.374    529.392
 29.370    607.588    600.417      7.172    529.071    591.281    529.071    538.217    529.071
 29.470    614.148    573.086     41.061    528.750    562.869    528.750    538.973    528.750
 29.570    588.000    560.744     27.256    528.430    549.709    528.430    539.466    528.430
 29.670    575.000    555.182     19.818    528.110    543.773    528.110    539.520    528.110
 29.770    590.000    551.963     38.037    527.791    540.711    527.791    539.043    527.791
 29.870    514.549    549.407    -34.858    527.473    538.804    527.473    538.076    527.473
 29.970    559.000    547.108     11.892    527.155    537.492    527.155    536.770    527.155
 30.070    623.000    545.073     77.927    526.838    536.599    526.838    535.311    526.838
 30.170    549.000    543.420      5.580    526.521    536.094    526.521    533.846    526.521
 30.270    539.384    542.370     -2.986    526.205    536.107    526.205    532.467    526.205
 30.370    518.853    542.426    -23.573    525.890    537.097    525.890    531.216    525.890
 30.470    535.000    544.710     -9.710    525.576    540.175    525.576    530.104    525.576
 30.570    552.000    551.092      0.908    525.263    547.219    525.263    529.124    525.263
 30.670    583.053    563.430     19.624    524.950    560.098    524.950    528.261    524.950
 30.770    610.000    581.464     28.536    524.638    578.570    524.638    527.497    524.638
 30.870    619.181    600.230     18.951    524.327    597.694    524.327    526.817    524.327
 30.970    622.000    609.695     12.305    524.017    607.457    524.017    526.205    524.017
 31.070    627.565    602.585     24.980    523.707    600.602    523.707    525.648    523.707
 31.170    574.000    583.889     -9.889    523.399    582.123    523.399    525.135    523.399
 31.270    547.000    563.757    -16.757    523.091    562.174    523.091    524.657    523.091
 31.370    527.000    548.434    -21.434    522.784    547.001    522.784    524.207    522.784
 31.470    551.423    539.110     12.313    522.478    537.803    522.478    523.780    522.478
 31.570    552.000    534.227     17.773    522.173    533.026    522.173    523.371    522.173
 31.670    575.000    531.801     43.199    521.869    530.690    521.869    522.978    521.869
 31.770    492.000    530.508    -38.508    521.566    529.475    521.566    522.597    521.566
 31.870    511.264    529.713    -18.449    521.264    528.749    521.264    522.227    521.264
 31.970    571.000    529.173     41.827    520.963    528.269    520.963    521.866    520.963
 32.070    597.000    528.801     68.199    520.663    527.950    520.663    521.513    520.663
 32.170    513.000    528.566    -15.566    520.364    527.761    520.364    521.167    520.364
 32.270    562.702    528.456     34.246    520.065    527.693    520.065    520.827    520.065
 32.370    548.000    528.472     19.528    519.768    527.747    519.768    520.493    519.768
 32.470    537.000    528.623      8.377    519.472    527.931    519.472    520.163    519.472
 32.570    542.817    528.927     13.889    519.177    528.266    519.177    519.838    519.177
 32.670    544.000    529.414     14.586    518.884    528.779    518.884    519.518    518.884
 32.770    546.000    530.126     15.874    518.591    529.515    518.591    519.200    518.591
 32.870    555.676    531.125     24.551    518.299    530.536    518.299    518.887    518.299
 32.970    570.000    532.503     37.497    518.009    531.935    518.009    518.576    518.009
 33.070    555.673    534.410     21.263    517.719    533.859    517.719    518.268    517.719
 33.170    567.000    537.120     29.880    517.431    536.586    517.431    517.963    517.431
 33.270    551.000    541.275      9.725    517.144    540.756    517.144    517.661    517.144
 33.370    555.000    548.504      6.496    516.858    547.998    516.858    517.361    516.858
 33.470    594.938    562.679     32.259    516.574    562.183    516.574    517.064    516.574
 33.570    608.231    591.368     16.863    516.290    590.878    516.290    516.769    516.290
 33.670    629.299    645.481    -16.182    516.008    644.994    516.008    516.476    516.008
 33.770    739.373    734.020      5.353    515.727    733.530    515.727    516.185    515.727
 33.870    899.467    853.137     46.330    515.447    852.644    515.447    515.897    515.447
 33.970    977.000    973.665      3.335    515.169    973.174    515.169    515.610    515.169
 34.070   1044.000   1039.830      4.170    514.891   1039.356    514.891    515.325    514.891
 34.170   1035.000   1009.240     25.760    514.615   1008.795    514.615    515.042    514.615
 34.270    869.000    903.529    -34.529    514.341    903.109    514.341    514.761    514.341
 34.370    766.000    778.952    -12.952    514.067    778.547    514.067    514.482    514.067
 34.470    676.000    676.085     -0.085    513.795    675.685    513.795    514.205    513.795
 34.570    634.733    607.899     26.834    513.524    607.500    513.524    513.929    513.524
 34.670    567.000    569.321     -2.321    513.255    568.924    513.255    513.655    513.255
 34.770    579.000    549.461     29.539    512.987    549.065    512.987    513.383    512.987
 34.870    571.000    539.239     31.761    512.720    538.847    512.720    513.113    512.720
 34.970    529.000    533.408     -4.408    512.455    533.018    512.455    512.844    512.455
 35.070    553.000    529.563     23.437    512.191    529.176    512.191    512.577    512.191
 35.170    565.973    526.733     39.240    511.928    526.349    511.928    512.312    511.928
 35.270    539.000    524.522     14.478    511.667    524.141    511.667    512.048    511.667
 35.370    504.000    522.736    -18.736    511.407    522.357    511.407    511.786    511.407
 35.470    549.829    521.261     28.568    511.149    520.884    511.149    511.526    511.149
 35.570    540.917    520.021     20.896    510.891    519.645    510.891    511.267    510.891
 35.670    515.000    518.961     -3.961    510.636    518.586    510.636    511.010    510.636
 35.770    477.390    518.043    -40.653    510.382    517.670    510.382    510.755    510.382
 35.870    514.000    517.239     -3.239    510.129    516.866    510.129    510.501    510.129
 35.970    467.000    516.527    -49.527    509.878    516.155    509.878    510.249    509.878
 36.070    479.564    515.891    -36.326    509.628    515.520    509.628    509.999    509.628
 36.170    538.000    515.319     22.681    509.380    514.949    509.380    509.750    509.380
 36.270    497.000    514.804    -17.804    509.133    514.434    509.133    509.503    509.133
 36.370    534.270    514.337     19.933    508.888    513.967    508.888    509.257    508.888
 36.470    515.487    513.914      1.573    508.644    513.544    508.644    509.014    508.644
 36.570    536.000    513.533     22.467    508.401    513.163    508.401    508.771    508.401
 36.670    508.710    513.200     -4.491    508.161    512.830    508.161    508.531    508.161
 36.770    525.000    512.921     12.079    507.921    512.550    507.921    508.292    507.921
 36.870    527.000    512.714     14.286    507.683    512.343    507.683    508.055    507.683
 36.970    483.000    512.633    -29.633    507.447    512.261    507.447    507.820    507.447
 37.070    487.470    512.791    -25.321    507.213    512.418    507.213    507.586    507.213
 37.170    492.212    513.388    -21.176    506.979    513.015    506.979    507.354    506.979
 37.270    484.000    514.697    -30.697    506.748    514.322    506.748    507.123    506.748
 37.370    535.000    516.940     18.060    506.518    516.565    506.518    506.894    506.518
 37.470    510.000    520.069    -10.069    506.289    519.693    506.289    506.667    506.289
 37.570    522.047    523.480     -1.433    506.063    523.104    506.063    506.442    506.063
 37.670    520.269    525.912     -5.643    505.837    525.535    505.837    506.218    505.837
 37.770    507.906    526.090    -18.184    505.614    525.713    505.614    505.996    505.614
 37.870    501.951    523.949    -21.998    505.391    523.573    505.391    505.776    505.391
 37.970    524.117    520.626      3.490    505.171    520.250    505.171    505.558    505.171
 38.070    489.000    517.219    -28.219    504.952    516.841    504.952    505.341    504.952
 38.170    514.202    514.255     -0.053    504.735    513.874    504.735    505.126    504.735
 38.270    468.000    511.944    -43.944    504.519    511.558    504.519    504.912    504.519
 38.370    539.355    510.291     29.064    504.305    509.900    504.305    504.701    504.305
 38.470    512.000    509.164      2.836    504.093    508.769    504.093    504.491    504.093
 38.570    481.000    508.400    -27.400    503.882    508.001    503.882    504.283    503.882
 38.670    476.000    507.864    -31.864    503.673    507.462    503.673    504.077    503.673
 38.770    547.000    507.462     39.538    503.465    507.056    503.465    503.872    503.465
 38.870    506.000    507.135     -1.135    503.260    506.726    503.260    503.669    503.260
 38.970    498.380    506.850     -8.470    503.055    506.438    503.055    503.468    503.055
 39.070    490.000    506.593    -16.593    502.853    506.178    502.853    503.269    502.853
 39.170    506.387    506.356      0.030    502.652    505.937    502.652    503.071    502.652
 39.270    511.000    506.134      4.866    502.453    505.712    502.453    502.876    502.453
 39.370    539.000    505.925     33.075    502.255    505.499    502.255    502.682    502.255
 39.470    529.000    505.728     23.272    502.060    505.298    502.060    502.490    502.060
 39.570    491.430    505.541    -14.111    501.865    505.107    501.865    502.300    501.865
 39.670    539.362    505.364     33.998    501.673    504.926    501.673    502.111    501.673
 39.770    515.000    505.197      9.803    501.482    504.755    501.482    501.925    501.482
 39.870    478.391    505.039    -26.648    501.293    504.592    501.293    501.740    501.293
 39.970    485.676    504.890    -19.214    501.106    504.439    501.106    501.557    501.106
 40.070    481.000    504.751    -23.751    500.920    504.296    500.920    501.376    500.920
 40.170    544.143    504.622     39.521    500.736    504.162    500.736    501.197    500.736
 40.270    540.984    504.504     36.480    500.554    504.039    500.554    501.019    500.554
 40.370    483.000    504.397    -21.397    500.373    503.927    500.373    500.844    500.373
 40.470    496.000    504.304     -8.304    500.195    503.829    500.195    500.670    500.195
 40.570    515.000    504.224     10.776    500.017    503.744    500.017    500.498    500.017
 40.670    480.000    504.161    -24.161    499.842    503.676    499.842    500.328    499.842
 40.770    542.992    504.117     38.875    499.668    503.626    499.668    500.160    499.668
 40.870    522.000    504.095     17.905    499.496    503.598    499.496    499.994    499.496
 40.970    461.000    504.099    -43.099    499.326    503.596    499.326    499.830    499.326
 41.070    471.000    504.134    -33.134    499.158    503.625    499.158    499.668    499.158
 41.170    445.000    504.208    -59.208    498.991    503.692    498.991    499.508    498.991
 41.270    507.000    504.329      2.671    498.826    503.807    498.826    499.349    498.826
 41.370    503.011    504.511     -1.500    498.662    503.982    498.662    499.193    498.662
 41.470    528.391    504.771     23.620    498.501    504.235    498.501    499.039    498.501
 41.570    542.542    505.139     37.403    498.341    504.596    498.341    498.886    498.341
 41.670    553.000    505.668     47.332    498.183    505.117    498.183    498.736    498.183
 41.770    523.000    506.472     16.528    498.026    505.914    498.026    498.587    498.026
 41.870    542.000    507.808     34.192    497.872    507.243    497.872    498.441    497.872
 41.970    488.000    510.219    -22.219    497.719    509.646    497.719    498.296    497.719
 42.070    508.000    514.703     -6.703    497.568    514.124    497.568    498.154    497.568
 42.170    542.028    522.756     19.272    497.418    522.171    497.418    498.013    497.418
 42.270    543.000    536.013      6.987    497.271    535.425    497.271    497.875    497.271
 42.370    583.620    555.317     28.303    497.125    554.729    497.125    497.739    497.125
 42.470    579.000    579.343     -0.343    496.981    578.758    496.981    497.605    496.981
 42.570    547.000    603.265    -56.265    496.838    602.684    496.838    497.473    496.838
 42.670    572.000    618.799    -46.799    496.697    618.218    496.697    497.343    496.697
 42.770    623.000    618.499      4.501    496.558    617.909    496.558    497.215    496.558
 42.870    560.366    602.487    -42.121    496.421    601.879    496.421    497.090    496.421
 42.970    552.000    578.311    -26.311    496.286    577.678    496.286    496.966    496.286
 43.070    504.000    554.189    -50.189    496.152    553.530    496.152    496.845    496.152
 43.170    529.000    534.854     -5.854    496.020    534.170    496.020    496.727    496.020
 43.270    514.000    521.563     -7.563    495.890    520.857    495.890    496.610    495.890
 43.370    525.000    513.441     11.559    495.761    512.715    495.761    496.496    495.761
 43.470    485.000    508.848    -23.848    495.635    508.105    495.635    496.384    495.635
 43.570    516.918    506.302     10.616    495.510    505.541    495.510    496.274    495.510
 43.670    538.000    504.815     33.185    495.386    504.037    495.386    496.167    495.386
 43.770    482.000    503.854    -21.854    495.265    503.058    495.265    496.062    495.265
 43.870    512.847    503.166      9.681    495.145    502.353    495.145    495.960    495.145
 43.970    534.722    502.640     32.082    495.027    501.808    495.027    495.861    495.027
 44.070    506.231    502.223      4.007    494.911    501.372    494.911    495.764    494.911
 44.170    464.098    501.888    -37.790    494.796    501.016    494.796    495.669    494.796
 44.270    488.000    501.615    -13.615    494.683    500.722    494.683    495.578    494.683
 44.370    463.879    501.394    -37.515    494.572    500.478    494.572    495.489    494.572
 44.470    509.000    501.214      7.786    494.463    500.275    494.463    495.403    494.463
 44.570    497.000    501.070     -4.070    494.355    500.106    494.355    495.320    494.355
 44.670    516.000    500.956     15.044    494.249    499.966    494.249    495.240    494.249
 44.770    485.000    500.870    -15.870    494.145    499.852    494.145    495.163    494.145
 44.870    486.818    500.808    -13.989    494.043    499.761    494.043    495.089    494.043
 44.970    476.705    500.768    -24.063    493.942    499.691    493.942    495.019    493.942
 45.070    509.000    500.749      8.251    493.843    499.640    493.843    494.952    493.843
 45.170    498.000    500.751     -2.751    493.746    499.608    493.746    494.889    493.746
 45.270    539.413    500.773     38.640    493.650    499.593    493.650    494.830    493.650
 45.370    509.332    500.815      8.517    493.556    499.597    493.556    494.775    493.556
 45.470    462.346    500.878    -38.532    493.464    499.618    493.464    494.724    493.464
 45.570    516.000    500.961     15.039    493.373    499.658    493.373    494.677    493.373
 45.670    516.000    501.067     14.933    493.285    499.717    493.285    494.635    493.285
 45.770    515.000    501.197     13.803    493.198    499.797    493.198    494.598    493.198
 45.870    476.000    501.352    -25.352    493.112    499.899    493.112    494.566    493.112
 45.970    485.000    501.536    -16.536    493.029    500.025    493.029    494.540    493.029
 46.070    476.837    501.752    -24.915    492.947    500.179    492.947    494.520    492.947
 46.170    475.000    502.003    -27.003    492.866    500.363    492.866    494.506    492.866
 46.270    470.708    502.295    -31.587    492.788    500.583    492.788    494.500    492.788
 46.370    529.000    502.635     26.365    492.711    500.845    492.711    494.501    492.711
 46.470    542.286    503.031     39.255    492.636    501.156    492.636    494.510    492.636
 46.570    490.000    503.495    -13.495    492.562    501.528    492.562    494.529    492.562
 46.670    467.000    504.046    -37.046    492.490    501.978    492.490    494.558    492.490
 46.770    509.000    504.715      4.285    492.420    502.536    492.420    494.598    492.420
 46.870    487.000    505.566    -18.566    492.351    503.265    492.351    494.650    492.351
 46.970    541.063    506.729     34.334    492.285    504.294    492.285    494.717    492.285
 47.070    539.000    508.468     30.532    492.219    505.885    492.219    494.799    492.219
 47.170    528.000    511.256     16.744    492.156    508.508    492.156    494.899    492.156
 47.270    510.000    515.813     -5.813    492.094    512.879    492.094    495.020    492.094
 47.370    545.389    523.006     22.383    492.034    519.862    492.034    495.164    492.034
 47.470    545.000    533.517     11.483    491.975    530.135    491.975    495.337    491.975
 47.570    540.589    547.305     -6.716    491.918    543.651    491.918    495.542    491.918
 47.670    571.000    562.989      8.011    491.863    559.025    491.863    495.787    491.863
 47.770    583.941    577.403      6.538    491.809    573.083    491.809    496.080    491.809
 47.870    626.000    586.043     39.957    491.757    581.314    491.757    496.432    491.757
 47.970    624.643    585.622     39.021    491.706    580.419    491.706    496.858    491.706
 48.070    584.000    576.975      7.025    491.657    571.213    491.657    497.377    491.657
 48.170    571.000    564.238      6.762    491.610    557.804    491.610    498.012    491.610
 48.270    572.000    551.643     20.357    491.564    544.392    491.564    498.792    491.564
 48.370    562.000    541.819     20.181    491.520    533.570    491.520    499.755    491.520
 48.470    519.000    535.739    -16.739    491.478    526.268    491.478    500.940    491.478
 48.570    492.000    533.247    -41.247    491.437    522.285    491.437    502.393    491.437
 48.670    548.000    533.673     14.327    491.397    520.904    491.397    504.163    491.397
 48.770    551.000    536.315     14.685    491.360    521.376    491.360    506.296    491.360
 48.870    533.126    540.688     -7.562    491.323    523.183    491.323    508.827    491.323
 48.970    520.000    546.595    -26.595    491.289    526.113    491.289    511.770    491.289
 49.070    509.000    554.138    -45.138    491.256    530.292    491.256    515.100    491.256
 49.170    523.000    563.882    -40.882    491.224    536.384    491.224    518.720    491.224
 49.270    567.630    577.459     -9.828    491.194    546.221    491.194    522.427    491.194
 49.370    599.000    598.978      0.022    491.166    564.252    491.166    525.882    491.166
 49.470    646.000    637.452      8.548    491.139    599.950    491.139    528.621    491.139
 49.570    721.934    709.473     12.461    491.113    670.389    491.113    530.159    491.113
 49.670    817.719    839.445    -21.727    491.089    800.294    491.089    530.171    491.089
 49.770   1030.296   1053.161    -22.866    491.067   1015.468    491.067    528.654    491.067
 49.870   1334.533   1362.301    -27.768    491.046   1327.287    491.046    525.924    491.046
 49.970   1775.000   1744.067     30.933    491.027   1712.490    491.027    522.464    491.027
 50.070   2083.149   2127.522    -44.372    491.009   2099.691    491.009    518.741    491.009
 50.170   2444.000   2401.596     42.404    490.993   2377.483    490.993    515.098    490.993
 50.270   2547.312   2460.520     86.792    490.978   2439.860    490.978    511.742    490.978
 50.370   2347.977   2276.761     71.217    490.965   2259.139    490.965    508.771    490.965
 50.470   1886.909   1926.868    -39.959    490.953   1911.820    490.953    506.213    490.953
 50.570   1517.000   1530.247    -13.247    490.942   1517.328    490.942    504.054    490.942
 50.670   1184.000   1181.814      2.186    490.933   1170.638    490.933    502.258    490.933
 50.770    930.465    927.518      2.947    490.926    917.768    490.926    500.781    490.926
 50.870    728.219    769.420    -41.201    490.920    760.838    490.920    499.575    490.920
 50.970    716.038    684.228     31.810    490.915    676.605    490.915    498.592    490.915
 51.070    711.000    642.301     68.699    490.912    635.464    490.912    497.792    490.912
 51.170    642.000    619.654     22.346    490.910    613.463    490.910    497.140    490.910
 51.270    624.000    602.521     21.479    490.909    596.859    490.909    496.605    490.909
 51.370    599.000    586.297     12.703    490.910    581.072    490.910    496.163    490.910
 51.470    585.000    571.141     13.859    490.913    566.278    490.913    495.797    490.913
 51.570    573.894    558.237     15.657    490.917    553.679    490.917    495.490    490.917
 51.670    552.990    548.323      4.667    490.922    544.023    490.922    495.233    490.922
 51.770    581.000    541.452     39.548    490.928    537.372    490.928    495.017    490.928
 51.870    494.000    537.192    -43.192    490.936    533.301    490.936    494.834    490.936
 51.970    547.000    534.935     12.065    490.945    531.205    490.945    494.680    490.945
 52.070    562.167    534.146     28.021    490.956    530.555    490.956    494.551    490.956
 52.170    492.642    534.499    -41.858    490.968    531.028    490.968    494.443    490.968
 52.270    537.000    535.915      1.085    490.981    532.545    490.981    494.355    490.981
 52.370    576.000    538.602     37.398    490.996    535.318    490.996    494.283    490.996
 52.470    579.388    543.200     36.188    491.012    539.987    491.012    494.227    491.012
 52.570    601.000    551.070     49.930    491.029    547.916    491.029    494.185    491.029
 52.670    595.233    564.727     30.505    491.048    561.622    491.048    494.156    491.048
 52.770    547.994    588.217    -40.223    491.068    585.148    491.068    494.138    491.068
 52.870    652.207    627.034     25.173    491.089    623.992    491.089    494.131    491.089
 52.970    734.069    687.066     47.004    491.111    684.044    491.111    494.135    491.111
 53.070    785.000    772.245     12.755    491.135    769.235    491.135    494.148    491.135
 53.170    917.000    881.203     35.797    491.160    878.200    491.160    494.171    491.160
 53.270    987.000   1003.818    -16.818    491.186   1000.817    491.186    494.202    491.186
 53.370   1069.000   1118.901    -49.901    491.214   1115.899    491.214    494.242    491.214
 53.470   1138.200   1196.187    -57.987    491.243   1193.180    491.243    494.291    491.243
 53.570   1211.402   1208.482      2.920    491.273   1205.460    491.273    494.348    491.273
 53.670   1148.855   1150.744     -1.889    491.304   1147.694    491.304    494.413    491.304
 53.770   1083.780   1044.762     39.018    491.336   1041.668    491.336    494.487    491.336
 53.870    877.735    922.136    -44.401    491.370    918.985    491.370    494.568    491.370
 53.970    774.000    807.731    -33.731    491.404    804.514    491.404    494.659    491.404
 54.070    681.000    715.083    -34.083    491.440    711.793    491.440    494.757    491.440
 54.170    626.000    648.002    -22.002    491.478    644.633    491.478    494.865    491.478
 54.270    605.000    603.839      1.161    491.516    600.386    491.516    494.982    491.516
 54.370    620.144    576.985     43.159    491.555    573.441    491.555    495.108    491.555
 54.470    572.000    561.615     10.385    491.596    557.972    491.596    495.244    491.596
 54.570    586.000    553.158     32.842    491.638    549.409    491.638    495.391    491.638
 54.670    565.000    548.635     16.365    491.681    544.771    491.681    495.548    491.681
 54.770    524.000    546.363    -22.363    491.725    542.373    491.725    495.718    491.725
 54.870    548.677    545.487      3.190    491.770    541.361    491.770    495.899    491.770
 54.970    519.352    545.622    -26.271    491.816    541.347    491.816    496.094    491.816
 55.070    546.000    546.610     -0.610    491.863    542.173    491.863    496.304    491.863
 55.170    556.000    548.408      7.592    491.912    543.794    491.912    496.528    491.912
 55.270    548.000    551.048     -3.048    491.961    546.243    491.961    496.770    491.961
 55.370    574.000    554.629     19.371    492.012    549.615    492.012    497.029    492.012
 55.470    547.000    559.347    -12.347    492.063    554.105    492.063    497.309    492.063
 55.570    630.000    565.590     64.410    492.116    560.099    492.116    497.611    492.116
 55.670    573.000    574.148     -1.148    492.170    568.385    492.170    497.936    492.170
 55.770    615.000    586.654     28.346    492.224    580.592    492.224    498.288    492.224
 55.870    588.000    606.337    -18.337    492.280    599.949    492.280    498.670    492.280
 55.970    645.000    639.107      5.893    492.337    632.358    492.337    499.085    492.337
 56.070    691.000    694.631     -3.631    492.395    687.482    492.395    499.536    492.395
 56.170    784.000    786.622     -2.622    492.453    779.032    492.453    500.029    492.453
 56.270    931.972    931.142      0.830    492.513    923.062    492.513    500.569    492.513
 56.370   1198.949   1141.897     57.051    492.574   1133.279    492.574    501.163    492.574
 56.470   1413.000   1422.730     -9.730    492.635   1413.520    492.635    501.819    492.635
 56.570   1768.000   1759.139      8.861    492.698   1749.282    492.698    502.546    492.698
 56.670   2145.000   2111.678     33.322    492.761   2101.112    492.761    503.358    492.761
 56.770   2403.000   2414.864    -11.864    492.826   2403.516    492.826    504.269    492.826
 56.870   2610.000   2589.961     20.039    492.891   2577.730    492.891    505.300    492.891
 56.970   2585.000   2580.709      4.291    492.957   2567.445    492.957    506.479    492.957
 57.070   2480.139   2391.228     88.911    493.024   2376.717    493.024    507.838    493.024
 57.170   2072.989   2082.676     -9.687    493.092   2066.648    493.092    509.423    493.092
 57.270   1704.000   1733.484    -29.484    493.161   1715.625    493.161    511.289    493.161
 57.370   1460.195   1406.504     53.690    493.231   1386.445    493.231    513.507    493.231
 57.470   1143.000   1138.359      4.641    493.302   1115.658    493.302    516.162    493.302
 57.570    914.000    941.379    -27.379    493.373    915.505    493.373    519.357    493.373
 57.670    809.000    810.640     -1.640    493.445    780.949    493.445    523.207    493.445
 57.770    706.506    732.597    -26.091    493.519    698.317    493.519    527.842    493.519
 57.870    721.739    692.526     29.213    493.592    652.747    493.592    533.396    493.592
 57.970    677.312    679.044     -1.731    493.667    632.722    493.667    540.000    493.667
 58.070    700.000    685.607     14.393    493.743    631.579    493.743    547.772    493.743
 58.170    715.183    709.870      5.313    493.819    646.888    493.819    556.793    493.819
 58.270    755.013    751.946      3.067    493.896    678.741    493.896    567.084    493.896
 58.370    851.766    812.336     39.431    493.974    727.724    493.974    578.561    493.974
 58.470    863.000    889.985    -26.985    494.053    793.037    494.053    590.971    494.053
 58.570    943.000    980.790    -37.790    494.132    871.077    494.132    603.815    494.132
 58.670   1058.000   1076.962    -18.962    494.212    954.886    494.212    616.264    494.212
 58.770   1160.000   1168.219     -8.219    494.293   1035.353    494.293    627.147    494.293
 58.870   1188.456   1244.871    -56.415    494.374   1104.154    494.374    635.096    494.374
 58.970   1308.000   1299.588      8.412    494.456   1155.185    494.456    638.883    494.456
 59.070   1367.000   1326.286     40.714    494.539   1183.006    494.539    637.860    494.539
 59.170   1304.670   1321.121    -16.450    494.623   1183.562    494.623    632.234    494.623
 59.270   1363.000   1287.256     75.744    494.707   1159.048    494.707    622.967    494.707
 59.370   1166.791   1236.412    -69.621    494.792   1119.841    494.792    611.401    494.792
 59.470   1149.418   1183.656    -34.238    494.877   1079.705    494.877    598.840    494.877
 59.570   1152.000   1142.510      9.490    494.963   1051.148    494.963    586.302    494.963
 59.670   1177.000   1124.873     52.127    495.050   1045.400    495.050    574.457    495.050
 59.770   1199.000   1141.064     57.936    495.137   1072.404    495.137    563.684    495.137
 59.870   1221.000   1195.707     25.293    495.225   1136.619    495.225    554.151    495.225
 59.970   1267.293   1282.903    -15.610    495.314   1232.119    495.314    545.890    495.314
 60.070   1364.000   1384.587    -20.587    495.403   1340.901    495.403    538.849    495.403
 60.170   1518.302   1472.340     45.962    495.493   1434.654    495.493    532.929    495.493
 60.270   1516.000   1514.316      1.684    495.583   1481.662    495.583    528.005    495.583
 60.370   1530.000   1488.807     41.193    495.673   1460.345    495.673    523.946    495.673
 60.470   1382.000   1396.588    -14.588    495.765   1371.598    495.765    520.619    495.765
 60.570   1296.000   1259.074     36.926    495.857   1236.943    495.857    517.901    495.857
 60.670   1104.000   1105.034     -1.034    495.949   1085.249    495.949    515.685    495.949
 60.770    957.000    959.132     -2.132    496.042    941.272    496.042    513.877    496.042
 60.870    837.000    837.217     -0.217    496.135    820.942    496.135    512.400    496.135
 60.970    793.533    746.126     47.407    496.229    731.159    496.229    511.191    496.229
 61.070    686.000    685.900      0.100    496.323    672.016    496.323    510.201    496.323
 61.170    649.000    653.145     -4.145    496.417    640.163    496.417    509.388    496.417
 61.270    670.000    644.281     25.719    496.513    632.053    496.513    508.723    496.513
 61.370    682.000    657.687     24.313    496.608    646.089    496.608    508.176    496.608
 61.470    696.963    694.252      2.711    496.704    683.186    496.704    507.724    496.704
 61.570    761.000    756.364      4.636    496.800    745.756    496.800    507.343    496.800
 61.670    837.000    845.672     -8.672    496.897    835.471    496.897    507.008    496.897
 61.770    912.034    960.259    -48.224    496.994    950.442    496.994    506.695    496.994
 61.870   1101.797   1092.076      9.720    497.092   1082.648    497.092    506.384    497.092
 61.970   1180.000   1225.459    -45.459    497.190   1216.440    497.190    506.060    497.190
 62.070   1345.000   1337.623      7.377    497.288   1329.048    497.288    505.719    497.288
 62.170   1380.071   1403.091    -23.020    497.386   1394.990    497.386    505.366    497.386
 62.270   1418.000   1403.640     14.360    497.485   1396.029    497.485    505.009    497.485
 62.370   1256.000   1338.716    -82.716    497.584   1331.589    497.584    504.662    497.584
 62.470   1168.517   1225.799    -57.282    497.684   1219.131    497.684    504.334    497.684
 62.570   1020.000   1090.254    -70.254    497.784   1084.009    497.784    504.031    497.784
 62.670    954.000    955.062     -1.062    497.884    949.200    497.884    503.758    497.884
 62.770    783.000    836.076    -53.076    497.984    830.560    497.984    503.517    497.984
 62.870    718.000    741.296    -23.296    498.085    736.089    498.085    503.306    498.085
 62.970    672.652    672.077      0.576    498.185    667.148    498.185    503.124    498.185
 63.070    631.227    625.352      5.875    498.286    620.674    498.286    502.970    498.286
 63.170    570.829    596.055    -25.227    498.388    591.603    498.388    502.842    498.388
 63.270    568.000    579.073    -11.073    498.489    574.825    498.489    502.736    498.489
 63.370    567.000    570.397     -3.397    498.591    566.334    498.591    502.650    498.591
 63.470    569.000    567.550      1.450    498.693    563.654    498.693    502.583    498.693
 63.570    581.000    569.572     11.428    498.795    565.826    498.795    502.532    498.795
 63.670    620.000    576.791     43.209    498.897    573.180    498.897    502.496    498.897
 63.770    626.000    590.535     35.465    498.999    587.045    498.999    502.471    498.999
 63.870    672.000    612.741     59.259    499.102    609.357    499.102    502.458    499.102
 63.970    642.000    645.397     -3.397    499.204    642.108    499.204    502.455    499.204
 64.070    711.000    689.800     21.200    499.307    686.593    499.307    502.460    499.307
 64.170    767.000    745.668     21.332    499.410    742.534    499.410    502.474    499.410
 64.270    765.321    810.295    -44.974    499.513    807.227    499.513    502.494    499.513
 64.370    914.623    877.916     36.707    499.616    874.912    499.616    502.521    499.616
 64.470    930.787    939.708     -8.920    499.719    936.767    499.719    502.553    499.719
 64.570    962.000    985.267    -23.267    499.822    982.394    499.822    502.591    499.822
 64.670   1029.000   1006.129     22.871    499.926   1003.329    499.926    502.634    499.926
 64.770   1055.000    999.354     55.646    500.029    996.630    500.029    502.682    500.029
 64.870    953.000    968.200    -15.200    500.132    965.551    500.132    502.733    500.132
 64.970    968.023    920.112     47.911    500.235    917.534    500.235    502.789    500.235
 65.070    879.000    864.027     14.973    500.339    861.514    500.339    502.849    500.339
 65.170    811.000    807.785      3.215    500.442    805.328    500.442    502.912    500.442
 65.270    717.000    756.422    -39.422    500.545    754.013    500.545    502.979    500.545
 65.370    720.000    712.012      7.988    500.648    709.643    500.648    503.049    500.648
 65.470    657.000    674.754    -17.754    500.752    672.416    500.752    503.121    500.752
 65.570    652.000    644.214      7.786    500.855    641.901    500.855    503.197    500.855
 65.670    617.000    619.849     -2.849    500.958    617.556    500.958    503.276    500.958
 65.770    580.000    601.006    -21.006    501.061    598.729    501.061    503.357    501.061
 65.870    602.278    586.931     15.347    501.164    584.667    501.164    503.441    501.164
 65.970    608.378    576.863     31.515    501.266    574.611    501.266    503.528    501.266
 66.070    579.000    570.113      8.887    501.369    567.871    501.369    503.617    501.369
 66.170    586.000    566.088     19.912    501.472    563.855    501.472    503.708    501.472
 66.270    544.000    564.301    -20.301    501.574    562.076    501.574    503.802    501.574
 66.370    530.000    564.388    -34.388    501.676    562.170    501.676    503.898    501.676
 66.470    543.880    566.154    -22.274    501.778    563.939    501.778    503.997    501.778
 66.570    593.069    569.637     23.432    501.880    567.424    501.880    504.097    501.880
 66.670    552.856    575.231    -22.375    501.982    573.017    501.982    504.200    501.982
 66.770    619.018    583.882     35.136    502.084    581.664    502.084    504.306    502.084
 66.870    615.684    597.376     18.309    502.185    595.151    502.185    504.414    502.185
 66.970    621.000    618.723      2.277    502.286    616.489    502.286    504.524    502.286
 67.070    641.265    652.526    -11.260    502.387    650.278    502.387    504.637    502.387
 67.170    686.000    705.141    -19.141    502.488    702.877    502.488    504.752    502.488
 67.270    774.489    784.359     -9.870    502.588    782.076    502.588    504.870    502.588
 67.370    933.000    898.284     34.716    502.689    895.983    502.689    504.990    502.689
 67.470   1058.000   1053.319      4.681    502.788   1051.001    502.788    505.113    502.788
 67.570   1252.604   1251.398      1.206    502.888   1249.070    502.888    505.239    502.888
 67.670   1551.991   1487.074     64.917    502.987   1484.745    502.987    505.368    502.987
 67.770   1801.000   1745.156     55.844    503.086   1742.838    503.086    505.500    503.086
 67.870   1932.510   1999.614    -67.103    503.185   1997.318    503.185    505.635    503.185
 67.970   2261.000   2214.731     46.269    503.284   2212.467    503.284    505.774    503.284
 68.070   2387.000   2350.913     36.087    503.382   2348.679    503.382    505.917    503.382
 68.170   2431.000   2377.488     53.512    503.479   2375.269    503.479    506.064    503.479
 68.270   2355.939   2287.749     68.190    503.577   2285.511    503.577    506.215    503.577
 68.370   2065.000   2103.048    -38.048    503.674   2100.751    503.674    506.370    503.674
 68.470   1921.000   1861.204     59.796    503.770   1858.813    503.770    506.530    503.770
 68.570   1586.000   1600.989    -14.989    503.866   1598.479    503.866    506.696    503.866
 68.670   1356.147   1353.129      3.017    503.962   1350.485    503.962    506.867    503.962
 68.770   1162.234   1137.571     24.664    504.057   1134.785    504.057    507.045    504.057
 68.870    929.000    963.824    -34.824    504.152    960.897    504.152    507.230    504.152
 68.970    820.850    832.855    -12.005    504.247    829.786    504.247    507.421    504.247
 69.070    731.000    739.838     -8.838    504.341    736.630    504.341    507.621    504.341
 69.170    669.000    677.085     -8.085    504.435    673.738    504.435    507.830    504.435
 69.270    650.000    636.442     13.558    504.528    632.954    504.528    508.049    504.528
 69.370    615.000    610.810      4.190    504.620    607.175    504.620    508.279    504.620
 69.470    597.317    594.785      2.532    504.712    590.994    504.712    508.521    504.712
 69.570    604.000    584.663     19.337    504.804    580.704    504.804    508.776    504.804
 69.670    604.000    578.113     25.887    504.895    573.973    504.895    509.046    504.895
 69.770    537.603    573.776    -36.173    504.986    569.437    504.986    509.332    504.986
 69.870    604.000    570.900     33.100    505.076    566.345    505.076    509.638    505.076
 69.970    609.270    569.095     40.175    505.165    564.301    505.165    509.965    505.165
 70.070    549.000    568.170    -19.170    505.254    563.112    505.254    510.316    505.254
 70.170    530.564    568.052    -37.488    505.343    562.704    505.343    510.695    505.343
 70.270    595.000    568.761     26.239    505.431    563.089    505.431    511.106    505.431
 70.370    572.000    570.415      1.585    505.518    564.380    505.518    511.554    505.518
 70.470    606.000    573.281     32.719    505.604    566.838    505.604    512.047    505.604
 70.570    577.000    577.868     -0.868    505.690    570.964    505.690    512.594    505.690
 70.670    573.000    585.077    -12.077    505.776    577.644    505.776    513.206    505.776
 70.770    541.000    596.390    -55.390    505.861    588.344    505.861    513.901    505.861
 70.870    582.000    614.083    -32.083    505.945    605.319    505.945    514.698    505.945
 70.970    628.000    641.386    -13.386    506.028    631.771    506.028    515.626    506.028
 71.070    681.000    682.474     -1.474    506.111    671.837    506.111    516.721    506.111
 71.170    780.000    742.147     37.853    506.193    730.271    506.193    518.030    506.193
 71.270    813.000    825.090    -12.090    506.275    811.697    506.275    519.611    506.275
 71.370    921.000    934.685    -13.685    506.355    919.430    506.355    521.533    506.355
 71.470   1075.518   1071.539      3.980    506.435   1053.995    506.435    523.879    506.435
 71.570   1222.000   1232.002    -10.002    506.515   1211.653    506.515    526.741    506.515
 71.670   1306.000   1407.028   -101.028    506.593   1383.262    506.593    530.217    506.593
 71.770   1518.000   1581.633    -63.633    506.671   1553.745    506.671    534.404    506.671
 71.870   1745.000   1735.294      9.706    506.748   1702.495    506.748    539.391    506.748
 71.970   1865.000   1844.390     20.610    506.825   1805.828    506.825    545.245    506.825
 72.070   1853.585   1888.435    -34.850    506.900   1843.225    506.900    551.997    506.900
 72.170   1863.000   1858.974      4.026    506.975   1806.249    506.975    559.625    506.975
 72.270   1701.750   1764.205    -62.456    507.049   1703.187    507.049    568.032    507.049
 72.370   1683.191   1624.362     58.829    507.123   1554.473    507.123    577.010    507.123
 72.470   1417.000   1462.770    -45.770    507.195   1383.774    507.195    586.211    507.195
 72.570   1286.576   1299.529    -12.953    507.267   1211.722    507.267    595.109    507.267
 72.670   1190.000   1149.038     40.962    507.338   1053.422    507.338    602.994    507.338
 72.770   1068.019   1019.633     48.386    507.408    918.042    507.408    609.038    507.408
 72.870    864.000    914.305    -50.305    507.477    809.357    507.477    612.461    507.477
 72.970    820.000    832.062    -12.062    507.545    726.879    507.545    612.758    507.545
 73.070    725.000    769.591    -44.591    507.613    667.334    507.613    609.893    507.613
 73.170    725.000    722.748      2.252    507.679    626.136    507.679    604.310    507.679
 73.270    674.463    687.573    -13.110    507.745    598.569    507.745    596.764    507.745
 73.370    648.516    660.800    -12.284    507.810    580.531    507.810    588.091    507.810
 73.470    646.092    640.002      6.090    507.874    568.862    507.874    579.024    507.874
 73.570    578.421    623.527    -45.106    507.937    561.357    507.937    570.117    507.937
 73.670    582.068    610.337    -28.269    507.999    556.604    507.999    561.742    507.999
 73.770    583.000    599.819    -16.819    508.060    553.767    508.060    554.123    508.060
 73.870    602.807    591.614     11.193    508.120    552.375    508.120    547.373    508.120
 73.970    580.000    585.474     -5.474    508.179    552.150    508.179    541.521    508.179
 74.070    614.110    581.167     32.943    508.238    552.884    508.238    536.543    508.238
 74.170    545.934    578.410    -32.476    508.295    554.357    508.295    532.375    508.295
 74.270    583.000    576.836      6.164    508.351    556.287    508.351    528.932    508.351
 74.370    548.543    575.983    -27.440    508.407    558.311    508.407    526.117    508.407
 74.470    613.000    575.314     37.686    508.461    559.986    508.461    523.832    508.461
 74.570    539.022    574.278    -35.256    508.515    560.857    508.515    521.982    508.515
 74.670    622.000    572.442     49.558    508.567    560.572    508.567    520.484    508.567
 74.770    536.199    569.640    -33.441    508.619    559.036    508.619    519.267    508.619
 74.870    620.000    566.028     53.972    508.669    556.468    508.669    518.271    508.669
 74.970    579.256    561.999     17.257    508.718    553.307    508.718    517.447    508.718
 75.070    590.000    558.042     31.958    508.767    550.081    508.767    516.758    508.767
 75.170    515.227    554.652    -39.425    508.814    547.314    508.814    516.175    508.814
 75.270    580.000    552.305     27.695    508.860    545.506    508.860    515.676    508.860
 75.370    562.000    551.468     10.532    508.905    545.140    508.905    515.244    508.905
 75.470    591.000    552.611     38.389    508.949    546.699    508.949    514.867    508.949
 75.570    580.000    556.206     23.794    508.992    550.662    508.992    514.535    508.992
 75.670    605.000    562.699     42.301    509.034    557.486    509.034    514.240    509.034
 75.770    579.000    572.451      6.549    509.075    567.535    509.075    513.978    509.075
 75.870    588.000    585.634      2.366    509.115    580.985    509.115    513.743    509.115
 75.970    607.000    602.109      4.891    509.153    597.703    509.153    513.532    509.153
 76.070    617.000    621.307     -4.307    509.191    617.120    509.191    513.342    509.191
 76.170    673.691    642.129     31.562    509.227    638.143    509.227    513.171    509.227
 76.270    674.000    662.913     11.087    509.262    659.111    509.262    513.015    509.262
 76.370    698.000    681.466     16.534    509.296    677.835    509.296    512.874    509.296
 76.470    652.000    695.287    -43.287    509.329    691.816    509.329    512.746    509.329
 76.570    634.000    702.083    -68.083    509.361    698.762    509.361    512.629    509.361
 76.670    674.000    700.538    -26.538    509.391    697.359    509.391    512.522    509.391
 76.770    667.995    690.878    -22.883    509.421    687.833    509.421    512.424    509.421
 76.870    632.000    674.762    -42.762    509.449    671.841    509.449    512.334    509.449
 76.970    678.150    654.588     23.562    509.476    651.785    509.476    512.251    509.476
 77.070    668.453    632.782     35.671    509.502    630.087    509.502    512.175    509.502
 77.170    561.000    611.368    -50.368    509.526    608.774    509.526    512.105    509.526
 77.270    611.000    591.809     19.191    509.550    589.309    509.550    512.040    509.550
 77.370    569.379    574.990     -5.610    509.572    572.575    509.572    511.979    509.572
 77.470    527.000    561.273    -34.273    509.593    558.938    509.593    511.923    509.593
 77.570    537.000    550.605    -13.605    509.613    548.344    509.613    511.870    509.613
 77.670    504.000    542.656    -38.656    509.631    540.463    509.631    511.821    509.631
 77.770    537.000    536.945      0.055    509.648    534.816    509.648    511.775    509.648
 77.870    521.699    532.961    -11.262    509.664    530.892    509.664    511.732    509.664
 77.970    483.000    530.237    -47.237    509.679    528.224    509.679    511.691    509.679
 78.070    493.000    528.391    -35.391    509.692    526.431    509.692    511.652    509.692
 78.170    493.933    527.136    -33.203    509.704    525.224    509.704    511.616    509.704
 78.270    506.194    526.271    -20.077    509.715    524.405    509.715    511.581    509.715
 78.370    501.000    525.667    -24.667    509.725    523.843    509.725    511.548    509.725
 78.470    513.700    525.245    -11.545    509.733    523.461    509.733    511.516    509.733
 78.570    536.000    524.963     11.037    509.740    523.217    509.740    511.486    509.740
 78.670    533.022    524.805      8.217    509.746    523.092    509.746    511.458    509.746
 78.770    553.847    524.769     29.078    509.750    523.088    509.750    511.431    509.750
 78.870    524.000    524.867     -0.867    509.753    523.215    509.753    511.405    509.753
 78.970    549.000    525.120     23.880    509.755    523.494    509.755    511.380    509.755
 79.070    486.000    525.542    -39.542    509.755    523.940    509.755    511.357    509.755
 79.170    550.000    526.162     23.838    509.754    524.580    509.754    511.335    509.754
 79.270    531.745    527.063      4.682    509.752    525.498    509.752    511.315    509.752
 79.370    508.000    528.252    -20.252    509.748    526.702    509.748    511.296    509.748
 79.470    517.212    529.763    -12.551    509.743    528.224    509.743    511.279    509.743
 79.570    537.000    531.639      5.361    509.737    530.110    509.737    511.264    509.737
 79.670    576.157    533.941     42.216    509.729    532.417    509.729    511.249    509.729
 79.770    518.000    536.753    -18.753    509.720    535.233    509.720    511.236    509.720
 79.870    499.075    540.201    -41.126    509.710    538.682    509.710    511.225    509.710
 79.970    578.070    544.467     33.603    509.698    542.947    509.698    511.214    509.698
 80.070    549.000    549.812     -0.812    509.685    548.289    509.685    511.204    509.685
 80.170    544.000    556.586    -12.586    509.670    555.060    509.670    511.194    509.670
 80.270    521.170    565.204    -44.034    509.654    563.674    509.654    511.183    509.654
 80.370    581.859    576.068      5.791    509.637    574.537    509.637    511.170    509.637
 80.470    624.000    589.460     34.540    509.618    587.930    509.618    511.154    509.618
 80.570    618.000    605.436     12.564    509.598    603.911    509.598    511.133    509.598
 80.670    637.332    623.754     13.578    509.576    622.239    509.576    511.107    509.576
 80.770    681.054    643.823     37.230    509.553    642.324    509.553    511.073    509.553
 80.870    621.000    664.714    -43.714    509.528    663.238    509.528    511.033    509.528
 80.970    664.000    685.245    -21.245    509.503    683.797    509.503    510.985    509.503
 81.070    674.000    704.139    -30.139    509.475    702.724    509.475    510.932    509.475
 81.170    724.000    720.191      3.809    509.446    718.812    509.446    510.875    509.446
 81.270    740.000    732.383      7.617    509.416    731.042    509.416    510.814    509.416
 81.370    728.000    739.965    -11.965    509.385    738.662    509.385    510.751    509.385
 81.470    745.000    742.528      2.472    509.351    741.261    509.351    510.687    509.351
 81.570    781.805    740.038     41.767    509.317    738.804    509.317    510.623    509.317
 81.670    706.000    732.792    -26.792    509.281    731.588    509.281    510.559    509.281
 81.770    733.000    721.388     11.612    509.243    720.212    509.243    510.495    509.243
 81.870    724.000    706.736     17.264    509.205    705.582    509.205    510.432    509.205
 81.970    692.000    689.986      2.014    509.164    688.852    509.164    510.370    509.164
 82.070    673.000    672.319      0.681    509.122    671.201    509.122    510.308    509.122
 82.170    673.000    654.700     18.300    509.079    653.596    509.079    510.247    509.079
 82.270    669.372    637.761     31.611    509.034    636.668    509.034    510.186    509.034
 82.370    649.000    621.845     27.155    508.988    620.761    508.988    510.125    508.988
 82.470    600.000    607.139     -7.139    508.940    606.062    508.940    510.065    508.940
 82.570    559.000    593.800    -34.800    508.891    592.728    508.891    510.005    508.891
 82.670    552.000    582.001    -30.001    508.840    580.933    508.840    509.944    508.840
 82.770    558.000    571.914    -13.914    508.788    570.847    508.788    509.884    508.788
 82.870    549.000    563.680    -14.680    508.734    562.613    508.734    509.823    508.734
 82.970    564.000    557.393      6.607    508.679    556.325    508.679    509.761    508.679
 83.070    543.592    553.093     -9.501    508.622    552.024    508.622    509.699    508.622
 83.170    549.102    550.760     -1.657    508.564    549.688    508.564    509.636    508.564
 83.270    577.598    550.295     27.303    508.504    549.220    508.504    509.572    508.504
 83.370    525.652    551.512    -25.860    508.443    550.433    508.443    509.508    508.443
 83.470    534.000    554.125    -20.125    508.380    553.042    508.380    509.442    508.380
 83.570    510.000    557.748    -47.748    508.316    556.659    508.316    509.376    508.316
 83.670    563.000    561.900      1.100    508.250    560.808    508.250    509.309    508.250
 83.770    507.000    566.029    -59.029    508.183    564.933    508.183    509.240    508.183
 83.870    582.000    569.541     12.459    508.114    568.442    508.114    509.171    508.114
 83.970    554.000    571.866    -17.866    508.044    570.765    508.044    509.100    508.044
 84.070    596.770    572.561     24.209    507.972    571.460    507.972    509.028    507.972
 84.170    591.000    571.419     19.581    507.899    570.319    507.899    508.955    507.899
 84.270    565.000    568.524     -3.524    507.824    567.427    507.824    508.882    507.824
 84.370    523.000    564.207    -41.207    507.747    563.113    507.747    508.806    507.747
 84.470    496.000    558.931    -62.931    507.669    557.841    507.669    508.730    507.669
 84.570    571.000    553.183     17.817    507.590    552.096    507.590    508.653    507.590
 84.670    534.771    547.400    -12.630    507.509    546.315    507.509    508.574    507.509
 84.770    561.451    541.933     19.517    507.427    540.849    507.427    508.495    507.427
 84.870    503.000    537.032    -34.032    507.343    535.948    507.343    508.414    507.343
 84.970    540.000    532.845      7.155    507.257    531.760    507.257    508.332    507.257
 85.070    524.000    529.428     -5.428    507.170    528.341    507.170    508.249    507.170
 85.170    519.000    526.765     -7.765    507.081    525.676    507.081    508.165    507.081
 85.270    559.673    524.796     34.877    506.991    523.703    506.991    508.079    506.991
 85.370    536.000    523.430     12.570    506.900    522.333    506.900    507.993    506.900
 85.470    484.833    522.578    -37.745    506.807    521.475    506.807    507.905    506.807
 85.570    522.000    522.164     -0.164    506.712    521.055    506.712    507.816    506.712
 85.670    563.264    522.139     41.125    506.616    521.023    506.616    507.726    506.616
 85.770    512.000    522.490    -10.490    506.518    521.367    506.518    507.635    506.518
 85.870    480.487    523.242    -42.755    506.419    522.111    506.419    507.543    506.419
 85.970    536.592    524.463     12.129    506.318    523.322    506.318    507.450    506.318
 86.070    541.000    526.257     14.743    506.216    525.106    506.216    507.356    506.216
 86.170    497.797    528.765    -30.968    506.112    527.602    506.112    507.260    506.112
 86.270    540.000    532.149      7.851    506.006    530.973    506.006    507.164    506.006
 86.370    545.604    536.577      9.026    505.900    535.386    505.900    507.067    505.900
 86.470    544.000    542.202      1.798    505.791    540.994    505.791    506.968    505.791
 86.570    586.384    549.125     37.259    505.681    547.899    505.681    506.869    505.681
 86.670    551.000    557.369     -6.369    505.570    556.123    505.570    506.768    505.570
 86.770    570.761    566.841      3.920    505.457    565.573    505.457    506.667    505.457
 86.870    609.000    577.301     31.699    505.343    576.010    505.343    506.565    505.343
 86.970    633.000    588.347     44.653    505.227    587.031    505.227    506.461    505.227
 87.070    640.000    599.404     40.596    505.109    598.065    505.109    506.357    505.109
 87.170    608.354    609.740     -1.386    504.990    608.378    504.990    506.252    504.990
 87.270    678.000    618.509     59.491    504.870    617.125    504.870    506.147    504.870
 87.370    591.224    624.855    -33.631    504.748    623.453    504.748    506.040    504.748
 87.470    668.000    628.089     39.911    504.624    626.672    504.624    505.933    504.624
 87.570    662.000    627.880     34.120    504.499    626.451    504.499    505.825    504.499
 87.670    607.000    624.361    -17.361    504.373    622.924    504.373    505.716    504.373
 87.770    640.000    618.081     21.919    504.245    616.636    504.245    505.607    504.245
 87.870    592.054    609.845    -17.791    504.115    608.393    504.115    505.497    504.115
 87.970    564.329    600.556    -36.227    503.984    599.096    503.984    505.386    503.984
 88.070    578.000    591.100    -13.100    503.852    589.631    503.852    505.275    503.852
 88.170    606.000    582.272     23.728    503.718    580.792    503.718    505.164    503.718
 88.270    561.000    574.728    -13.728    503.582    573.235    503.582    505.053    503.582
 88.370    624.000    568.953     55.047    503.445    567.444    503.445    504.941    503.445
 88.470    571.000    565.244      5.756    503.307    563.718    503.307    504.829    503.307
 88.570    587.000    563.711     23.289    503.167    562.166    503.167    504.717    503.167
 88.670    596.000    564.283     31.717    503.026    562.716    503.026    504.605    503.026
 88.770    586.000    566.725     19.275    502.883    565.136    502.883    504.493    502.883
 88.870    582.000    570.660     11.340    502.739    569.046    502.739    504.381    502.739
 88.970    575.000    575.591     -0.591    502.593    573.950    502.593    504.270    502.593
 89.070    570.000    580.919    -10.919    502.446    579.249    502.446    504.159    502.446
 89.170    599.000    585.995     13.005    502.298    584.294    502.298    504.049    502.298
 89.270    536.000    590.174    -54.174    502.148    588.438    502.148    503.940    502.148
 89.370    603.347    592.830     10.517    501.996    591.055    501.996    503.832    501.996
 89.470    592.629    593.511     -0.882    501.843    591.693    501.843    503.725    501.843
 89.570    628.000    592.023     35.977    501.689    590.158    501.689    503.620    501.689
 89.670    564.062    588.473    -24.411    501.533    586.553    501.533    503.516    501.533
 89.770    600.000    583.212     16.788    501.376    581.233    501.376    503.415    501.376
 89.870    540.126    576.736    -36.609    501.218    574.691    501.218    503.317    501.218
 89.970    562.470    569.570     -7.101    501.058    567.455    501.058    503.222    501.058
 90.070    560.000    562.206     -2.206    500.896    560.014    500.896    503.132    500.896
 90.170    552.865    555.056     -2.192    500.734    552.781    500.734    503.045    500.734
 90.270    585.774    548.439     37.335    500.570    546.073    500.570    502.965    500.570
 90.370    522.000    542.573    -20.573    500.404    540.110    500.404    502.891    500.404
 90.470    530.000    537.584     -7.584    500.237    535.014    500.237    502.826    500.237
 90.570    550.678    533.513     17.165    500.069    530.826    500.069    502.771    500.069
 90.670    498.000    530.336    -32.336    499.899    527.519    499.899    502.727    499.899
 90.770    521.557    527.986     -6.429    499.728    525.024    499.728    502.697    499.728
 90.870    513.000    526.372    -13.372    499.556    523.249    499.556    502.684    499.556
 90.970    513.813    525.403    -11.590    499.382    522.097    499.382    502.691    499.382
 91.070    505.000    524.997    -19.997    499.207    521.485    499.207    502.721    499.207
 91.170    550.000    525.099     24.901    499.031    521.353    499.031    502.777    499.031
 91.270    499.000    525.686    -26.686    498.853    521.674    498.853    502.865    498.853
 91.370    533.708    526.773      6.935    498.674    522.458    498.674    502.988    498.674
 91.470    487.150    528.415    -41.265    498.494    523.755    498.494    503.151    498.494
 91.570    533.101    530.706      2.394    498.313    525.656    498.313    503.359    498.313
 91.670    505.624    533.780    -28.156    498.130    528.287    498.130    503.616    498.130
 91.770    556.000    537.799     18.201    497.946    531.808    497.946    503.928    497.946
 91.870    537.983    542.952     -4.968    497.760    536.404    497.760    504.297    497.760
 91.970    581.000    549.435     31.565    497.574    542.267    497.574    504.728    497.574
 92.070    570.000    557.441     12.559    497.386    549.586    497.386    505.222    497.386
 92.170    565.000    567.132     -2.132    497.196    558.524    497.196    505.782    497.196
 92.270    535.317    578.624    -43.307    497.006    569.196    497.006    506.406    497.006
 92.370    577.804    591.962    -14.158    496.814    581.650    496.814    507.093    496.814
 92.470    643.000    607.096     35.904    496.621    595.841    496.621    507.836    496.621
 92.570    607.805    623.867    -16.063    496.427    611.621    496.427    508.628    496.427
 92.670    658.968    641.994     16.974    496.232    628.720    496.232    509.456    496.232
 92.770    639.000    661.071    -22.071    496.036    646.750    496.036    510.301    496.036
 92.870    707.000    680.560     26.440    495.838    665.197    495.838    511.140    495.838
 92.970    709.000    699.832      9.168    495.639    683.464    495.639    511.943    495.639
 93.070    710.465    718.242     -7.777    495.439    700.941    495.439    512.673    495.439
 93.170    735.240    735.211      0.029    495.238    717.092    495.238    513.289    495.238
 93.270    714.000    750.441    -36.441    495.035    731.659    495.035    513.749    495.035
 93.370    734.085    763.873    -29.788    494.832    744.624    494.832    514.014    494.832
 93.470    810.279    775.619     34.660    494.627    756.127    494.627    514.053    494.627
 93.570    846.000    785.923     60.077    494.422    766.428    494.422    513.852    494.422
 93.670    801.000    795.050      5.950    494.215    775.789    494.215    513.413    494.215
 93.770    870.000    803.257     66.743    494.007    784.450    494.007    512.754    494.007
 93.870    834.000    810.833     23.167    493.798    792.665    493.798    511.908    493.798
 93.970    814.000    818.149     -4.149    493.588    800.768    493.588    510.914    493.588
 94.070    833.520    825.653      7.867    493.377    809.162    493.377    509.816    493.377
 94.170    792.000    833.752    -41.752    493.164    818.214    493.164    508.654    493.164
 94.270    893.000    842.653     50.347    492.951    828.095    492.951    507.464    492.951
 94.370    869.000    852.216     16.784    492.737    838.638    492.737    506.273    492.737
 94.470    887.000    861.901     25.099    492.522    849.279    492.522    505.106    492.522
 94.570    928.000    870.791     57.209    492.305    859.086    492.305    503.979    492.305
 94.670    941.000    877.663     63.337    492.088    866.823    492.088    502.904    492.088
 94.770    897.000    881.171     15.829    491.870    871.135    491.870    501.888    491.870
 94.870    859.000    880.080    -21.080    491.651    870.784    491.651    500.937    491.651
 94.970    834.786    873.545    -38.759    491.430    864.921    491.430    500.052    491.430
 95.070    902.886    861.340     41.546    491.209    853.319    491.209    499.235    491.209
 95.170    820.237    843.946    -23.709    490.987    836.461    490.987    498.484    490.987
 95.270    826.000    822.460      3.540    490.764    815.445    490.764    497.795    490.764
 95.370    864.000    798.394     65.606    490.541    791.786    490.541    497.166    490.541
 95.470    795.775    773.463     22.312    490.316    767.204    490.316    496.594    490.316
 95.570    806.000    749.427     56.573    490.090    743.462    490.090    496.073    490.090
 95.670    763.000    727.986     35.014    489.864    722.266    489.864    495.599    489.864
 95.770    687.000    710.718    -23.718    489.636    705.198    489.636    495.167    489.636
 95.870    671.443    699.043    -27.600    489.408    693.683    489.408    494.774    489.408
 95.970    703.000    694.195      8.805    489.179    688.958    489.179    494.416    489.179
 96.070    700.000    697.212      2.788    488.950    692.067    488.950    494.087    488.950
 96.170    793.000    708.924     84.076    488.719    703.841    488.719    493.786    488.719
 96.270    664.000    729.931    -65.931    488.488    724.885    488.488    493.510    488.488
 96.370    799.409    760.574     38.835    488.256    755.544    488.256    493.254    488.256
 96.470    812.000    800.887     11.113    488.023    795.851    488.023    493.018    488.023
 96.570    900.000    850.524     49.476    487.789    845.465    487.789    492.801    487.789
 96.670    919.000    908.692     10.308    487.555    903.593    487.555    492.600    487.555
 96.770    982.000    974.076      7.924    487.320    968.923    487.320    492.415    487.320
 96.870   1028.000   1044.794    -16.794    487.084   1039.572    487.084    492.246    487.084
 96.970   1118.000   1118.371     -0.371    486.848   1113.068    486.848    492.091    486.848
 97.070   1244.016   1191.748     52.268    486.611   1186.351    486.611    491.952    486.611
 97.170   1321.336   1261.339     59.997    486.373   1255.836    486.373    491.828    486.373
 97.270   1334.000   1323.226     10.774    486.135   1317.603    486.135    491.720    486.135
 97.370   1387.496   1373.407     14.089    485.896   1367.650    485.896    491.630    485.896
 97.470   1434.000   1408.271     25.729    485.657   1402.363    485.657    491.559    485.657
 97.570   1434.000   1425.217      8.783    485.417   1419.138    485.417    491.510    485.417
 97.670   1429.561   1423.168      6.393    485.176   1416.894    485.176    491.484    485.176
 97.770   1368.000   1402.781    -34.781    484.935   1396.282    484.935    491.485    484.935
 97.870   1431.614   1366.232     65.381    484.694   1359.475    484.694    491.516    484.694
 97.970   1298.000   1316.733    -18.733    484.452   1309.677    484.452    491.583    484.452
 98.070   1219.000   1257.995    -38.995    484.209   1250.595    484.209    491.692    484.209
 98.170   1200.000   1193.821      6.179    483.966   1186.024    483.966    491.848    483.966
 98.270   1089.000   1127.847    -38.847    483.723   1119.595    483.723    492.059    483.723
 98.370   1115.170   1063.392     51.777    483.479   1054.617    483.479    492.335    483.479
 98.470    983.341   1003.384    -20.043    483.235    994.007    483.235    492.686    483.235
 98.570    946.787    950.320     -3.534    482.990    940.254    482.990    493.123    482.990
 98.670    958.429    906.266     52.163    482.745    895.410    482.745    493.659    482.745
 98.770    870.000    872.885     -2.885    482.499    861.125    482.499    494.308    482.499
 98.870    829.000    851.440    -22.440    482.254    838.648    482.254    495.086    482.254
 98.970    868.000    842.855     25.145    482.008    828.887    482.008    496.006    482.008
 99.070    813.000    847.750    -34.750    481.761    832.448    481.761    497.087    481.761
 99.170    824.000    866.479    -42.479    481.515    849.668    481.515    498.344    481.515
 99.270    933.732    899.140     34.592    481.268    880.629    481.268    499.792    481.268
 99.370    976.000    945.562     30.438    481.021    925.148    481.021    501.446    481.021
 99.470   1042.969   1005.273     37.696    480.774    982.739    480.774    503.318    480.774
 99.570   1119.541   1077.439     42.103    480.526   1052.560    480.526    505.418    480.526
 99.670   1133.000   1160.804    -27.804    480.278   1133.350    480.278    507.753    480.278
 99.770   1238.000   1253.622    -15.622    480.031   1223.359    480.031    510.324    480.031
 99.870   1302.000   1353.598    -51.598    479.783   1320.296    479.783    513.127    479.783
 99.970   1421.334   1457.862    -36.528    479.535   1421.305    479.535    516.152    479.535
100.070   1465.000   1563.005    -98.005    479.287   1522.993    479.287    519.379    479.287
100.170   1713.000   1665.197     47.803    479.038   1621.561    479.038    522.780    479.038
100.270   1718.817   1760.436    -41.620    478.790   1713.045    478.790    526.314    478.790
100.370   1788.000   1844.878    -56.878    478.542   1793.655    478.542    529.925    478.542
100.470   1898.000   1915.162    -17.162    478.294   1860.104    478.294    533.542    478.294
100.570   2028.211   1968.613     59.598    478.045   1909.801    478.045    537.075    478.045
100.670   2064.063   2003.260     60.803    477.797   1940.883    477.797    540.416    477.797
100.770   2107.000   2017.790     89.210    477.549   1952.161    477.549    543.442    477.549
100.870   2102.000   2011.576     90.424    477.301   1943.139    477.301    546.019    477.301
100.970   1963.000   1984.872    -21.872    477.053   1914.204    477.053    548.013    477.053
101.070   1932.000   1939.082     -7.082    476.805   1866.878    476.805    549.307    476.805
101.170   1815.530   1876.922    -61.392    476.558   1803.963    476.558    549.813    476.558
101.270   1838.419   1802.239     36.180    476.310   1729.356    476.310    549.484    476.310
101.370   1637.000   1719.544    -82.544    476.063   1647.558    476.063    548.328    476.063
101.470   1604.000   1633.477    -29.477    475.816   1563.158    475.816    546.399    475.816
101.570   1593.346   1548.312     45.034    475.569   1480.332    475.569    543.794    475.569
101.670   1481.816   1467.613     14.202    475.323   1402.526    475.323    540.636    475.323
101.770   1392.031   1394.062     -2.031    475.077   1332.286    475.077    537.059    475.077
101.870   1334.000   1329.388      4.612    474.831   1271.211    474.831    533.195    474.831
101.970   1331.185   1274.382     56.803    474.585   1219.972    474.585    529.165    474.585
102.070   1160.000   1228.951    -68.951    474.340   1178.373    474.340    525.073    474.340
102.170   1115.000   1192.218    -77.218    474.096   1145.452    474.096    521.004    474.096
102.270   1172.000   1162.649      9.351    473.851   1119.605    473.851    517.027    473.851
102.370   1159.670   1138.220     21.450    473.607   1098.761    473.607    513.193    473.607
102.470   1148.000   1116.644     31.356    473.364   1080.589    473.364    509.540    473.364
102.570   1060.833   1095.631    -34.798    473.121   1062.775    473.121    506.095    473.121
102.670   1132.000   1073.182     58.818    472.879   1043.302    472.879    502.876    472.879
102.770   1031.000   1047.852    -16.852    472.637   1020.713    472.637    499.890    472.637
102.870   1009.184   1018.889     -9.705    472.396    994.256    472.396    497.142    472.396
102.970   1020.000    986.235     33.765    472.156    963.873    472.156    494.628    472.156
103.070   1006.545    950.385     56.160    471.916    930.067    471.916    492.341    471.916
103.170    866.500    912.195    -45.694    471.677    893.703    471.677    490.270    471.677
103.270    894.609    872.692     21.917    471.438    855.823    471.438    488.403    471.438
103.370    792.000    832.938    -40.938    471.200    817.502    471.200    486.725    471.200
103.470    764.000    793.932    -29.932    470.963    779.757    470.963    485.220    470.963
103.570    742.393    756.552    -14.159    470.727    743.480    470.727    483.873    470.727
103.670    723.000    721.521      1.479    470.492    709.412    470.492    482.666    470.492
103.770    731.000    689.379     41.621    470.257    678.109    470.257    481.585    470.257
103.870    706.591    660.487     46.104    470.023    649.945    470.023    480.615    470.023
103.970    590.000    635.023    -45.023    469.790    625.114    469.790    479.742    469.790
104.070    619.000    613.007      5.993    469.559    603.648    469.559    478.953    469.559
104.170    645.000    594.322     50.678    469.328    585.441    469.328    478.238    469.328
104.270    570.846    578.750     -7.904    469.098    570.286    469.098    477.586    469.098
104.370    571.000    566.004      4.996    468.869    557.904    468.869    476.988    468.869
104.470    597.000    555.760     41.240    468.641    547.979    468.641    476.438    468.641
104.570    516.000    547.686    -31.686    468.414    540.185    468.414    475.928    468.414
104.670    579.000    541.464     37.536    468.188    534.209    468.188    475.453    468.188
104.770    543.000    536.805      6.195    467.963    529.767    467.963    475.009    467.963
104.870    532.335    533.462     -1.128    467.740    526.616    467.740    474.591    467.740
104.970    500.000    531.235    -31.235    467.518    524.559    467.518    474.196    467.518
105.070    569.223    529.972     39.252    467.297    523.447    467.297    473.822    467.297
105.170    530.557    529.567      0.990    467.077    523.176    467.077    473.467    467.077
105.270    536.000    529.961      6.039    466.858    523.688    466.858    473.128    466.858
105.370    488.529    531.130    -42.601    466.641    524.963    466.641    472.805    466.641
105.470    545.000    533.089     11.911    466.425    527.013    466.425    472.495    466.425
105.570    577.663    535.875     41.787    466.211    529.880    466.211    472.199    466.211
105.670    549.000    539.550      9.450    465.998    533.624    465.998    471.915    465.998
105.770    515.536    544.182    -28.646    465.787    538.315    465.787    471.642    465.787
105.870    565.000    549.836     15.164    465.576    544.019    465.576    471.379    465.576
105.970    556.879    556.564      0.315    465.368    550.787    465.368    471.128    465.368
106.070    612.000    564.386     47.614    465.161    558.641    465.161    470.886    465.161
106.170    556.000    573.284    -17.284    464.955    567.564    464.955    470.653    464.955
106.270    557.000    583.199    -26.199    464.752    577.496    464.752    470.430    464.752
106.370    609.423    594.010     15.414    464.549    588.315    464.549    470.216    464.549
106.470    577.000    605.540    -28.540    464.349    599.847    464.349    470.011    464.349
106.570    606.817    617.554    -10.736    464.150    611.857    464.150    469.814    464.150
106.670    646.297    629.776     16.521    463.953    624.068    463.953    469.626    463.953
106.770    637.000    641.881     -4.881    463.758    636.156    463.758    469.447    463.758
106.870    672.744    653.504     19.240    463.565    647.756    463.565    469.276    463.565
106.970    649.000    664.269    -15.269    463.373    658.492    463.373    469.113    463.373
107.070    694.218    673.814     20.404    463.183    668.002    463.183    468.959    463.183
107.170    637.705    681.828    -44.123    462.996    675.976    462.996    468.813    462.996
107.270    659.729    688.099    -28.371    462.810    682.201    462.810    468.676    462.810
107.370    664.000    692.549    -28.549    462.626    686.599    462.626    468.547    462.626
107.470    638.000    695.256    -57.256    462.445    689.248    462.445    468.427    462.445
107.570    637.000    696.448    -59.448    462.265    690.376    462.265    468.316    462.265
107.670    695.000    696.460     -1.460    462.087    690.317    462.087    468.214    462.087
107.770    700.000    695.691      4.309    461.912    689.470    461.912    468.120    461.912
107.870    683.000    694.536    -11.536    461.739    688.231    461.739    468.037    461.739
107.970    677.000    693.350    -16.350    461.568    686.952    461.568    467.962    461.568
108.070    694.580    692.407      2.174    461.399    685.910    461.399    467.898    461.399
108.170    658.030    691.885    -33.855    461.233    685.280    461.233    467.843    461.233
108.270    738.000    691.854     46.146    461.069    685.133    461.069    467.799    461.069
108.370    640.000    692.266    -52.266    460.907    685.420    460.907    467.766    460.907
108.470    697.000    692.965      4.035    460.748    685.986    460.748    467.744    460.748
108.570    701.931    693.694      8.237    460.591    686.572    460.591    467.734    460.591
108.670    710.000    694.117     15.883    460.437    686.842    460.437    467.736    460.437
108.770    659.000    693.850    -34.850    460.285    686.412    460.285    467.751    460.285
108.870    657.000    692.511    -35.511    460.136    684.898    460.136    467.779    460.136
108.970    739.003    689.769     49.234    459.989    681.969    459.989    467.821    459.989
109.070    634.000    685.399    -51.399    459.845    677.399    459.845    467.879    459.845
109.170    654.227    679.318    -25.091    459.704    671.105    459.704    467.952    459.704
109.270    635.231    671.592    -36.361    459.565    663.152    459.565    468.042    459.565
109.370    621.387    662.417    -41.031    459.430    653.733    459.430    468.149    459.430
109.470    661.787    652.081      9.705    459.297    643.136    459.297    468.277    459.297
109.570    649.262    640.923      8.340    459.167    631.697    459.167    468.425    459.167
109.670    620.821    629.294     -8.473    459.039    619.769    459.039    468.596    459.039
109.770    605.000    617.538    -12.538    458.915    607.690    458.915    468.792    458.915
109.870    659.000    605.966     53.034    458.794    595.771    458.794    469.015    458.794
109.970    591.000    594.854     -3.854    458.676    584.285    458.676    469.268    458.676
110.070    615.450    584.430     31.020    458.560    573.457    458.560    469.554    458.560
110.170    586.000    574.875     11.125    458.448    563.464    458.448    469.877    458.448
110.270    595.000    566.322     28.678    458.339    554.435    458.339    470.241    458.339
110.370    568.654    558.855      9.799    458.234    546.449    458.234    470.652    458.234
110.470    581.000    552.513     28.487    458.131    539.541    458.131    471.114    458.131
110.570    562.000    547.300     14.700    458.032    533.706    458.032    471.634    458.032
110.670    553.000    543.185      9.815    457.936    528.907    457.936    472.220    457.936
110.770    568.933    540.112     28.821    457.843    525.081    457.843    472.879    457.843
110.870    592.000    538.011     53.989    457.754    522.146    457.754    473.622    457.754
110.970    533.000    536.799     -3.799    457.668    520.010    457.668    474.458    457.668
111.070    508.000    536.391    -28.391    457.586    518.578    457.586    475.400    457.586
111.170    534.000    536.705     -2.705    457.508    517.752    457.508    476.459    457.508
111.270    536.418    537.661     -1.243    457.432    517.441    457.432    477.650    457.432
111.370    526.960    539.190    -12.230    457.361    517.560    457.361    478.989    457.361
111.470    556.000    541.233     14.767    457.293    518.033    457.293    480.490    457.293
111.570    582.762    543.741     39.021    457.229    518.795    457.229    482.171    457.229
111.670    503.482    546.678    -43.196    457.169    519.791    457.169    484.050    457.169
111.770    587.000    550.017     36.983    457.112    520.977    457.112    486.146    457.112
111.870    529.059    553.744    -24.685    457.060    522.321    457.060    488.477    457.060
111.970    589.000    557.857     31.143    457.011    523.800    457.011    491.062    457.011
112.070    594.000    562.363     31.637    456.966    525.404    456.966    493.919    456.966
112.170    543.000    567.265    -24.265    456.926    527.118    456.926    497.066    456.926
112.270    541.000    572.587    -31.587    456.889    528.950    456.889    500.520    456.889
112.370    557.827    578.422    -20.595    456.857    530.979    456.857    504.293    456.857
112.470    612.781    584.781     27.999    456.828    533.204    456.828    508.399    456.828
112.570    595.000    591.714      3.286    456.804    535.665    456.804    512.846    456.804
112.670    625.000    599.281     25.719    456.784    538.418    456.784    517.640    456.784
112.770    589.000    607.554    -18.554    456.768    541.535    456.768    522.780    456.768
112.870    646.802    616.622     30.181    456.757    545.108    456.757    528.263    456.757
112.970    652.824    626.591     26.234    456.750    549.255    456.750    534.077    456.750
113.070    674.520    637.598     36.922    456.748    554.132    456.748    540.204    456.748
113.170    635.000    649.818    -14.818    456.750    559.937    456.750    546.619    456.750
113.270    634.000    663.473    -29.473    456.756    566.931    456.756    553.286    456.756
113.370    701.271    678.849     22.422    456.767    575.444    456.767    560.158    456.767
113.470    740.811    696.314     44.497    456.783    585.902    456.783    567.178    456.783
113.570    696.000    716.331    -20.331    456.803    598.842    456.803    574.272    456.803
113.670    752.194    739.483     12.710    456.829    614.931    456.829    581.355    456.829
113.770    813.778    766.493     47.285    456.859    634.997    456.859    588.323    456.859
113.870    786.000    798.243    -12.243    456.893    660.040    456.893    595.058    456.893
113.970    804.000    835.796    -31.796    456.933    691.258    456.933    601.425    456.933
114.070    813.000    880.415    -67.415    456.978    730.055    456.978    607.279    456.978
114.170    879.000    933.567    -54.567    457.028    778.055    457.028    612.468    457.028
114.270   1020.974    996.934     24.041    457.082    837.086    457.082    616.843    457.082
114.370   1074.506   1072.397      2.108    457.142    909.171    457.142    620.263    457.142
114.470   1127.000   1162.017    -35.017    457.207    996.485    457.207    622.613    457.207
114.570   1263.000   1267.980     -4.980    457.277   1101.300    457.277    623.807    457.277
114.670   1433.319   1392.539     40.780    457.353   1225.910    457.353    623.804    457.353
114.770   1603.000   1537.909     65.091    457.434   1372.529    457.434    622.606    457.434
114.870   1767.000   1706.152     60.848    457.520   1543.170    457.520    620.262    457.520
114.970   1963.000   1899.031     63.969    457.612   1739.508    457.612    616.861    457.612
115.070   2289.000   2117.851    171.149    457.709   1962.730    457.709    612.521    457.709
115.170   2404.000   2363.294     40.706    457.811   2213.377    457.811    607.386    457.811
115.270   2760.000   2635.255    124.745    457.920   2491.195    457.920    601.605    457.920
115.370   3002.000   2932.694     69.306    458.034   2794.994    458.034    595.330    458.034
115.470   3332.000   3253.516     78.484    458.153   3122.535    458.153    588.706    458.153
115.570   3483.004   3594.481   -111.477    458.279   3470.447    458.279    581.864    458.279
115.670   4040.778   3951.159     89.619    458.410   3834.187    458.410    574.922    458.410
115.770   4246.000   4317.935    -71.935    458.547   4208.040    458.547    567.981    458.547
115.870   4732.405   4688.059     44.346    458.690   4585.172    458.690    561.126    458.690
115.970   4998.000   5053.751    -55.751    458.839   4957.734    458.839    554.428    458.839
116.070   5345.000   5406.360    -61.360    458.994   5317.018    458.994    547.942    458.994
116.170   5811.674   5736.589     75.085    459.155   5653.683    459.155    541.716    459.155
116.270   6045.000   6034.805     10.195    459.322   5958.062    459.322    535.782    459.322
116.370   6412.000   6291.445    120.555    459.496   6220.567    459.496    530.165    459.496
116.470   6577.673   6497.544     80.129    459.676   6432.212    459.676    524.884    459.676
116.570   6541.883   6645.351   -103.468    459.862   6585.235    459.862    519.948    459.862
116.670   6806.000   6728.993     77.007    460.055   6673.756    460.055    515.361    460.055
116.770   6879.000   6745.056    133.944    460.254   6694.357    460.254    511.122    460.254
116.870   6731.000   6692.956     38.044    460.459   6646.455    460.459    507.226    460.459
116.970   6590.000   6574.997     15.003    460.671   6532.359    460.671    503.663    460.671
117.070   6335.000   6396.107    -61.107    460.890   6357.005    460.890    500.421    460.890
117.170   6299.000   6163.309    135.691    461.115   6127.431    461.115    497.486    461.115
117.270   5680.000   5885.079   -205.079    461.347   5852.125    461.347    494.842    461.347
117.370   5518.600   5570.693    -52.093    461.586   5540.382    461.586    492.470    461.586
117.470   5136.000   5229.669    -93.669    461.832   5201.739    461.832    490.354    461.832
117.570   4636.000   4871.320   -235.320    462.085   4845.527    462.085    488.473    462.085
117.670   4367.000   4504.416   -137.416    462.345   4480.537    462.345    486.810    462.345
117.770   4066.257   4136.936    -70.679    462.612   4114.768    462.612    485.345    462.612
117.870   3847.000   3775.896     71.104    462.886   3755.255    462.886    484.062    462.886
117.970   3388.431   3427.235    -38.804    463.167   3407.958    463.167    482.944    463.167
118.070   3121.538   3095.766     25.772    463.455   3077.705    463.455    481.975    463.455
118.170   2761.699   2785.166    -23.467    463.751   2768.191    463.751    481.139    463.751
118.270   2503.000   2498.019      4.981    464.054   2482.017    464.054    480.424    464.054
118.370   2240.000   2235.898      4.102    464.365   2220.768    464.365    479.817    464.365
118.470   1973.000   1999.468    -26.468    464.683   1985.122    464.683    479.306    464.683
118.570   1782.000   1788.610     -6.610    465.008   1774.971    465.008    478.882    465.008
118.670   1586.000   1602.553    -16.553    465.341   1589.557    465.341    478.535    465.341
118.770   1389.000   1440.018    -51.018    465.682   1427.605    465.682    478.258    465.682
118.870   1358.018   1299.347     58.671    466.031   1287.467    466.031    478.043    466.031
118.970   1248.000   1178.636     69.364    466.388   1167.245    466.388    477.884    466.388
119.070   1050.000   1075.851    -25.851    466.752   1064.910    466.752    477.777    466.752
119.170    942.614    988.928    -46.314    467.124    978.402    467.124    477.716    467.124
119.270    954.502    915.850     38.652    467.505    905.708    467.505    477.697    467.505
119.370    819.000    854.686    -35.686    467.893    844.901    467.893    477.717    467.893
119.470    797.000    803.753     -6.753    468.290    794.299    468.290    477.773    468.290
119.570    779.131    761.451     17.680    468.695    752.305    468.695    477.863    468.695
119.670    745.960    726.395     19.565    469.108    717.535    469.108    477.985    469.108
119.770    685.862    697.389    -11.526    469.529    688.795    469.529    478.136    469.529
119.870    688.882    673.416     15.467    469.959    665.070    469.959    478.316    469.959
119.970    641.000    653.622    -12.622    470.398    645.507    470.398    478.523    470.398
120.070    580.000    637.301    -57.301    470.845    629.398    470.845    478.756    470.845
120.170    596.396    623.871    -27.475    471.300    616.165    471.300    479.015    471.300
120.270    579.000    612.861    -33.861    471.764    605.336    471.764    479.297    471.764
120.370    638.429    603.891     34.538    472.237    596.533    472.237    479.604    472.237
120.470    579.000    596.657    -17.657    472.719    589.451    472.719    479.934    472.719
120.570    605.000    590.915     14.085    473.210    583.847    473.210    480.287    473.210
120.670    588.000    586.471      1.529    473.710    579.528    473.710    480.662    473.710
120.770    599.056    583.171     15.885    474.219    576.340    474.219    481.059    474.219
120.870    553.717    580.892    -27.175    474.737    574.160    474.737    481.478    474.737
120.970    586.000    579.533      6.467    475.264    572.889    475.264    481.919    475.264
121.070    535.000    579.012    -44.012    475.800    572.443    475.800    482.380    475.800
121.170    538.844    579.257    -40.413    476.346    572.754    476.346    482.863    476.346
121.270    588.699    580.207      8.492    476.901    573.757    476.901    483.365    476.901
121.370    539.000    581.802    -42.802    477.466    575.396    477.466    483.888    477.466
121.470    576.000    583.984     -7.984    478.040    577.612    478.040    484.430    478.040
121.570    577.000    586.696     -9.696    478.623    580.348    478.623    484.991    478.623
121.670    578.000    589.874    -11.874    479.217    583.543    479.217    485.570    479.217
121.770    578.000    593.452    -15.452    479.820    587.129    479.820    486.167    479.820
121.870    630.000    597.357     32.643    480.433    591.036    480.433    486.782    480.433
121.970    627.000    601.511     25.489    481.056    595.184    481.056    487.412    481.056
122.070    569.707    605.827    -36.120    481.689    599.491    481.689    488.058    481.689
122.170    610.610    610.215      0.395    482.332    603.864    482.332    488.717    482.332
122.270    660.139    614.577     45.562    482.985    608.210    482.985    489.390    482.985
122.370    638.072    618.814     19.258    483.648    612.428    483.648    490.074    483.648
122.470    618.000    622.822     -4.822    484.322    616.419    484.322    490.769    484.322
122.570    644.332    626.501     17.831    485.006    620.082    485.006    491.472    485.006
122.670    602.000    629.756    -27.756    485.701    623.324    485.701    492.181    485.701
122.770    633.000    632.502      0.498    486.405    626.062    486.405    492.895    486.405
122.870    629.999    634.667     -4.669    487.121    628.227    487.121    493.612    487.121
122.970    621.443    636.203    -14.760    487.847    629.771    487.847    494.331    487.847
123.070    681.035    637.080     43.955    488.584    630.668    488.584    495.049    488.584
123.170    642.000    637.295      4.705    489.332    630.915    489.332    495.765    489.332
123.270    613.000    636.866    -23.866    490.091    630.530    490.091    496.478    490.091
123.370    676.960    635.830     41.130    490.860    629.553    490.860    497.188    490.860
123.470    667.813    634.239     33.574    491.641    628.035    491.641    497.894    491.641
123.570    644.000    632.157     11.843    492.433    626.040    492.433    498.597    492.433
123.670    659.000    629.653     29.347    493.236    623.637    493.236    499.298    493.236
123.770    666.773    626.801     39.973    494.050    620.897    494.050    499.996    494.050
123.870    624.000    623.671      0.329    494.876    617.893    494.876    500.695    494.876
123.970    662.685    620.336     42.348    495.713    614.692    495.713    501.394    495.713
124.070    614.000    616.861     -2.861    496.562    611.359    496.562    502.098    496.562
124.170    629.000    613.305     15.695    497.422    607.952    497.422    502.806    497.422
124.270    620.000    609.720     10.280    498.294    604.521    498.294    503.520    498.294
124.370    619.000    606.150     12.850    499.178    601.109    499.178    504.244    499.178
124.470    598.000    602.632     -4.632    500.073    597.750    500.073    504.977    500.073
124.570    626.000    599.190     26.810    500.981    594.469    500.981    505.722    500.981
124.670    621.030    595.844     25.186    501.900    591.283    501.900    506.479    501.900
124.770    592.000    592.606     -0.606    502.832    588.203    502.832    507.250    502.832
124.870    595.000    589.481      5.519    503.776    585.233    503.776    508.036    503.776
124.970    622.000    586.472     35.528    504.732    582.377    504.732    508.838    504.732
