neutron_powder_diffraction_0069
R_wp: 4.761
Temperature (K): 734.222
Counts: 83530.00
Wavelength (Ã…): 2.52098
COMMENTS
Test file for demonstrating the .xyy file format in Reel1.0
END OF HEADER
   tth       Y_obs     Y_calc      Y_res    Background    Phase_1_Nuc    Phase_1_Mag    Phase_2_Nuc    Phase_2_Mag
  9.970    685.000    616.861     68.139    615.932    616.790    616.003    615.932    615.932
 10.070    667.000    617.623     49.377    616.628    617.550    616.700    616.628    616.628
 10.170    573.756    618.392    -44.636    617.309    618.318    617.382    617.309    617.309
 10.270    689.000    619.268     69.732    617.977    619.194    618.051    617.977    617.977
 10.370    684.000    620.075     63.925    618.631    620.000    618.706    618.631    618.631
 10.470    683.000    620.835     62.165    619.271    620.760    619.347    619.271    619.271
 10.570    676.000    621.598     54.402    619.898    621.521    619.974    619.898    619.898
 10.670    649.503    622.371     27.131    620.511    622.294    620.588    620.511    620.511
 10.770    662.000    623.163     38.837    621.111    623.084    621.189    621.111    621.111
 10.870    591.547    623.982    -32.435    621.697    623.902    621.776    621.697    621.697
 10.970    662.000    624.840     37.160    622.270    624.759    622.350    622.270    622.270
 11.070    625.000    625.756     -0.756    622.831    625.674    622.911    622.831    622.831
 11.170    684.000    626.749     57.251    623.378    626.666    623.459    623.378    623.378
 11.270    678.000    627.859     50.141    623.912    627.774    623.995    623.912    623.912
 11.370    640.625    629.141     11.484    624.434    629.055    624.517    624.434    624.434
 11.470    649.000    630.698     18.302    624.942    630.611    625.027    624.942    624.942
 11.570    659.000    632.773     26.227    625.439    632.684    625.524    625.439    625.439
 11.670    713.000    636.040     76.960    625.923    635.948    626.009    625.923    625.923
 11.770    653.093    642.277     10.816    626.394    642.181    626.481    626.394    626.394
 11.870    719.000    655.124     63.876    626.853    655.020    626.942    626.853    626.853
 11.970    652.940    679.441    -26.501    627.300    679.324    627.390    627.300    627.300
 12.070    693.222    717.209    -23.988    627.735    717.070    627.826    627.735    627.735
 12.170    757.000    760.321     -3.321    628.158    760.158    628.250    628.158    628.158
 12.270    752.000    786.286    -34.286    628.569    786.108    628.662    628.569    628.569
 12.370    755.000    775.244    -20.244    628.968    775.071    629.062    628.968    628.968
 12.470    697.000    737.335    -40.335    629.356    737.182    629.451    629.356    629.356
 12.570    634.000    696.698    -62.698    629.732    696.565    629.828    629.732    629.732
 12.670    703.169    667.387     35.782    630.097    667.270    630.194    630.097    630.097
 12.770    626.000    650.913    -24.913    630.450    650.803    630.549    630.450    630.450
 12.870    650.774    643.075      7.699    630.792    642.969    630.892    630.792    630.792
 12.970    621.391    639.566    -18.176    631.122    639.461    631.224    631.122    631.122
 13.070    659.000    637.880     21.120    631.442    637.774    631.545    631.442    631.442
 13.170    623.000    636.948    -13.948    631.751    636.841    631.855    631.751    631.751
 13.270    636.000    636.379     -0.379    632.048    636.272    632.154    632.048    632.048
 13.370    654.645    636.024     18.620    632.335    635.916    632.442    632.335    632.335
 13.470    620.000    635.810    -15.810    632.611    635.700    632.719    632.611    632.611
 13.570    631.000    635.692     -4.692    632.877    635.581    632.986    632.877    632.877
 13.670    619.245    635.642    -16.397    633.132    635.530    633.243    633.132    633.132
 13.770    600.133    635.644    -35.510    633.376    635.530    633.489    633.376    633.376
 13.870    614.195    635.707    -21.512    633.611    635.591    633.725    633.611    633.611
 13.970    626.305    635.811     -9.506    633.835    635.693    633.952    633.835    633.835
 14.070    639.000    635.894      3.106    634.048    635.778    634.168    634.048    634.048
 14.170    675.577    636.005     39.572    634.252    635.883    634.373    634.252    634.252
 14.270    627.000    636.113     -9.113    634.446    635.990    634.569    634.446    634.446
 14.370    659.179    636.234     22.945    634.629    636.108    634.754    634.629    634.629
 14.470    608.083    636.403    -28.320    634.803    636.276    634.930    634.803    634.803
 14.570    680.993    636.516     44.478    634.968    636.387    635.096    634.968    634.968
 14.670    624.315    636.620    -12.305    635.122    636.489    635.252    635.122    635.122
 14.770    625.314    636.719    -11.405    635.267    636.587    635.399    635.267    635.267
 14.870    588.084    636.815    -48.732    635.403    636.681    635.537    635.403    635.403
 14.970    628.000    636.907     -8.907    635.529    636.771    635.665    635.529    635.529
 15.070    576.858    636.994    -60.137    635.646    636.856    635.784    635.646    635.646
 15.170    633.000    637.076     -4.076    635.754    636.936    635.894    635.754    635.754
 15.270    655.737    637.152     18.584    635.853    637.010    635.994    635.853    635.853
 15.370    616.000    637.222    -21.222    635.943    637.078    636.086    635.943    635.943
 15.470    619.000    637.286    -18.286    636.023    637.140    636.169    636.023    636.023
 15.570    692.375    637.343     55.031    636.095    637.195    636.243    636.095    636.095
 15.670    615.000    637.394    -22.394    636.158    637.244    636.309    636.158    636.158
 15.770    612.000    637.438    -25.438    636.213    637.285    636.365    636.213    636.213
 15.870    594.000    637.475    -43.475    636.259    637.320    636.414    636.259    636.259
 15.970    627.000    637.505    -10.505    636.296    637.347    636.453    636.296    636.296
 16.070    633.524    637.528     -4.004    636.325    637.368    636.485    636.325    636.325
 16.170    652.000    637.544     14.456    636.345    637.381    636.508    636.345    636.345
 16.270    622.301    637.552    -15.251    636.358    637.387    636.523    636.358    636.358
 16.370    588.800    637.554    -48.754    636.362    637.387    636.529    636.362    636.362
 16.470    691.450    637.549     53.901    636.358    637.379    636.528    636.358    636.358
 16.570    619.000    637.537    -18.537    636.346    637.364    636.519    636.346    636.346
 16.670    654.000    637.527     16.473    636.326    637.351    636.502    636.326    636.326
 16.770    595.000    637.532    -42.532    636.298    637.353    636.477    636.298    636.298
 16.870    681.036    637.544     43.492    636.263    637.362    636.445    636.263    636.263
 16.970    617.967    637.526    -19.559    636.219    637.341    636.405    636.219    636.219
 17.070    614.000    637.496    -23.496    636.169    637.308    636.357    636.169    636.169
 17.170    633.000    637.449     -4.449    636.110    637.257    636.302    636.110    636.110
 17.270    584.000    637.390    -53.390    636.044    637.194    636.239    636.044    636.044
 17.370    658.883    637.326     21.558    635.971    637.127    636.170    635.971    635.971
 17.470    626.007    637.255    -11.248    635.890    637.053    636.093    635.890    635.890
 17.570    620.919    637.175    -16.256    635.803    636.969    636.009    635.803    635.803
 17.670    663.425    637.089     26.336    635.708    636.879    635.918    635.708    635.708
 17.770    617.000    637.003    -20.003    635.606    636.788    635.820    635.606    635.606
 17.870    606.000    636.905    -30.905    635.497    636.686    635.715    635.497    635.497
 17.970    579.000    636.798    -57.798    635.381    636.576    635.603    635.381    635.381
 18.070    621.000    636.688    -15.688    635.258    636.461    635.485    635.258    635.258
 18.170    681.115    636.593     44.522    635.129    636.362    635.359    635.129    635.129
 18.270    588.205    636.532    -48.328    634.992    636.297    635.227    634.992    634.992
 18.370    642.000    636.422      5.578    634.849    636.182    635.089    634.849    634.849
 18.470    658.751    636.287     22.464    634.700    636.043    634.944    634.700    634.700
 18.570    627.000    636.145     -9.145    634.544    635.896    634.793    634.544    634.544
 18.670    592.718    635.997    -43.279    634.382    635.743    634.636    634.382    634.382
 18.770    615.000    635.847    -20.847    634.213    635.588    634.472    634.213    634.213
 18.870    597.326    635.730    -38.403    634.039    635.465    634.303    634.039    634.039
 18.970    636.000    635.577      0.423    633.858    635.307    634.127    633.858    633.858
 19.070    571.000    635.439    -64.439    633.670    635.164    633.946    633.670    633.670
 19.170    570.000    635.282    -65.282    633.477    635.001    633.758    633.477    633.477
 19.270    611.000    635.103    -24.103    633.278    634.816    633.565    633.278    633.278
 19.370    610.088    634.917    -24.829    633.073    634.624    633.366    633.073    633.073
 19.470    570.000    634.726    -64.726    632.862    634.427    633.162    632.862    632.862
 19.570    617.000    634.530    -17.530    632.646    634.224    632.952    632.646    632.646
 19.670    615.940    634.329    -18.388    632.424    634.016    632.736    632.424    632.424
 19.770    627.000    634.123     -7.123    632.196    633.804    632.515    632.196    632.196
 19.870    595.000    633.914    -38.914    631.962    633.587    632.289    631.962    631.962
 19.970    673.684    633.707     39.977    631.723    633.373    632.058    631.723    631.723
 20.070    616.262    633.492    -17.230    631.479    633.150    631.821    631.479    631.479
 20.170    582.000    633.271    -51.271    631.229    632.921    631.579    631.229    631.229
 20.270    574.000    633.045    -59.045    630.974    632.687    631.333    630.974    630.974
 20.370    632.000    632.815     -0.815    630.714    632.449    631.081    630.714    630.714
 20.470    583.000    632.579    -49.579    630.449    632.204    630.825    630.449    630.449
 20.570    614.000    632.340    -18.340    630.179    631.955    630.564    630.179    630.179
 20.670    613.000    632.100    -19.100    629.903    631.705    630.298    629.903    629.903
 20.770    632.675    631.855      0.819    629.623    631.451    630.027    629.623    629.623
 20.870    589.000    631.608    -42.608    629.338    631.194    629.753    629.338    629.338
 20.970    607.000    631.355    -24.355    629.048    630.929    629.473    629.048    629.048
 21.070    630.690    631.098     -0.408    628.753    630.661    629.190    628.753    628.753
 21.170    597.782    630.838    -33.056    628.454    630.390    628.902    628.454    628.454
 21.270    625.000    630.575     -5.575    628.150    630.115    628.610    628.150    628.150
 21.370    603.000    630.310    -27.310    627.842    629.837    628.314    627.842    627.842
 21.470    600.000    630.042    -30.042    627.528    629.557    628.014    627.528    627.528
 21.570    615.000    629.773    -14.773    627.211    629.274    627.710    627.211    627.211
 21.670    596.871    629.503    -32.632    626.889    628.990    627.403    626.889    626.889
 21.770    612.000    629.230    -17.230    626.563    628.702    627.091    626.563    626.563
 21.870    671.284    628.956     42.327    626.233    628.413    626.776    626.233    626.233
 21.970    623.000    628.682     -5.682    625.898    628.122    626.458    625.898    625.898
 22.070    618.000    628.407    -10.407    625.560    627.830    626.136    625.560    625.560
 22.170    629.000    628.132      0.868    625.217    627.538    625.811    625.217    625.217
 22.270    601.000    627.858    -26.858    624.870    627.245    625.483    624.870    624.870
 22.370    637.888    627.584     10.304    624.520    626.952    625.152    624.520    624.520
 22.470    602.712    627.312    -24.600    624.165    626.659    624.818    624.165    624.165
 22.570    565.000    627.043    -62.043    623.807    626.369    624.481    623.807    623.807
 22.670    590.000    626.777    -36.777    623.445    626.081    624.142    623.445    623.445
 22.770    631.000    626.518      4.482    623.079    625.798    623.800    623.079    623.079
 22.870    581.855    626.265    -44.411    622.710    625.520    623.455    622.710    622.710
 22.970    630.000    626.025      3.975    622.337    625.254    623.109    622.337    622.337
 23.070    573.197    625.790    -52.593    621.960    624.991    622.760    621.960    621.960
 23.170    639.026    625.565     13.461    621.580    624.736    622.409    621.580    621.580
 23.270    614.065    625.355    -11.290    621.197    624.496    622.057    621.197    621.197
 23.370    659.684    625.166     34.518    620.810    624.273    621.703    620.810    620.810
 23.470    627.000    625.001      1.999    620.420    624.075    621.348    620.420    620.420
 23.570    598.000    624.872    -26.872    620.027    623.908    620.992    620.027    620.027
 23.670    613.000    624.783    -11.783    619.631    623.781    620.634    619.631    619.631
 23.770    671.000    624.752     46.248    619.231    623.708    620.276    619.231    619.231
 23.870    683.000    624.799     58.201    618.829    623.711    619.917    618.829    618.829
 23.970    658.000    624.955     33.045    618.423    623.821    619.559    618.423    618.423
 24.070    626.885    625.274      1.611    618.014    624.091    619.200    618.014    618.014
 24.170    625.000    625.874     -0.874    617.603    624.637    618.842    617.603    617.603
 24.270    656.598    627.056     29.542    617.189    625.763    618.485    617.189    617.189
 24.370    642.000    629.614     12.386    616.771    628.262    618.129    616.771    616.771
 24.470    649.307    635.293     14.013    616.352    633.880    617.775    616.352    616.352
 24.570    672.000    646.869     25.131    615.929    645.393    617.423    615.929    615.929
 24.670    678.000    666.728     11.272    615.504    665.191    617.074    615.504    615.504
 24.770    726.000    693.352     32.648    615.076    691.752    616.729    615.076    615.076
 24.870    749.141    717.410     31.731    614.646    715.740    616.388    614.646    614.646
 24.970    722.000    723.923     -1.923    614.213    722.161    616.052    614.213    614.213
 25.070    696.000    707.132    -11.132    613.778    705.253    615.721    613.778    613.778
 25.170    676.935    679.384     -2.449    613.340    677.370    615.398    613.340    613.340
 25.270    616.989    654.703    -37.714    612.900    652.546    615.083    612.900    612.900
 25.370    629.000    638.458     -9.458    612.458    636.153    614.778    612.458    612.458
 25.470    666.000    629.712     36.288    612.014    627.249    614.484    612.014    612.014
 25.570    613.000    625.499    -12.499    611.567    622.868    614.203    611.567    611.567
 25.670    666.000    623.439     42.561    611.118    620.624    613.937    611.118    611.118
 25.770    601.577    622.299    -20.723    610.668    619.280    613.689    610.668    610.668
 25.870    607.920    621.589    -13.669    610.215    618.343    613.463    610.215    610.215
 25.970    679.348    621.135     58.214    609.760    617.635    613.261    609.760    609.760
 26.070    668.000    620.870     47.130    609.303    617.086    613.088    609.303    609.303
 26.170    677.348    620.766     56.582    608.845    616.662    612.950    608.845    608.845
 26.270    725.000    620.812    104.188    608.384    616.343    612.853    608.384    608.384
 26.370    681.000    621.006     59.994    607.922    616.122    612.806    607.922    607.922
 26.470    659.000    621.357     37.643    607.458    615.996    612.818    607.458    607.458
 26.570    567.393    621.882    -54.489    606.992    615.971    612.903    606.992    606.992
 26.670    697.000    622.608     74.392    606.525    616.055    613.077    606.525    606.525
 26.770    591.417    623.571    -32.154    606.056    616.264    613.362    606.056    606.056
 26.870    677.000    624.823     52.177    605.585    616.623    613.785    605.585    605.585
 26.970    698.000    626.434     71.566    605.113    617.163    614.383    605.113    605.113
 27.070    725.000    628.499     96.501    604.640    617.931    615.206    604.640    604.640
 27.170    624.814    631.153     -6.339    604.165    618.991    616.325    604.165    604.165
 27.270    741.000    634.589    106.411    603.689    620.436    617.839    603.689    603.689
 27.370    715.000    639.108     75.892    603.211    622.413    619.903    603.211    603.211
 27.470    747.000    645.241    101.759    602.732    625.176    622.792    602.732    602.732
 27.570    770.000    654.086    115.914    602.252    629.256    627.076    602.252    602.252
 27.670    768.000    668.071     99.929    601.771    635.818    634.016    601.771    601.771
 27.770    836.000    692.231    143.769    601.288    647.277    646.228    601.288    601.288
 27.870    783.000    735.331     47.669    600.804    667.841    668.273    600.804    600.804
 27.970    813.000    808.868      4.132    600.320    703.024    706.127    600.320    600.320
 28.070   1005.000    921.545     83.455    599.834    757.014    764.308    599.834    599.834
 28.170    999.245   1068.420    -69.175    599.347    827.480    840.209    599.347    599.347
 28.270   1161.146   1215.879    -54.733    598.859    898.396    916.251    598.859    598.859
 28.370   1353.385   1296.966     56.419    598.371    937.847    957.408    598.371    598.371
 28.470   1299.348   1265.407     33.941    597.881    923.951    939.288    597.881    597.881
 28.570   1183.000   1161.344     21.656    597.391    876.365    882.349    597.391    597.391
 28.670   1014.000   1060.407    -46.407    596.900    831.838    825.461    596.900    596.900
 28.770    986.000   1008.796    -22.796    596.408    812.840    792.358    596.408    596.408
 28.870   1001.488   1013.411    -11.922    595.916    822.327    786.991    595.916    595.916
 28.970   1108.000   1048.037     59.963    595.422    845.991    797.461    595.422    595.422
 29.070   1144.000   1063.140     80.860    594.929    856.743    801.328    594.929    594.929
 29.170   1132.000   1021.822    110.178    594.434    834.495    781.778    594.434    594.434
 29.270    942.442    936.577      5.865    593.939    786.833    743.708    593.939    593.939
 29.370    901.000    843.227     57.773    593.444    734.315    702.378    593.444    593.444
 29.470    905.000    765.417    139.583    592.948    690.467    667.915    592.948    592.948
 29.570    774.000    710.149     63.851    592.451    659.314    643.297    592.451    592.451
 29.670    795.000    674.819    120.181    591.955    639.413    627.367    591.955    591.955
 29.770    640.809    653.465    -12.656    591.458    627.406    617.520    591.458    591.458
 29.870    756.000    640.529    115.471    590.960    620.158    611.331    590.960    590.960
 29.970    633.971    632.265      1.706    590.462    615.563    607.163    590.462    590.462
 30.070    729.000    626.626    102.374    589.964    612.479    604.109    589.964    589.964
 30.170    613.208    622.650     -9.442    589.466    610.390    601.724    589.466    589.466
 30.270    695.000    619.979     75.021    588.968    609.142    599.801    588.968    588.968
 30.370    728.000    618.640    109.360    588.469    608.852    598.253    588.469    588.469
 30.470    608.080    619.012    -10.932    587.970    609.910    597.066    587.970    587.970
 30.570    704.000    621.813     82.187    587.472    612.989    596.285    587.472    587.472
 30.670    666.000    627.919     38.081    586.973    618.894    595.982    586.973    586.973
 30.770    706.000    637.884     68.116    586.474    628.135    596.199    586.474    586.474
 30.870    651.007    651.077     -0.070    585.975    640.171    596.849    585.975    585.975
 30.970    759.000    664.464     94.536    585.477    652.326    597.573    585.477    585.477
 31.070    715.919    672.130     43.788    584.978    659.376    597.688    584.978    584.978
 31.170    648.045    669.028    -20.984    584.480    656.857    596.610    584.480    584.480
 31.270    688.000    656.517     31.483    583.981    645.978    594.488    583.981    583.981
 31.370    601.752    640.526    -38.774    583.483    631.993    591.993    583.483    583.483
 31.470    709.000    625.968     83.032    582.985    619.256    589.682    582.985    582.985
 31.570    651.000    614.884     36.116    582.488    609.578    587.783    582.488    582.488
 31.670    657.000    607.345     49.655    581.991    603.026    586.302    581.991    581.991
 31.770    604.000    602.556      1.444    581.494    598.899    585.146    581.494    581.494
 31.870    637.431    599.576     37.855    580.997    596.365    584.204    580.997    580.997
 31.970    627.000    597.672     29.328    580.501    594.779    583.391    580.501    580.501
 32.070    654.353    596.396     57.958    580.005    593.745    582.653    580.005    580.005
 32.170    595.000    595.513     -0.513    579.509    593.059    581.961    579.509    579.509
 32.270    550.063    594.916    -44.853    579.015    592.628    581.301    579.015    579.015
 32.370    556.605    594.561    -37.956    578.520    592.415    580.664    578.520    578.520
 32.470    678.000    594.435     83.565    578.026    592.413    580.046    578.026    578.026
 32.570    605.000    594.545     10.455    577.533    592.632    579.445    577.533    577.533
 32.670    575.000    594.914    -19.914    577.040    593.096    578.857    577.040    577.040
 32.770    602.000    595.582      6.418    576.548    593.847    578.281    576.548    576.548
 32.870    610.000    596.610     13.390    576.057    594.947    577.718    576.057    576.057
 32.970    561.000    598.090    -37.090    575.566    596.489    577.165    575.566    575.566
 33.070    658.738    600.163     58.575    575.076    598.614    576.623    575.076    575.076
 33.170    638.000    603.070     34.930    574.587    601.561    576.093    574.587    574.587
 33.270    629.000    607.260     21.740    574.098    605.777    575.578    574.098    574.098
 33.370    636.000    613.628     22.372    573.611    612.152    575.082    573.611    573.611
 33.470    647.733    623.930     23.803    573.124    622.429    574.618    573.124    573.124
 33.570    602.000    641.267    -39.267    572.638    639.689    574.206    572.638    572.638
 33.670    663.000    670.283     -7.283    572.153    668.544    573.876    572.153    572.153
 33.770    705.909    716.387    -10.478    571.668    714.367    573.665    571.668    571.668
 33.870    745.877    783.373    -37.495    571.185    780.926    573.599    571.185    571.185
 33.970    836.000    869.169    -33.169    570.703    866.168    573.662    570.703    570.703
 34.070    961.483    959.817      1.665    570.221    956.230    573.762    570.221    570.221
 34.170   1039.216   1025.587     13.629    569.741   1021.588    573.697    569.741    569.741
 34.270   1043.000   1033.649      9.351    569.261   1029.634    573.248    569.261    569.261
 34.370    994.000    978.564     15.436    568.783    974.956    572.376    568.783    568.783
 34.470    836.819    889.235    -52.416    568.306    886.258    571.277    568.306    568.306
 34.570    763.000    798.998    -35.998    567.830    796.652    570.174    567.830    567.830
 34.670    716.000    725.700     -9.700    567.355    723.866    569.188    567.355    567.355
 34.770    667.999    673.624     -5.625    566.881    672.156    568.348    566.881    566.881
 34.870    622.000    639.885    -17.885    566.408    638.659    567.634    566.408    566.408
 34.970    586.844    619.136    -32.292    565.937    618.062    567.010    565.937    565.937
 35.070    625.325    606.402     18.923    565.467    605.425    566.442    565.467    565.467
 35.170    643.545    598.187     45.357    564.998    597.276    565.908    564.998    564.998
 35.270    598.161    592.453      5.709    564.530    591.589    565.393    564.530    564.530
 35.370    613.188    588.140     25.048    564.063    587.312    564.890    564.063    564.063
 35.470    573.792    584.720    -10.929    563.598    583.922    564.396    563.598    563.598
 35.570    640.167    581.917     58.251    563.135    581.141    563.909    563.135    563.135
 35.670    587.662    579.565      8.097    562.672    578.808    563.429    562.672    562.672
 35.770    534.000    577.558    -43.558    562.211    576.816    562.953    562.211    562.211
 35.870    600.196    575.822     24.374    561.751    575.089    562.483    561.751    561.751
 35.970    572.000    574.299     -2.299    561.293    573.574    562.018    561.293    561.293
 36.070    617.000    572.950     44.050    560.836    572.229    561.558    560.836    560.836
 36.170    532.000    571.744    -39.744    560.381    571.022    561.103    560.381    560.381
 36.270    493.000    570.657    -77.657    559.927    569.931    560.653    559.927    559.927
 36.370    573.000    569.671      3.329    559.475    568.936    560.209    559.475    559.475
 36.470    569.000    568.773      0.227    559.024    568.025    559.772    559.024    559.024
 36.570    548.466    567.953    -19.487    558.575    567.187    559.341    558.575    558.575
 36.670    509.397    567.206    -57.809    558.127    566.414    558.919    558.127    558.127
 36.770    558.000    566.528     -8.528    557.681    565.702    558.507    557.681    557.681
 36.870    585.287    565.921     19.367    557.236    565.050    558.107    557.236    557.236
 36.970    521.467    565.391    -43.924    556.793    564.463    557.722    556.793    556.793
 37.070    538.679    564.963    -26.285    556.352    563.959    557.356    556.352    556.352
 37.170    542.000    564.698    -22.698    555.913    563.591    557.019    555.913    555.913
 37.270    592.000    564.734     27.266    555.475    563.484    556.725    555.475    555.475
 37.370    540.324    565.345    -25.021    555.038    563.877    556.507    555.038    555.038
 37.470    575.000    566.939      8.061    554.604    565.123    556.421    554.604    554.604
 37.570    564.000    569.932     -5.932    554.171    567.540    556.564    554.171    554.171
 37.670    549.893    574.435    -24.542    553.740    571.106    557.071    553.740    553.740
 37.770    533.905    579.843    -45.938    553.310    575.073    558.084    553.310    553.310
 37.870    595.000    584.629     10.371    552.883    577.834    559.684    552.883    552.883
 37.970    553.000    587.071    -34.071    552.457    577.756    561.779    552.457    552.457
 38.070    532.000    586.668    -54.668    552.033    574.749    563.960    552.033    552.033
 38.170    553.000    584.086    -31.086    551.611    570.286    565.421    551.611    551.611
 38.270    503.000    579.962    -76.962    551.191    565.871    565.291    551.191    551.191
 38.370    588.030    574.884     13.146    550.772    562.267    563.398    550.772    550.772
 38.470    546.000    569.752    -23.752    550.356    559.641    560.474    550.356    550.356
 38.570    599.977    565.309     34.667    549.941    557.826    557.430    549.941    549.941
 38.670    550.000    561.828    -11.828    549.528    556.559    554.802    549.528    549.528
 38.770    537.000    559.263    -22.263    549.118    555.622    552.761    549.118    549.118
 38.870    539.638    557.436    -17.798    548.709    554.882    551.264    548.709    548.709
 38.970    575.826    556.135     19.691    548.302    554.262    550.176    548.302    548.302
 39.070    552.947    555.176     -2.229    547.897    553.718    549.355    547.897    547.897
 39.170    577.000    554.420     22.580    547.494    553.223    548.691    547.494    547.494
 39.270    575.000    553.785     21.215    547.093    552.762    548.116    547.093    547.093
 39.370    556.000    553.223      2.777    546.693    552.325    547.592    546.693    546.693
 39.470    523.725    552.710    -28.985    546.296    551.908    547.099    546.296    546.296
 39.570    514.000    552.234    -38.234    545.901    551.508    546.629    545.901    545.901
 39.670    548.000    551.787     -3.787    545.508    551.122    546.174    545.508    545.508
 39.770    500.000    551.365    -51.365    545.118    550.751    545.732    545.118    545.118
 39.870    531.000    550.964    -19.964    544.729    550.392    545.301    544.729    544.729
 39.970    540.422    550.583    -10.161    544.342    550.047    544.878    544.342    544.342
 40.070    521.000    550.220    -29.220    543.957    549.715    544.463    543.957    543.957
 40.170    554.000    549.874      4.126    543.575    549.396    544.054    543.575    543.575
 40.270    495.000    549.547    -54.547    543.194    549.091    543.650    543.194    543.194
 40.370    504.452    549.237    -44.784    542.816    548.801    543.252    542.816    542.816
 40.470    519.000    548.945    -29.945    542.439    548.526    542.859    542.439    542.439
 40.570    507.000    548.673    -41.673    542.065    548.269    542.470    542.065    542.065
 40.670    601.535    548.422     53.113    541.693    548.031    542.085    541.693    541.693
 40.770    505.868    548.194    -42.326    541.324    547.815    541.704    541.324    541.324
 40.870    550.725    547.993      2.732    540.956    547.623    541.327    540.956    540.956
 40.970    513.802    547.821    -34.019    540.591    547.460    540.953    540.591    540.591
 41.070    529.000    547.684    -18.684    540.227    547.330    540.583    540.227    540.227
 41.170    532.000    547.588    -15.588    539.866    547.240    540.216    539.866    539.866
 41.270    514.000    547.541    -33.541    539.508    547.197    539.853    539.508    539.508
 41.370    581.363    547.554     33.808    539.151    547.213    539.493    539.151    539.151
 41.470    507.000    547.641    -40.641    538.797    547.302    539.137    538.797    538.797
 41.570    518.000    547.822    -29.822    538.445    547.484    538.785    538.445    538.445
 41.670    536.000    548.129    -12.129    538.095    547.789    538.438    538.095    538.095
 41.770    502.769    548.614    -45.845    537.747    548.269    538.095    537.747    537.747
 41.870    522.000    549.375    -27.375    537.402    549.023    537.757    537.402    537.402
 41.970    555.000    550.603      4.397    537.059    550.237    537.429    537.059    537.059
 42.070    569.000    552.653     16.347    536.718    552.264    537.112    536.718    536.718
 42.170    573.039    556.132     16.907    536.380    555.703    536.816    536.380    536.380
 42.270    531.000    561.932    -30.932    536.044    561.435    536.550    536.044    536.044
 42.370    592.351    571.118     21.233    535.710    570.514    536.327    535.710    535.710
 42.470    564.000    584.579    -20.579    535.378    583.819    536.159    535.378    535.378
 42.570    560.000    602.425    -42.425    535.049    601.458    536.046    535.049    535.049
 42.670    584.000    623.163    -39.163    534.722    621.955    535.970    534.722    534.722
 42.770    606.100    642.795    -36.695    534.398    641.360    535.884    534.398    534.398
 42.870    679.739    654.908     24.831    534.075    653.334    535.710    534.075    534.075
 42.970    666.030    654.040     11.991    533.756    652.477    535.381    533.756    533.756
 43.070    601.000    640.521    -39.521    533.438    639.114    534.902    533.438    533.438
 43.170    651.000    620.106     30.894    533.123    618.933    534.342    533.123    533.123
 43.270    543.000    599.038    -56.038    532.810    598.107    533.777    532.810    532.810
 43.370    577.000    581.069     -4.069    532.500    580.343    533.251    532.500    532.500
 43.470    569.777    567.520      2.258    532.192    566.947    532.782    532.192    532.192
 43.570    565.000    558.187      6.813    531.886    557.719    532.366    531.886    531.886
 43.670    550.589    552.148     -1.559    531.583    551.747    531.992    531.583    531.583
 43.770    511.821    548.345    -36.524    531.282    547.985    531.648    531.282    531.282
 43.870    521.000    545.911    -24.911    530.983    545.576    531.322    530.983    530.983
 43.970    548.000    544.264      3.736    530.687    543.946    531.009    530.687    530.687
 44.070    594.948    543.067     51.881    530.394    542.759    530.704    530.394    530.394
 44.170    525.768    542.138    -16.369    530.102    541.838    530.405    530.102    530.102
 44.270    572.349    541.386     30.963    529.814    541.091    530.110    529.814    529.814
 44.370    572.000    540.760     31.240    529.527    540.470    529.819    529.527    529.527
 44.470    559.000    540.232     18.768    529.243    539.944    529.532    529.243    529.243
 44.570    531.000    539.781     -8.781    528.962    539.495    529.249    528.962    528.962
 44.670    486.969    539.395    -52.426    528.682    539.110    528.968    528.682    528.682
 44.770    515.176    539.063    -23.888    528.406    538.779    528.691    528.406    528.406
 44.870    512.000    538.779    -26.779    528.131    538.494    528.418    528.131    528.131
 44.970    493.611    538.537    -44.926    527.860    538.250    528.147    527.860    527.860
 45.070    500.873    538.332    -37.459    527.590    538.043    527.879    527.590    527.590
 45.170    520.000    538.162    -18.162    527.323    537.870    527.615    527.323    527.323
 45.270    480.428    538.024    -57.597    527.059    537.730    527.353    527.059    527.059
 45.370    548.000    537.919     10.081    526.797    537.621    527.095    526.797    526.797
 45.470    518.000    537.844    -19.844    526.537    537.542    526.840    526.537    526.537
 45.570    565.163    537.801     27.362    526.280    537.493    526.587    526.280    526.280
 45.670    531.000    537.788     -6.788    526.025    537.475    526.338    526.025    526.025
 45.770    560.000    537.809     22.191    525.773    537.489    526.092    525.773    525.773
 45.870    584.133    537.863     46.269    525.523    537.537    525.849    525.523    525.523
 45.970    575.339    537.954     37.385    525.275    537.620    525.609    525.275    525.275
 46.070    580.023    538.084     41.939    525.031    537.741    525.373    525.031    525.031
 46.170    484.420    538.257    -53.837    524.788    537.904    525.140    524.788    524.788
 46.270    575.903    538.477     37.426    524.548    538.113    524.911    524.548    524.548
 46.370    498.763    538.750    -39.987    524.311    538.374    524.686    524.311    524.311
 46.470    543.000    539.084      3.916    524.075    538.694    524.464    524.075    524.075
 46.570    489.000    539.487    -50.487    523.843    539.082    524.246    523.843    523.843
 46.670    541.000    539.972      1.028    523.613    539.550    524.033    523.613    523.613
 46.770    549.000    540.557      8.443    523.385    540.116    523.824    523.385    523.385
 46.870    562.000    541.268     20.732    523.160    540.804    523.621    523.160    523.160
 46.970    506.163    542.150    -35.988    522.937    541.660    523.424    522.937    522.937
 47.070    602.000    543.287     58.713    522.716    542.766    523.235    522.716    522.716
 47.170    599.000    544.832     54.168    522.499    544.269    523.057    522.499    522.499
 47.270    525.000    547.046    -22.046    522.283    546.428    522.896    522.283    522.283
 47.370    580.000    550.343     29.657    522.070    549.646    522.759    522.070    522.070
 47.470    553.785    555.280     -1.495    521.860    554.470    522.659    521.860    521.860
 47.570    588.637    562.467     26.170    521.651    561.496    522.606    521.651    521.651
 47.670    562.000    572.352    -10.352    521.446    571.163    522.612    521.446    521.446
 47.770    620.360    584.900     35.460    521.243    583.438    522.674    521.243    521.243
 47.870    656.000    599.194     56.806    521.042    597.421    522.775    521.042    521.042
 47.970    629.000    613.042     15.958    520.844    610.967    522.871    520.844    520.844
 48.070    639.000    623.018     15.982    520.648    620.719    522.893    520.648    520.648
 48.170    662.000    625.892     36.108    520.454    623.515    522.779    520.454    520.454
 48.270    606.338    621.120    -14.783    520.263    618.821    522.516    520.263    520.263
 48.370    563.757    611.439    -47.682    520.075    609.315    522.160    520.075    520.075
 48.470    582.000    600.577    -18.577    519.889    598.648    521.787    519.889    519.889
 48.570    574.000    591.247    -17.247    519.705    589.478    521.452    519.705    519.705
 48.670    584.000    584.808     -0.808    519.524    583.134    521.182    519.524    519.524
 48.770    542.000    581.635    -39.635    519.345    579.982    520.987    519.345    519.345
 48.870    597.000    581.541     15.459    519.168    579.836    520.865    519.168    519.168
 48.970    555.000    584.149    -29.149    518.994    582.326    520.810    518.994    518.994
 49.070    616.581    589.183     27.398    518.823    587.179    520.821    518.823    518.823
 49.170    578.000    596.702    -18.702    518.654    594.445    520.905    518.654    518.654
 49.270    635.000    607.349     27.651    518.487    604.744    521.085    518.487    518.487
 49.370    579.000    622.770    -43.770    518.323    619.668    521.416    518.323    518.323
 49.470    584.000    646.346    -62.346    518.161    642.488    522.006    518.161    518.161
 49.570    699.549    684.190     15.358    518.001    679.120    523.051    518.001    518.001
 49.670    685.000    746.023    -61.023    517.844    738.974    524.860    517.844    517.844
 49.770    801.000    845.008    -44.008    517.689    834.795    527.852    517.689    517.689
 49.870    934.000    995.355    -61.355    517.537    980.340    532.478    517.537    517.537
 49.970   1129.509   1206.953    -77.444    517.386   1185.189    539.054    517.386    517.386
 50.070   1389.772   1477.492    -87.719    517.239   1447.111    547.505    517.239    517.239
 50.170   1770.000   1783.444    -13.444    517.093   1743.339    557.084    517.093    517.093
 50.270   1971.900   2072.321   -100.421    516.950   2023.068    566.121    516.950    516.950
 50.370   2302.926   2265.619     37.307    516.810   2210.296    572.117    516.810    516.810
 50.470   2384.000   2291.741     92.259    516.672   2235.690    572.791    516.672    516.672
 50.570   2218.000   2139.537     78.463    516.536   2088.424    567.780    516.536    516.536
 50.670   1806.000   1869.535    -63.535    516.402   1827.094    558.998    516.402    516.402
 50.770   1489.000   1564.812    -75.812    516.271   1532.162    549.070    516.271    516.271
 50.870   1159.000   1286.995   -127.995    516.142   1263.328    539.934    516.142    516.142
 50.970   1033.909   1067.203    -33.294    516.015   1050.754    532.564    516.015    516.015
 51.070    801.000    912.434   -111.434    515.891    901.219    527.183    515.891    515.891
 51.170    813.485    814.144     -0.659    515.769    806.423    523.552    515.769    515.769
 51.270    816.240    756.263     59.977    515.649    750.727    521.239    515.649    515.649
 51.370    698.000    721.577    -23.577    515.532    717.349    519.809    515.532    515.532
 51.470    629.000    696.395    -67.395    515.417    692.925    518.931    515.417    515.417
 51.570    648.000    673.389    -25.389    515.304    670.340    518.392    515.304    515.304
 51.670    656.000    651.160      4.840    515.194    648.313    518.071    515.194    515.194
 51.770    600.630    631.053    -30.423    515.085    628.262    517.900    515.085    515.085
 51.870    570.552    614.509    -43.958    514.979    611.677    517.829    514.979    514.979
 51.970    644.179    602.121     42.058    514.876    599.204    517.804    514.876    514.876
 52.070    633.212    593.629     39.583    514.774    590.654    517.757    514.774    514.774
 52.170    557.097    588.274    -31.178    514.675    585.343    517.612    514.675    514.675
 52.270    669.000    585.244     83.756    514.578    582.492    517.334    514.578    514.578
 52.370    582.000    583.971     -1.971    514.483    581.506    516.952    514.483    514.483
 52.470    562.000    584.233    -22.233    514.390    582.094    516.533    514.390    514.390
 52.570    579.000    586.147     -7.147    514.300    584.317    516.133    514.300    514.300
 52.670    609.000    590.236     18.764    514.212    588.662    515.789    514.212    514.212
 52.770    649.000    597.603     51.397    514.126    596.212    515.518    514.126    514.126
 52.870    649.000    610.178     38.822    514.042    608.892    515.330    514.042    514.042
 52.970    671.000    630.949     40.051    513.960    629.680    515.230    513.960    513.960
 53.070    651.000    663.912    -12.912    513.881    662.567    515.226    513.881    513.881
 53.170    752.000    713.495     38.505    513.804    711.969    515.329    513.804    513.804
 53.270    837.925    783.244     54.682    513.728    781.423    515.548    513.728    513.728
 53.370    889.000    873.858     15.142    513.655    871.631    515.883    513.655    513.655
 53.470   1031.000    980.857     50.143    513.585    978.137    516.306    513.585    513.585
 53.570   1161.000   1092.153     68.847    513.516   1088.919    516.757    513.516    513.516
 53.670   1237.000   1186.578     50.422    513.449   1182.911    517.130    513.449    513.449
 53.770   1216.000   1237.676    -21.676    513.385   1233.791    517.294    513.385    513.385
 53.870   1234.000   1227.461      6.539    513.322   1223.658    517.160    513.322    513.322
 53.970   1163.550   1160.157      3.394    513.262   1156.711    516.748    513.262    513.262
 54.070   1027.000   1058.403    -31.403    513.203   1055.478    516.169    513.203    513.203
 54.170    931.355    947.641    -16.285    513.147    945.275    515.549    513.147    513.147
 54.270    761.000    846.009    -85.009    513.093    844.154    514.977    513.093    513.093
 54.370    723.000    762.884    -39.884    513.041    761.449    514.498    513.041    513.041
 54.470    650.522    700.817    -50.295    512.991    699.697    514.126    512.991    512.991
 54.570    684.000    657.955     26.045    512.943    657.058    513.852    512.943    512.943
 54.670    596.651    630.297    -33.645    512.897    629.548    513.654    512.897    512.897
 54.770    642.000    613.461     28.539    512.853    612.809    513.511    512.853    512.853
 54.870    664.000    603.756     60.244    512.811    603.166    513.405    512.811    512.811
 54.970    639.281    598.555     40.726    512.771    598.006    513.322    512.771    512.771
 55.070    571.064    596.217    -25.153    512.733    595.698    513.255    512.733    512.733
 55.170    624.000    595.836     28.164    512.697    595.337    513.198    512.697    512.697
 55.270    645.000    596.965     48.035    512.663    596.482    513.148    512.663    512.663
 55.370    572.435    599.435    -27.000    512.630    598.963    513.104    512.630    512.630
 55.470    562.000    603.243    -41.243    512.600    602.779    513.065    512.600    512.600
 55.570    643.000    608.523     34.477    512.572    608.064    513.032    512.572    512.572
 55.670    586.000    615.572    -29.572    512.545    615.116    513.002    512.545    512.545
 55.770    658.000    624.950     33.050    512.521    624.494    512.977    512.521    512.521
 55.870    679.946    637.692     42.255    512.498    637.232    512.957    512.498    512.498
 55.970    662.000    655.656      6.344    512.477    655.191    512.940    512.477    512.477
 56.070    685.710    682.031      3.679    512.459    681.555    512.928    512.459    512.459
 56.170    673.000    721.901    -48.901    512.442    721.410    512.921    512.442    512.442
 56.270    773.365    782.639     -9.274    512.426    782.128    512.920    512.426    512.426
 56.370    893.029    873.692     19.336    512.413    873.154    512.924    512.413    512.413
 56.470   1008.450   1005.289      3.160    512.402   1004.718    512.936    512.402    512.402
 56.570   1116.249   1185.775    -69.526    512.392   1185.166    512.955    512.392    512.392
 56.670   1384.000   1417.721    -33.721    512.384   1417.076    512.981    512.384    512.384
 56.770   1605.120   1693.318    -88.197    512.378   1692.653    513.003    512.378    512.378
 56.870   2023.052   1989.622     33.430    512.373   1988.938    513.042    512.373    512.373
 56.970   2265.000   2264.380      0.620    512.371   2263.693    513.090    512.371    512.371
 57.070   2476.000   2458.157     17.843    512.370   2457.484    513.142    512.370    512.370
 57.170   2545.410   2513.899     31.511    512.371   2513.244    513.193    512.371    512.371
 57.270   2453.286   2412.341     40.945    512.374   2411.683    513.246    512.374    512.374
 57.370   2164.000   2187.852    -23.852    512.378   2187.153    513.303    512.378    512.378
 57.470   1865.000   1902.507    -37.507    512.384   1901.730    513.372    512.384    512.384
 57.570   1489.000   1611.945   -122.945    512.392   1611.054    513.462    512.392    512.392
 57.670   1286.000   1352.143    -66.143    512.401   1351.104    513.582    512.401    512.401
 57.770   1044.000   1140.807    -96.807    512.412   1139.573    513.752    512.412    512.412
 57.870    887.000    982.188    -95.188    512.425    980.688    513.999    512.425    512.425
 57.970    830.572    871.981    -41.409    512.439    870.096    514.373    512.439    512.439
 58.070    734.399    801.858    -67.459    512.455    799.394    514.949    512.455    512.455
 58.170    820.587    763.091     57.496    512.473    759.749    515.832    512.473    512.473
 58.270    711.171    748.771    -37.600    512.492    744.121    517.146    512.492    512.492
 58.370    738.588    754.525    -15.938    512.513    748.018    519.015    512.513    512.513
 58.470    782.000    778.103      3.897    512.535    769.107    521.518    512.535    512.535
 58.570    844.870    818.286     26.585    512.559    806.187    524.636    512.559    512.559
 58.670    858.000    873.522    -15.522    512.585    857.876    528.202    512.585    512.585
 58.770    964.000    940.506     23.494    512.612    921.241    531.844    512.612    512.612
 58.870    971.000   1013.136    -42.136    512.640    990.771    534.974    512.640    512.640
 58.970   1074.000   1083.233     -9.233    512.670   1058.951    536.927    512.670    512.670
 59.070   1157.000   1143.686     13.314    512.702   1119.072    537.302    512.702    512.702
 59.170   1222.000   1190.465     31.535    512.735   1166.998    536.200    512.735    512.735
 59.270   1159.065   1220.368    -61.303    512.769   1199.094    534.053    512.769    512.769
 59.370   1225.056   1229.629     -4.573    512.805   1211.178    531.274    512.805    512.805
 59.470   1247.219   1218.530     28.688    512.842   1203.184    528.208    512.842    512.842
 59.570   1308.000   1195.448    112.552    512.881   1183.158    525.181    512.881    512.881
 59.670   1143.416   1172.990    -29.574    512.921   1163.428    522.472    512.921    512.921
 59.770   1222.000   1161.383     60.617    512.963   1154.058    520.245    512.963    512.963
 59.870   1203.000   1166.330     36.670    513.006   1160.713    518.541    513.006    513.006
 59.970   1227.000   1191.072     35.928    513.050   1186.676    517.323    513.050    513.050
 60.070   1198.157   1237.860    -39.703    513.096   1234.277    516.513    513.096    513.096
 60.170   1344.000   1305.636     38.364    513.143   1302.556    516.019    513.143    513.143
 60.270   1523.000   1386.265    136.735    513.191   1383.475    515.748    513.191    513.191
 60.370   1534.592   1462.632     71.960    513.241   1460.014    515.612    513.241    513.241
 60.470   1668.000   1510.679    157.321    513.292   1508.200    515.533    513.292    513.292
 60.570   1589.000   1508.099     80.901    513.344   1505.783    515.451    513.344    513.344
 60.670   1504.000   1447.417     56.583    513.398   1445.309    515.337    513.398    513.398
 60.770   1335.000   1341.063     -6.063    513.453   1339.196    515.192    513.453    513.453
 60.870   1239.000   1212.095     26.905    513.509   1210.473    515.036    513.509    513.509
 60.970   1046.000   1082.040    -36.040    513.566   1080.647    514.892    513.566    513.566
 61.070    924.000    965.712    -41.712    513.624    964.516    514.773    513.624    513.624
 61.170    850.000    871.282    -21.282    513.684    870.242    514.688    513.684    513.684
 61.270    826.000    801.883     24.117    513.745    800.957    514.641    513.745    513.745
 61.370    768.201    757.459     10.742    513.807    756.605    514.631    513.807    513.807
 61.470    762.000    736.581     25.419    513.870    735.760    514.657    513.870    513.870
 61.570    712.458    737.934    -25.476    513.934    737.108    514.720    513.934    513.934
 61.670    731.000    761.092    -30.092    514.000    760.220    514.819    514.000    514.000
 61.770    833.000    806.423     26.577    514.066    805.463    514.958    514.066    514.066
 61.870    846.000    874.188    -28.188    514.134    873.097    515.136    514.134    514.134
 61.970    967.789    963.123      4.665    514.203    961.860    515.354    514.203    514.203
 62.070   1035.000   1068.850    -33.850    514.272   1067.383    515.604    514.272    514.272
 62.170   1136.000   1182.340    -46.340    514.343   1180.658    515.869    514.343    514.343
 62.270   1343.000   1288.694     54.306    514.415   1286.816    516.126    514.415    514.415
 62.370   1360.000   1367.561     -7.561    514.488   1365.546    516.338    514.488    514.488
 62.470   1311.000   1398.494    -87.494    514.562   1396.442    516.470    514.562    514.562
 62.570   1370.368   1371.703     -1.335    514.637   1369.723    516.505    514.637    514.637
 62.670   1230.000   1294.836    -64.836    514.712   1293.016    516.458    514.712    514.712
 62.770   1149.220   1187.399    -38.179    514.789   1185.783    516.362    514.789    514.789
 62.870   1039.000   1069.931    -30.931    514.867   1068.524    516.252    514.867    514.867
 62.970   1023.488    957.869     65.620    514.946    956.650    516.156    514.946    514.946
 63.070    859.546    860.552     -1.006    515.025    859.486    516.090    515.025    515.025
 63.170    740.000    782.171    -42.171    515.106    781.214    516.063    515.106    515.106
 63.270    690.000    723.082    -33.082    515.187    722.193    516.076    515.187    515.187
 63.370    672.321    681.189     -8.868    515.269    680.329    516.126    515.269    515.269
 63.470    639.186    653.268    -14.081    515.352    652.403    516.212    515.352    515.352
 63.570    666.000    636.041     29.959    515.436    635.139    516.330    515.436    515.436
 63.670    664.000    626.883     37.117    515.521    625.908    516.485    515.521    515.521
 63.770    680.672    624.156     56.516    515.606    623.064    516.684    515.606    515.606
 63.870    673.489    627.271     46.218    515.693    626.001    516.945    515.693    515.693
 63.970    665.000    636.563     28.437    515.780    635.025    517.294    515.780    515.780
 64.070    680.000    653.040     26.960    515.867    651.107    517.769    515.867    515.867
 64.170    712.000    678.034     33.966    515.956    675.531    518.418    515.956    515.956
 64.270    701.000    712.731    -11.731    516.045    709.429    519.293    516.045    516.045
 64.370    759.266    757.618      1.648    516.135    753.246    520.438    516.135    516.135
 64.470    865.000    811.875     53.125    516.226    806.137    521.878    516.226    516.226
 64.570    842.000    872.761    -30.761    516.317    865.374    523.601    516.317    516.317
 64.670    958.000    935.070     22.930    516.409    925.825    525.536    516.409    516.409
 64.770   1035.401    991.045     44.357    516.502    979.880    527.541    516.502    516.502
 64.870   1165.000   1031.624    133.376    516.595   1018.700    529.395    516.595    516.595
 64.970   1065.620   1049.473     16.146    516.689   1035.226    530.822    516.689    516.689
 65.070   1088.000   1042.146     45.854    516.784   1027.280    531.554    516.784    516.784
 65.170    944.378   1012.864    -68.486    516.879    998.240    531.430    516.879    516.879
 65.270    977.000    968.747      8.253    516.975    955.182    530.492    516.975    516.975
 65.370    904.754    918.047    -13.293    517.071    906.124    528.968    517.071    517.071
 65.470    898.449    867.663     30.786    517.167    857.663    527.161    517.167    517.167
 65.570    807.749    821.759    -14.010    517.265    813.698    525.336    517.265    517.265
 65.670    776.478    781.688     -5.210    517.363    775.397    523.674    517.363    517.363
 65.770    723.000    746.932    -23.932    517.461    742.142    522.277    517.461    517.461
 65.870    698.000    716.547    -18.547    517.560    712.952    521.182    517.560    517.560
 65.970    675.000    690.153    -15.153    517.659    687.461    520.375    517.659    517.659
 66.070    697.248    667.890     29.359    517.758    665.850    519.818    517.758    517.758
 66.170    627.000    649.941    -22.941    517.858    648.355    519.458    517.858    517.858
 66.270    679.226    636.295     42.930    517.959    635.020    519.244    517.959    517.959
 66.370    605.000    626.739    -21.739    518.060    625.674    519.129    518.060    518.060
 66.470    614.000    620.914     -6.914    518.161    619.995    519.081    518.161    518.161
 66.570    608.837    618.402     -9.565    518.263    617.588    519.077    518.263    518.263
 66.670    607.000    618.825    -11.825    518.364    618.089    519.101    518.364    518.364
 66.770    581.000    621.985    -40.985    518.467    621.308    519.144    518.467    518.467
 66.870    624.000    628.002     -4.002    518.569    627.370    519.201    518.569    518.569
 66.970    677.000    637.431     39.569    518.672    636.833    519.271    518.672    518.672
 67.070    590.234    651.483    -61.249    518.775    650.907    519.351    518.775    518.775
 67.170    628.000    672.229    -44.229    518.879    671.662    519.445    518.879    518.879
 67.270    732.000    702.796     29.204    518.982    702.223    519.553    518.982    518.982
 67.370    693.000    747.473    -54.473    519.086    746.875    519.679    519.086    519.086
 67.470    818.000    811.580      6.420    519.190    810.933    519.830    519.190    519.190
 67.570    835.000    900.956    -65.956    519.295    900.231    520.010    519.295    519.295
 67.670   1037.904   1020.977     16.926    519.399   1020.141    520.224    519.399    519.399
 67.770   1133.944   1175.114    -41.170    519.504   1174.133    520.477    519.504    519.504
 67.870   1293.000   1363.197    -70.197    519.609   1362.039    520.768    519.609    519.609
 67.970   1602.000   1579.610     22.390    519.714   1578.253    521.090    519.714    519.714
 68.070   1811.000   1811.588     -0.588    519.819   1810.026    521.430    519.819    519.819
 68.170   2002.000   2037.845    -35.845    519.924   2036.095    521.765    519.924    519.924
 68.270   2257.000   2228.607     28.393    520.029   2226.718    522.064    520.029    520.029
 68.370   2256.350   2349.950    -93.601    520.134   2348.001    522.290    520.134    520.134
 68.470   2391.420   2375.021     16.399    520.240   2373.107    522.414    520.240    520.240
 68.570   2284.000   2297.565    -13.565    520.345   2295.775    522.431    520.345    520.345
 68.670   2124.000   2135.803    -11.803    520.451   2134.200    522.359    520.451    520.451
 68.770   2021.326   1922.266     99.059    520.556   1920.880    522.233    520.556    520.556
 68.870   1634.066   1689.881    -55.815    520.661   1688.715    522.088    520.661    520.661
 68.970   1419.000   1464.216    -45.216    520.767   1463.253    521.950    520.767    520.767
 69.070   1216.000   1261.929    -45.929    520.872   1261.143    521.837    520.872    520.872
 69.170   1048.000   1091.794    -43.794    520.978   1091.152    521.758    520.978    520.978
 69.270   1013.735    956.313     57.421    521.083    955.784    521.717    521.083    521.083
 69.370    829.000    853.495    -24.495    521.188    853.049    521.710    521.188    521.188
 69.470    827.000    778.636     48.364    521.293    778.251    521.734    521.293    521.293
 69.570    705.000    725.938    -20.938    521.398    725.594    521.781    521.398    521.398
 69.670    680.000    689.712     -9.712    521.503    689.397    521.846    521.503    521.503
 69.770    688.000    665.106     22.894    521.607    664.811    521.923    521.607    521.607
 69.870    697.000    648.390     48.610    521.712    648.108    522.009    521.712    521.712
 69.970    648.000    636.923     11.077    521.816    636.650    522.100    521.816    521.816
 70.070    614.000    628.962    -14.962    521.920    628.695    522.196    521.920    521.920
 70.170    609.000    623.425    -14.425    522.024    623.162    522.294    522.024    522.024
 70.270    641.000    619.677     21.323    522.128    619.416    522.394    522.128    522.128
 70.370    635.609    617.373     18.236    522.231    617.111    522.495    522.231    522.231
 70.470    594.000    616.360    -22.360    522.335    616.097    522.599    522.335    522.335
 70.570    601.000    616.634    -15.634    522.437    616.366    522.704    522.437    522.437
 70.670    561.242    618.335    -57.093    522.540    618.062    522.811    522.540    522.540
 70.770    599.000    621.793    -22.793    522.642    621.510    522.920    522.642    522.642
 70.870    636.715    627.598      9.118    522.744    627.302    523.033    522.744    522.744
 70.970    661.000    636.713     24.287    522.846    636.398    523.150    522.846    522.846
 71.070    661.000    650.597     10.403    522.947    650.253    523.275    522.947    522.947
 71.170    714.000    671.310     42.690    523.048    670.925    523.411    523.048    523.048
 71.270    738.599    701.560     37.039    523.149    701.116    523.562    523.149    523.149
 71.370    740.000    744.603     -4.603    523.249    744.075    523.732    523.249    523.249
 71.470    793.000    803.944    -10.944    523.349    803.303    523.929    523.349    523.349
 71.570    936.362    882.795     53.567    523.448    882.006    524.156    523.448    523.448
 71.670    946.159    983.306    -37.147    523.547    982.330    524.418    523.547    523.547
 71.770   1120.000   1105.650     14.350    523.645   1104.450    524.714    523.645    523.645
 71.870   1265.000   1247.083     17.917    523.743   1245.627    525.041    523.743    523.743
 71.970   1469.310   1401.056     68.253    523.840   1399.327    525.387    523.840    523.840
 72.070   1561.333   1556.472      4.861    523.937   1554.471    525.737    523.937    523.937
 72.170   1664.000   1697.350    -33.350    524.034   1695.110    526.064    524.034    524.034
 72.270   1887.681   1804.015     83.666    524.130   1801.604    526.337    524.130    524.130
 72.370   1863.000   1857.454      5.546    524.225   1854.971    526.526    524.225    524.225
 72.470   1867.000   1846.578     20.422    524.320   1844.136    526.613    524.320    524.320
 72.570   1810.000   1773.717     36.283    524.414   1771.417    526.603    524.414    524.414
 72.670   1737.000   1653.318     83.682    524.507   1651.231    526.519    524.507    524.507
 72.770   1512.000   1505.200      6.800    524.600   1503.362    526.390    524.600    524.600
 72.870   1413.211   1348.060     65.151    524.693   1346.478    526.248    524.693    524.693
 72.970   1188.000   1196.305     -8.305    524.784   1194.965    526.113    524.784    524.784
 73.070   1036.000   1059.500    -23.500    524.875   1058.373    526.000    524.875    524.875
 73.170   1003.000    942.875     60.125    524.966    941.926    525.917    524.966    524.966
 73.270    860.673    848.135     12.538    525.055    847.330    525.864    525.055    525.055
 73.370    790.000    774.381     15.619    525.144    773.685    525.843    525.144    525.144
 73.470    654.840    719.054    -64.213    525.233    718.440    525.849    525.233    525.233
 73.570    617.091    678.813    -61.721    525.320    678.253    525.881    525.320    525.320
 73.670    634.946    650.227    -15.280    525.407    649.700    525.934    525.407    525.407
 73.770    681.882    630.237     51.645    525.493    629.721    526.009    525.493    525.493
 73.870    610.590    616.382     -5.792    525.578    615.858    526.104    525.578    525.578
 73.970    656.000    606.841     49.159    525.663    606.288    526.219    525.663    525.663
 74.070    581.704    600.358    -18.654    525.747    599.753    526.356    525.747    525.747
 74.170    641.000    596.109     44.891    525.829    595.428    526.517    525.829    525.829
 74.270    619.000    593.564     25.436    525.911    592.783    526.703    525.911    525.911
 74.370    619.000    592.367     26.633    525.993    591.462    526.913    525.993    525.993
 74.470    542.038    592.234    -50.196    526.073    591.183    527.144    526.073    526.073
 74.570    704.000    592.889    111.111    526.153    591.679    527.389    526.153    526.153
 74.670    669.000    594.019     74.981    526.231    592.644    527.637    526.231    526.231
 74.770    586.152    595.243     -9.090    526.309    593.713    527.875    526.309    526.309
 74.870    673.000    596.128     76.872    526.386    594.470    528.084    526.386    526.386
 74.970    600.858    596.253      4.605    526.462    594.511    528.247    526.462    526.462
 75.070    536.647    595.337    -58.691    526.536    593.566    528.351    526.536    526.536
 75.170    560.857    593.366    -32.509    526.610    591.621    528.397    526.610    526.610
 75.270    666.000    590.610     75.390    526.684    588.934    528.398    526.684    526.684
 75.370    650.000    587.531     62.469    526.756    585.945    528.375    526.756    526.756
 75.470    668.000    584.656     83.344    526.827    583.158    528.352    526.827    526.827
 75.570    663.000    582.506     80.494    526.897    581.072    528.351    526.897    526.897
 75.670    587.000    581.577      5.423    526.966    580.161    528.395    526.966    526.966
 75.770    683.000    582.346    100.654    527.034    580.884    528.503    527.034    527.034
 75.870    618.000    585.271     32.729    527.101    583.679    528.693    527.101    527.101
 75.970    602.000    590.771     11.229    527.167    588.950    528.982    527.167    527.167
 76.070    589.000    599.189    -10.189    527.231    597.025    529.382    527.231    527.231
 76.170    603.000    610.727     -7.727    527.295    608.101    529.901    527.295    527.295
 76.270    678.000    625.372     52.628    527.358    622.164    530.539    527.358    527.358
 76.370    621.023    642.810    -21.788    527.419    638.912    531.282    527.419    527.419
 76.470    617.169    662.345    -45.176    527.480    657.678    532.103    527.480    527.480
 76.570    745.926    682.828     63.098    527.539    677.356    532.960    527.539    527.539
 76.670    747.770    702.603     45.167    527.597    696.354    533.788    527.597    527.597
 76.770    737.000    719.530     17.470    527.654    712.615    534.507    527.654    527.654
 76.870    687.088    731.226    -44.137    527.710    723.847    535.025    527.710    527.710
 76.970    761.234    735.652     25.582    527.765    728.090    535.265    527.765    527.765
 77.070    772.117    731.903     40.214    527.818    724.472    535.192    527.818    527.818
 77.170    704.000    720.631    -16.631    527.870    713.620    534.831    527.870    527.870
 77.270    723.000    703.718     19.282    527.921    697.343    534.255    527.921    527.921
 77.370    704.000    683.514     20.486    527.971    677.899    533.551    527.971    527.971
 77.470    680.743    662.188     18.555    528.020    657.376    532.804    528.020    528.020
 77.570    658.053    641.442     16.611    528.067    637.411    532.078    528.067    528.067
 77.670    664.604    622.459     42.145    528.113    619.139    531.417    528.113    528.113
 77.770    637.156    605.941     31.216    528.158    603.237    530.850    528.158    528.158
 77.870    636.121    592.188     43.933    528.201    589.995    530.386    528.201    528.201
 77.970    618.076    581.182     36.894    528.243    579.393    530.027    528.243    528.243
 78.070    586.000    572.679     13.321    528.284    571.197    529.762    528.284    528.284
 78.170    556.000    566.313    -10.313    528.323    565.055    529.578    528.323    528.323
 78.270    538.000    561.671    -23.671    528.361    560.571    529.458    528.361    528.361
 78.370    577.000    558.351     18.649    528.398    557.358    529.389    528.398    528.398
 78.470    539.419    556.009    -16.591    528.434    555.084    529.357    528.434    528.434
 78.570    566.000    554.370     11.630    528.468    553.483    529.352    528.468    528.468
 78.670    579.000    553.227     25.773    528.500    552.360    529.366    528.500    528.500
 78.770    544.000    552.440     -8.440    528.532    551.575    529.395    528.532    528.532
 78.870    514.514    551.914    -37.400    528.562    551.041    529.434    528.562    528.562
 78.970    563.000    551.595     11.405    528.590    550.702    529.483    528.590    528.590
 79.070    557.000    551.456      5.544    528.617    550.532    529.540    528.617    528.617
 79.170    542.562    551.488     -8.926    528.643    550.523    529.607    528.643    528.643
 79.270    547.490    551.700     -4.211    528.667    550.682    529.684    528.667    528.667
 79.370    562.000    552.116      9.884    528.689    551.030    529.775    528.689    528.689
 79.470    577.245    552.768     24.477    528.711    551.595    529.883    528.711    528.711
 79.570    553.000    553.703     -0.703    528.730    552.416    530.015    528.730    528.730
 79.670    547.000    554.978     -7.978    528.749    553.544    530.181    528.749    528.749
 79.770    552.795    556.668     -3.873    528.765    555.038    530.393    528.765    528.765
 79.870    596.000    558.863     37.137    528.781    556.969    530.672    528.781    528.781
 79.970    554.752    561.682     -6.930    528.794    559.429    531.044    528.794    528.794
 80.070    610.433    565.270     45.163    528.807    562.529    531.543    528.807    528.807
 80.170    564.000    569.807     -5.807    528.817    566.405    532.214    528.817    528.817
 80.270    577.000    575.505      1.495    528.826    571.220    533.106    528.826    528.826
 80.370    589.000    582.605      6.395    528.834    577.162    534.272    528.834    528.834
 80.470    600.000    591.371      8.629    528.840    584.442    535.764    528.840    528.840
 80.570    549.272    602.079    -52.807    528.844    593.300    537.620    528.844    528.844
 80.670    643.122    614.999     28.123    528.847    603.986    539.859    528.847    528.847
 80.770    586.688    630.333    -43.645    528.849    616.716    542.466    528.849    528.849
 80.870    667.000    648.130     18.870    528.848    631.598    545.385    528.848    528.848
 80.970    687.000    668.182     18.818    528.846    648.538    548.500    528.846    528.846
 81.070    650.489    689.944    -39.455    528.843    667.164    551.637    528.843    528.843
 81.170    739.000    712.493     26.507    528.838    686.789    554.562    528.838    528.838
 81.270    689.000    734.585    -45.585    528.831    706.442    557.002    528.831    528.831
 81.370    715.000    754.838    -39.838    528.822    724.997    558.698    528.822    528.822
 81.470    835.098    771.982     63.116    528.812    741.368    559.468    528.812    528.812
 81.570    829.000    785.059     43.941    528.800    754.662    559.247    528.800    528.800
 81.670    848.738    793.475     55.263    528.787    764.232    558.086    528.787    528.787
 81.770    756.000    797.004    -41.004    528.772    769.713    556.125    528.772    528.772
 81.870    780.000    795.771    -15.771    528.755    771.023    553.570    528.755    528.755
 81.970    776.000    790.160    -14.160    528.736    768.307    550.661    528.736    528.736
 82.070    773.000    780.668     -7.668    528.716    761.821    547.636    528.716    528.716
 82.170    821.392    767.853     53.539    528.694    751.922    544.700    528.694    528.694
 82.270    693.682    752.410    -58.727    528.671    739.156    541.998    528.671    528.671
 82.370    678.446    735.206    -56.760    528.645    724.302    539.621    528.645    528.645
 82.470    694.000    717.157    -23.157    528.618    708.241    537.603    528.618    528.618
 82.570    709.000    699.025      9.975    528.589    691.742    535.937    528.589    528.589
 82.670    669.000    681.321    -12.321    528.559    675.350    534.590    528.559    528.559
 82.770    608.907    664.361    -55.455    528.527    659.432    533.511    528.527    528.527
 82.870    641.000    648.403     -7.403    528.492    644.295    532.650    528.492    528.492
 82.970    583.000    633.730    -50.730    528.457    630.271    531.958    528.457    528.457
 83.070    657.716    620.653     37.064    528.419    617.707    531.400    528.419    528.419
 83.170    531.000    609.441    -78.441    528.380    606.903    530.945    528.380    528.380
 83.270    514.000    600.282    -86.282    528.338    598.069    530.572    528.338    528.338
 83.370    596.000    593.268      2.732    528.296    591.310    530.266    528.296    528.296
 83.470    588.000    588.399     -0.399    528.251    586.639    530.015    528.251    528.251
 83.570    611.265    585.592     25.674    528.204    583.982    529.811    528.204    528.204
 83.670    636.950    584.686     52.264    528.156    583.185    529.647    528.156    528.156
 83.770    597.133    585.443     11.690    528.106    584.015    529.517    528.106    528.106
 83.870    538.524    587.544    -49.021    528.054    586.160    529.414    528.054    528.054
 83.970    591.068    590.592      0.476    528.000    589.229    529.333    528.000    528.000
 84.070    650.255    594.111     56.144    527.944    592.754    529.266    527.944    527.944
 84.170    656.759    597.558     59.202    527.887    596.199    529.206    527.887    527.887
 84.270    641.428    600.344     41.084    527.828    598.985    529.143    527.828    527.828
 84.370    594.000    601.916     -7.916    527.767    600.567    529.072    527.767    527.767
 84.470    589.000    601.868    -12.868    527.704    600.541    528.987    527.704    527.704
 84.570    571.409    600.054    -28.644    527.639    598.766    528.885    527.639    527.639
 84.670    594.000    596.624     -2.624    527.572    595.390    528.768    527.572    527.572
 84.770    571.000    591.956    -20.956    527.504    590.784    528.641    527.504    527.504
 84.870    574.000    586.518    -12.518    527.433    585.411    528.510    527.433    527.433
 84.970    640.657    580.767     59.890    527.361    579.721    528.381    527.361    527.361
 85.070    625.262    575.085     50.177    527.287    574.090    528.259    527.287    527.287
 85.170    595.843    569.765     26.078    527.211    568.805    528.153    527.211    527.211
 85.270    518.000    565.010    -47.010    527.133    564.061    528.067    527.133    527.133
 85.370    573.000    560.942     12.058    527.053    559.974    528.008    527.053    527.053
 85.470    521.000    557.615    -36.615    526.972    556.594    527.982    526.972    526.972
 85.570    521.000    555.026    -34.026    526.888    553.909    527.996    526.888    526.888
 85.670    560.000    553.134      6.866    526.803    551.873    528.056    526.803    526.803
 85.770    569.000    551.878     17.122    526.715    550.420    528.166    526.715    526.715
 85.870    500.284    551.193    -50.909    526.626    549.482    528.329    526.626    526.626
 85.970    592.205    551.019     41.186    526.535    548.998    528.547    526.535    526.535
 86.070    552.595    551.311      1.283    526.442    548.928    528.816    526.442    526.442
 86.170    526.000    552.049    -26.049    526.347    549.260    529.127    526.347    526.347
 86.270    526.000    553.236    -27.236    526.250    550.009    529.466    526.250    526.250
 86.370    578.000    554.899     23.101    526.151    551.225    529.813    526.151    526.151
 86.470    504.000    557.093    -53.093    526.051    552.987    530.140    526.051    526.051
 86.570    582.771    559.888     22.883    525.948    555.401    530.416    525.948    525.948
 86.670    553.000    563.373    -10.373    525.844    558.590    530.603    525.844    525.844
 86.770    566.000    567.644     -1.644    525.737    562.684    530.668    525.737    525.737
 86.870    569.758    572.799     -3.041    525.629    567.803    530.590    525.629    525.629
 86.970    583.000    578.903      4.097    525.519    574.017    530.362    525.519    525.519
 87.070    600.000    586.025     13.975    525.407    581.379    530.001    525.407    525.407
 87.170    610.000    594.216     15.784    525.293    589.909    529.539    525.293    525.293
 87.270    653.700    603.338     50.362    525.177    599.434    529.009    525.177    525.177
 87.370    582.495    613.161    -30.666    525.059    609.692    528.444    525.059    525.059
 87.470    617.000    623.315     -6.315    524.939    620.285    527.875    524.939    524.939
 87.570    664.527    633.278     31.249    524.817    630.669    527.322    524.817    524.817
 87.670    612.000    642.385    -30.385    524.693    640.165    526.803    524.693    524.693
 87.770    654.000    649.881      4.119    524.568    648.006    526.326    524.568    524.568
 87.870    694.000    655.030     38.970    524.440    653.454    525.898    524.440    524.440
 87.970    671.000    657.294     13.706    524.311    655.970    525.518    524.311    524.311
 88.070    675.000    656.491     18.509    524.180    655.375    525.185    524.180    524.180
 88.170    656.000    652.856      3.144    524.046    651.908    524.894    524.046    524.046
 88.270    673.252    646.963     26.289    523.911    646.146    524.640    523.911    523.911
 88.370    632.000    639.560     -7.560    523.774    638.843    524.416    523.774    523.774
 88.470    642.000    631.442     10.558    523.635    630.797    524.218    523.635    523.635
 88.570    624.971    623.356      1.615    523.494    622.761    524.041    523.494    523.494
 88.670    629.000    615.960     13.040    523.351    615.393    523.882    523.351    523.351
 88.770    647.000    609.786     37.214    523.206    609.230    523.738    523.206    523.206
 88.870    548.791    605.219    -56.428    523.060    604.658    523.607    523.060    523.060
 88.970    556.000    602.482    -46.482    522.911    601.902    523.488    522.911    522.911
 89.070    651.119    601.634     49.485    522.761    601.023    523.378    522.761    522.761
 89.170    572.992    602.574    -29.581    522.608    601.921    523.276    522.608    522.608
 89.270    624.000    605.052     18.948    522.454    604.351    523.178    522.454    522.454
 89.370    604.000    608.689     -4.689    522.298    607.935    523.083    522.298    522.298
 89.470    591.000    612.987    -21.987    522.140    612.180    522.985    522.140    522.140
 89.570    545.000    617.355    -72.355    521.980    616.499    522.881    521.980    521.980
 89.670    639.983    621.145     18.838    521.818    620.250    522.765    521.818    521.818
 89.770    632.000    623.722      8.278    521.654    622.801    522.631    521.654    521.654
 89.870    606.000    624.569    -18.569    521.489    623.640    522.477    521.489    521.489
 89.970    564.426    623.399    -58.974    521.321    622.482    522.299    521.321    521.321
 90.070    636.000    620.223     15.777    521.152    619.336    522.099    521.152    521.152
 90.170    630.000    615.317     14.683    520.980    614.477    521.879    520.980    520.980
 90.270    625.377    609.130     16.248    520.807    608.348    521.644    520.807    520.807
 90.370    566.000    602.162    -36.162    520.632    601.445    521.399    520.632    520.632
 90.470    594.000    594.886     -0.886    520.455    594.236    521.149    520.455    520.455
 90.570    575.000    587.700    -12.700    520.277    587.116    520.898    520.277    520.277
 90.670    568.730    580.916    -12.186    520.096    580.395    520.649    520.096    520.096
 90.770    534.260    574.759    -40.499    519.914    574.294    520.405    519.914    519.914
 90.870    567.000    569.370     -2.370    519.730    568.956    520.165    519.730    519.730
 90.970    561.000    564.822     -3.822    519.544    564.450    519.933    519.544    519.544
 91.070    537.000    561.126    -24.126    519.356    560.788    519.706    519.356    519.356
 91.170    580.000    558.250     21.750    519.166    557.940    519.486    519.166    519.166
 91.270    575.000    556.137     18.863    518.975    555.847    519.271    518.975    518.975
 91.370    510.000    554.714    -44.714    518.781    554.439    519.060    518.781    518.781
 91.470    606.293    553.916     52.377    518.586    553.649    518.854    518.586    518.586
 91.570    528.000    553.687    -25.687    518.389    553.425    518.651    518.389    518.389
 91.670    502.000    553.999    -51.999    518.190    553.736    518.452    518.190    518.190
 91.770    501.592    554.851    -53.259    517.990    554.583    518.255    517.990    517.990
 91.870    498.486    556.275    -57.788    517.788    555.996    518.062    517.788    517.788
 91.970    522.000    558.336    -36.336    517.584    558.042    517.872    517.584    517.584
 92.070    555.000    561.132     -6.132    517.378    560.816    517.686    517.378    517.378
 92.170    592.363    564.788     27.575    517.170    564.443    517.505    517.170    517.170
 92.270    545.000    569.451    -24.451    516.961    569.068    517.330    516.961    516.961
 92.370    547.013    575.277    -28.264    516.750    574.848    517.162    516.750    516.750
 92.470    573.000    582.423     -9.423    516.537    581.937    517.002    516.537    516.537
 92.570    567.306    591.031    -23.724    516.323    590.477    516.850    516.323    516.323
 92.670    610.075    601.209      8.866    516.107    600.577    516.707    516.107    516.107
 92.770    589.000    613.022    -24.022    515.889    612.301    516.572    515.889    515.889
 92.870    592.675    626.469    -33.794    515.669    625.650    516.444    515.669    515.669
 92.970    619.000    641.471    -22.471    515.448    640.548    516.322    515.448    515.448
 93.070    620.000    657.859    -37.859    515.225    656.826    516.202    515.225    515.225
 93.170    668.000    675.355     -7.355    515.001    674.211    516.082    515.001    515.001
 93.270    698.000    693.570      4.430    514.774    692.318    515.958    514.774    514.774
 93.370    733.000    712.018     20.982    514.547    710.665    515.825    514.547    514.547
 93.470    696.000    730.148    -34.148    514.317    728.707    515.681    514.317    514.317
 93.570    696.000    747.493    -51.493    514.086    745.976    515.522    514.086    514.086
 93.670    713.924    763.718    -49.793    513.853    762.141    515.348    513.853    513.853
 93.770    783.129    778.718      4.411    513.619    777.091    515.163    513.619    513.619
 93.870    824.000    792.638     31.362    513.383    790.965    514.973    513.383    513.383
 93.970    817.000    805.768     11.232    513.145    804.045    514.787    513.145    513.145
 94.070    841.830    818.411     23.419    512.906    816.623    514.615    512.906    512.906
 94.170    788.831    830.770    -41.939    512.666    828.892    514.465    512.666    512.666
 94.270    872.000    842.915     29.085    512.424    840.915    514.347    512.424    512.424
 94.370    831.000    854.832    -23.832    512.180    852.673    514.265    512.180    512.180
 94.470    874.000    866.508      7.492    511.935    864.150    514.221    511.935    511.935
 94.570    896.000    877.979     18.021    511.688    875.382    514.215    511.688    511.688
 94.670    925.000    889.297     35.703    511.440    886.430    514.240    511.440    511.440
 94.770    878.172    900.423    -22.251    511.190    897.261    514.288    511.190    511.190
 94.870    868.000    911.087    -43.087    510.939    907.621    514.345    510.939    510.939
 94.970    935.000    920.704     14.296    510.686    916.941    514.394    510.686    510.686
 95.070    904.000    928.354    -24.354    510.432    924.323    514.413    510.432    510.432
 95.170    977.000    932.875     44.125    510.176    928.627    514.380    510.176    510.176
 95.270    940.000    933.064      6.936    509.920    928.673    514.274    509.920    509.920
 95.370    915.067    927.976    -12.909    509.661    923.530    514.078    509.661    509.661
 95.470    878.312    917.222    -38.911    509.402    912.819    513.785    509.402    509.402
 95.570    921.000    901.145     19.855    509.140    896.875    513.398    509.140    509.140
 95.670    918.000    880.764     37.236    508.878    876.707    512.930    508.878    508.878
 95.770    808.116    857.561    -49.445    508.614    853.775    512.400    508.614    508.614
 95.870    779.255    833.214    -53.959    508.349    829.736    511.830    508.349    508.349
 95.970    821.000    809.403     11.597    508.083    806.248    511.243    508.083    508.083
 96.070    800.000    787.700     12.300    507.815    784.863    510.657    507.815    507.815
 96.170    803.000    769.525     33.475    507.546    766.986    510.088    507.546    507.546
 96.270    781.000    756.138     24.862    507.276    753.863    509.550    507.276    507.276
 96.370    802.733    748.634     54.100    507.004    746.580    509.053    507.004    507.004
 96.470    775.000    747.949     27.051    506.731    746.067    508.603    506.731    506.731
 96.570    703.932    754.855    -50.922    506.458    753.091    508.203    506.458    506.458
 96.670    766.000    769.945     -3.945    506.182    768.245    507.856    506.182    506.182
 96.770    800.000    793.623      6.377    505.906    791.934    507.561    505.906    505.906
 96.870    885.940    826.072     59.868    505.629    824.340    507.316    505.629    505.629
 96.970    827.270    867.215    -39.945    505.350    865.394    507.117    505.350    505.350
 97.070    941.000    916.671     24.329    505.070    914.717    506.960    505.070    505.070
 97.170    951.000    973.699    -22.699    504.789    971.575    506.840    504.789    504.789
 97.270   1022.000   1037.139    -15.139    504.507   1034.814    506.750    504.507    504.507
 97.370   1147.000   1105.362     41.638    504.224   1102.814    506.682    504.224    504.224
 97.470   1193.000   1176.225     16.775    503.940   1173.445    506.625    503.940    503.940
 97.570   1286.634   1247.050     39.584    503.655   1244.038    506.569    503.655    503.655
 97.670   1284.000   1314.632    -30.632    503.369   1311.405    506.499    503.369    503.369
 97.770   1443.000   1375.342     67.658    503.082   1371.930    506.401    503.082    503.082
 97.870   1427.000   1425.370      1.630    502.794   1421.821    506.260    502.794    502.794
 97.970   1466.000   1461.179      4.821    502.505   1457.553    506.061    502.505    502.505
 98.070   1412.525   1480.100    -67.575    502.215   1476.467    505.795    502.215    502.215
 98.170   1486.000   1480.895      5.105    501.924   1477.328    505.457    501.924    501.924
 98.270   1475.000   1464.019     10.981    501.632   1460.587    505.050    501.632    501.632
 98.370   1487.873   1431.466     56.407    501.340   1428.227    504.584    501.340    501.340
 98.470   1439.988   1386.297     53.691    501.046   1383.294    504.070    501.046    501.046
 98.570   1316.000   1332.091    -16.091    500.752   1329.352    503.523    500.752    500.752
 98.670   1255.000   1272.499    -17.499    500.457   1270.039    502.958    500.457    500.457
 98.770   1184.000   1210.968    -26.968    500.161   1208.787    502.386    500.161    500.161
 98.870   1148.000   1150.580     -2.580    499.864   1148.673    501.818    499.864    499.864
 98.970   1089.036   1094.003     -4.967    499.567   1092.352    501.262    499.567    499.567
 99.070   1026.000   1043.478    -17.478    499.268   1042.062    500.725    499.268    499.268
 99.170    964.920   1000.859    -35.939    498.970    999.654    500.210    498.970    498.970
 99.270    989.780    967.651     22.129    498.670    966.630    499.719    498.670    498.670
 99.370    943.872    945.048     -1.176    498.370    944.185    499.254    498.370    498.370
 99.470    977.000    933.957     43.043    498.069    933.226    498.814    498.069    498.069
 99.570   1013.000    935.009     77.991    497.768    934.387    498.396    497.768    497.768
 99.670    889.000    948.575    -59.575    497.466    948.041    498.000    497.466    497.466
 99.770   1016.000    974.764     41.236    497.163    974.299    497.623    497.163    497.163
 99.870   1031.596   1013.404     18.192    496.860   1012.994    497.261    496.860    496.860
 99.970   1092.000   1064.034     27.966    496.557   1063.667    496.912    496.557    496.557
100.070   1125.000   1126.013     -1.013    496.253   1125.678    496.575    496.253    496.253
100.170   1197.327   1198.182     -0.856    495.948   1197.875    496.246    495.948    495.948
100.270   1347.472   1279.017     68.455    495.643   1278.731    495.924    495.643    495.643
100.370   1423.000   1366.553     56.447    495.338   1366.285    495.608    495.338    495.338
100.470   1418.520   1458.310    -39.790    495.032   1458.058    495.297    495.032    495.032
100.570   1595.000   1551.339     43.661    494.726   1551.102    494.989    494.726    494.726
100.670   1558.139   1642.341    -84.202    494.420   1642.120    494.685    494.420    494.420
100.770   1743.000   1727.918     15.082    494.113   1727.711    494.384    494.113    494.113
100.870   1864.000   1804.916     59.084    493.806   1804.724    494.084    493.806    493.806
100.970   1930.000   1870.752     59.248    493.499   1870.574    493.787    493.499    493.499
101.070   1985.000   1923.569     61.431    493.191   1923.403    493.491    493.191    493.191
101.170   1937.000   1962.153    -25.153    492.884   1961.995    493.196    492.884    492.884
101.270   2011.000   1985.694     25.306    492.576   1985.541    492.902    492.576    492.576
101.370   2022.580   1993.584     28.996    492.268   1993.434    492.609    492.268    492.268
101.470   1976.000   1985.416     -9.416    491.960   1985.265    492.315    491.960    491.960
101.570   1999.000   1961.213     37.787    491.652   1961.057    492.022    491.652    491.652
101.670   1870.870   1921.779    -50.909    491.344   1921.615    491.727    491.344    491.344
101.770   1905.000   1868.946     36.054    491.036   1868.770    491.431    491.036    491.036
101.870   1815.000   1805.545      9.455    490.728   1805.356    491.133    490.728    490.728
101.970   1745.000   1735.137      9.863    490.420   1734.932    490.834    490.420    490.420
102.070   1587.000   1661.465    -74.465    490.112   1661.243    490.534    490.112    490.112
102.170   1585.582   1588.041     -2.459    489.804   1587.802    490.230    489.804    489.804
102.270   1492.550   1517.820    -25.269    489.496   1517.566    489.925    489.496    489.496
102.370   1454.000   1453.025      0.975    489.189   1452.759    489.616    489.189    489.189
102.470   1436.475   1395.099     41.376    488.881   1394.824    489.304    488.881    488.881
102.570   1277.000   1344.711    -67.711    488.574   1344.432    488.989    488.574    488.574
102.670   1279.000   1301.811    -22.811    488.267   1301.532    488.671    488.267    488.267
102.770   1238.000   1265.687    -27.687    487.961   1265.413    488.350    487.961    487.961
102.870   1216.456   1235.080    -18.624    487.655   1234.816    488.027    487.655    487.655
102.970   1273.588   1208.287     65.300    487.349   1208.037    487.703    487.349    487.349
103.070   1148.000   1183.372    -35.372    487.043   1183.138    487.378    487.043    487.043
103.170   1101.000   1158.411    -57.411    486.738   1158.196    487.052    486.738    486.738
103.270   1133.877   1131.778      2.099    486.434   1131.583    486.726    486.434    486.434
103.370   1101.000   1102.374     -1.374    486.129   1102.199    486.401    486.129    486.129
103.470   1083.000   1069.745     13.255    485.826   1069.590    486.076    485.826    485.826
103.570   1043.000   1034.043      8.957    485.523   1033.905    485.753    485.523    485.523
103.670   1003.000    995.870      7.130    485.220    995.748    485.431    485.220    485.220
103.770    931.000    956.087    -25.087    484.919    955.979    485.111    484.919    484.919
103.870    913.000    915.639     -2.639    484.617    915.543    484.793    484.617    484.617
103.970    878.000    875.448      2.552    484.317    875.361    484.477    484.317    484.317
104.070    821.741    836.343    -14.602    484.017    836.263    484.163    484.017    484.017
104.170    835.000    799.030     35.970    483.718    798.956    483.852    483.718    483.718
104.270    770.000    764.080      5.920    483.420    764.010    483.543    483.420    483.420
104.370    727.000    731.908     -4.908    483.123    731.841    483.237    483.123    483.123
104.470    699.000    702.789     -3.789    482.827    702.724    482.933    482.827    482.827
104.570    661.000    676.909    -15.909    482.531    676.844    482.631    482.531    482.531
104.670    661.975    654.265      7.710    482.237    654.200    482.331    482.237    482.237
104.770    644.000    634.768      9.232    481.943    634.703    482.033    481.943    481.943
104.870    612.000    618.247     -6.247    481.651    618.181    481.737    481.651    481.651
104.970    653.000    604.474     48.526    481.359    604.406    481.443    481.359    481.359
105.070    636.642    593.183     43.460    481.069    593.113    481.151    481.069    481.069
105.170    643.000    584.097     58.903    480.780    584.025    480.862    480.780    480.780
105.270    630.000    576.946     53.054    480.492    576.871    480.574    480.492    480.492
105.370    605.000    571.478     33.522    480.205    571.399    480.288    480.205    480.205
105.470    601.000    567.473     33.527    479.920    567.390    480.004    479.920    479.920
105.570    573.931    564.748      9.183    479.636    564.660    479.723    479.636    479.636
105.670    595.000    563.160     31.840    479.353    563.066    479.445    479.353    479.353
105.770    528.433    562.604    -34.170    479.071    562.503    479.168    479.071    479.071
105.870    585.000    563.011     21.989    478.791    562.901    478.895    478.791    478.791
105.970    586.000    564.345     21.655    478.513    564.225    478.626    478.513    478.513
106.070    549.343    566.597    -17.253    478.236    566.463    478.359    478.236    478.236
106.170    621.000    569.775     51.225    477.960    569.627    478.096    477.960    477.960
106.270    553.000    573.906    -20.906    477.686    573.740    477.838    477.686    477.686
106.370    646.000    579.021     66.979    477.414    578.834    477.583    477.414    477.414
106.470    588.000    585.149      2.851    477.144    584.939    477.333    477.144    477.144
106.570    602.732    592.311     10.420    476.875    592.075    477.088    476.875    476.875
106.670    660.018    600.503     59.514    476.608    600.238    476.847    476.608    476.608
106.770    594.000    609.690    -15.690    476.342    609.392    476.610    476.342    476.342
106.870    657.628    619.800     37.828    476.079    619.468    476.378    476.079    476.079
106.970    663.914    630.712     33.202    475.817    630.344    476.149    475.817    475.817
107.070    696.725    642.256     54.469    475.558    641.851    475.924    475.558    475.558
107.170    640.000    654.211    -14.211    475.300    653.767    475.701    475.300    475.300
107.270    677.000    666.302     10.698    475.045    665.822    475.480    475.045    475.045
107.370    722.814    678.209     44.605    474.791    677.694    475.260    474.791    474.791
107.470    680.783    689.570     -8.787    474.540    689.023    475.039    474.540    474.540
107.570    697.777    700.001     -2.224    474.291    699.427    474.816    474.291    474.291
107.670    731.000    709.127     21.873    474.044    708.533    474.590    474.044    474.044
107.770    697.000    716.623    -19.623    473.799    716.015    474.359    473.799    473.799
107.870    706.000    722.266    -16.266    473.556    721.654    474.124    473.556    473.556
107.970    711.000    725.980    -14.980    473.316    725.372    473.883    473.316    473.316
108.070    724.000    727.857     -3.857    473.079    727.261    473.637    473.079    473.079
108.170    706.000    728.124    -22.124    472.844    727.548    473.386    472.844    472.844
108.270    787.424    727.204     60.220    472.611    726.654    473.131    472.611    472.611
108.370    760.811    725.510     35.302    472.381    724.991    472.874    472.381    472.381
108.470    711.000    723.472    -12.472    472.153    722.988    472.616    472.153    472.153
108.570    670.000    721.485    -51.485    471.928    721.038    472.358    471.928    471.928
108.670    724.060    719.865      4.195    471.706    719.456    472.102    471.706    471.706
108.770    733.000    718.837     14.163    471.486    718.466    471.848    471.486    471.486
108.870    741.236    718.520     22.716    471.270    718.186    471.597    471.270    471.270
108.970    778.499    718.927     59.571    471.056    718.630    471.351    471.056    471.056
109.070    719.602    719.967     -0.365    470.845    719.704    471.110    470.845    470.845
109.170    696.522    721.446    -24.924    470.637    721.214    470.873    470.637    470.637
109.270    727.000    723.080      3.920    470.432    722.877    470.642    470.432    470.432
109.370    750.000    724.511     25.489    470.230    724.335    470.417    470.230    470.230
109.470    706.000    725.340    -19.340    470.031    725.187    470.198    470.031    470.031
109.570    721.491    725.162     -3.671    469.835    725.030    469.984    469.835    469.835
109.670    714.000    723.618     -9.618    469.643    723.505    469.775    469.643    469.643
109.770    725.000    720.449      4.551    469.454    720.351    469.572    469.454    469.454
109.870    658.010    715.527    -57.518    469.268    715.443    469.374    469.268    469.268
109.970    759.000    708.877     50.123    469.085    708.803    469.182    469.085    469.085
110.070    642.249    700.659    -58.409    468.906    700.594    468.994    468.906    468.906
110.170    642.312    691.134    -48.823    468.730    691.076    468.811    468.730    468.730
110.270    665.000    680.627    -15.627    468.558    680.574    468.633    468.558    468.558
110.370    678.000    669.480      8.520    468.389    669.431    468.459    468.389    468.389
110.470    659.000    658.030      0.970    468.225    657.985    468.290    468.225    468.225
110.570    633.050    646.590    -13.539    468.063    646.546    468.125    468.063    468.063
110.670    630.000    635.433     -5.433    467.906    635.391    467.964    467.906    467.906
110.770    668.000    624.795     43.205    467.752    624.753    467.808    467.752    467.752
110.870    668.688    614.865     53.822    467.602    614.824    467.656    467.602    467.602
110.970    588.000    605.793    -17.793    467.456    605.751    467.508    467.456    467.456
111.070    645.000    597.681     47.319    467.314    597.639    467.365    467.314    467.314
111.170    601.696    590.595     11.101    467.176    590.552    467.225    467.176    467.176
111.270    616.000    584.562     31.438    467.043    584.518    467.090    467.043    467.043
111.370    586.000    579.576      6.424    466.913    579.531    466.960    466.913    466.913
111.470    607.000    575.605     31.395    466.787    575.559    466.833    466.787    466.787
111.570    559.000    572.596    -13.596    466.666    572.549    466.712    466.666    466.666
111.670    578.000    570.481      7.519    466.549    570.433    466.594    466.549    466.549
111.770    602.000    569.181     32.819    466.437    569.132    466.481    466.437    466.437
111.870    576.000    568.613      7.387    466.329    568.564    466.373    466.329    466.329
111.970    522.000    568.696    -46.696    466.225    568.645    466.269    466.225    466.225
112.070    573.000    569.348      3.652    466.126    569.297    466.170    466.126    466.126
112.170    574.000    570.497      3.503    466.032    570.444    466.076    466.032    466.032
112.270    527.000    572.076    -45.076    465.942    572.022    465.986    465.942    465.942
112.370    570.000    574.029     -4.029    465.857    573.974    465.901    465.857    465.857
112.470    597.000    576.311     20.689    465.777    576.256    465.821    465.777    465.777
112.570    598.000    578.890     19.110    465.702    578.834    465.746    465.702    465.702
112.670    577.000    581.745     -4.745    465.632    581.689    465.676    465.632    465.632
112.770    569.000    584.865    -15.865    465.566    584.808    465.611    465.566    465.566
112.870    582.000    588.265     -6.265    465.506    588.207    465.551    465.506    465.506
112.970    623.673    591.973     31.700    465.451    591.914    465.496    465.451    465.451
113.070    557.121    596.022    -38.901    465.401    595.963    465.447    465.401    465.401
113.170    606.000    600.461      5.539    465.356    600.401    465.403    465.356    465.356
113.270    609.242    605.356      3.886    465.317    605.293    465.365    465.317    465.317
113.370    550.999    610.789    -59.790    465.283    610.725    465.332    465.283    465.283
113.470    644.000    616.870     27.130    465.255    616.804    465.305    465.255    465.255
113.570    613.000    623.734    -10.734    465.231    623.666    465.283    465.231    465.231
113.670    620.000    631.556    -11.556    465.214    631.484    465.268    465.214    465.214
113.770    657.000    640.555     16.445    465.202    640.480    465.258    465.202    465.202
113.870    682.774    651.011     31.763    465.196    650.931    465.255    465.196    465.196
113.970    625.000    663.275    -38.275    465.196    663.188    465.258    465.196    465.196
114.070    630.000    677.785    -47.785    465.201    677.691    465.267    465.201    465.201
114.170    697.758    695.086      2.672    465.213    694.984    465.283    465.213    465.213
114.270    691.000    715.847    -24.847    465.230    715.734    465.305    465.230    465.230
114.370    691.272    740.876    -49.604    465.254    740.751    465.335    465.254    465.254
114.470    786.000    771.145     14.855    465.283    771.004    465.371    465.283    465.283
114.570    751.000    807.794    -56.794    465.319    807.636    465.415    465.319    465.319
114.670    896.000    852.152     43.848    465.361    851.972    465.467    465.361    465.361
114.770    847.339    905.732    -58.393    465.410    905.527    465.526    465.410    465.410
114.870    943.000    970.228    -27.228    465.465    969.993    465.592    465.465    465.465
114.970   1040.000   1047.499     -7.499    465.526   1047.230    465.667    465.526    465.526
115.070   1110.000   1139.532    -29.532    465.594   1139.224    465.750    465.594    465.594
115.170   1305.000   1248.401     56.599    465.668   1248.049    465.841    465.668    465.668
115.270   1453.000   1376.196     76.804    465.749   1375.794    465.941    465.749    465.749
115.370   1573.000   1524.946     48.054    465.837   1524.489    466.049    465.837    465.837
115.470   1754.000   1696.514     57.486    465.932   1695.997    466.166    465.932    465.932
115.570   2041.000   1892.490    148.510    466.033   1891.908    466.291    466.033    466.033
115.670   2264.000   2114.064    149.936    466.142   2113.413    466.426    466.142    466.142
115.770   2551.000   2361.898    189.102    466.258   2361.175    466.569    466.258    466.258
115.870   2563.030   2635.999    -72.969    466.380   2635.202    466.721    466.380    466.380
115.970   3078.000   2935.595    142.405    466.510   2934.722    466.882    466.510    466.510
116.070   3331.000   3259.031     71.969    466.648   3258.084    467.051    466.648    466.648
116.170   3674.000   3603.679     70.321    466.792   3602.660    467.229    466.792    466.792
116.270   4201.000   3965.874    235.126    466.944   3964.787    467.415    466.944    466.944
116.370   4333.416   4340.872     -7.457    467.104   4339.724    467.609    467.104    467.104
116.470   4692.000   4722.842    -30.842    467.271   4721.641    467.811    467.271    467.271
116.570   4939.525   5104.878   -165.353    467.446   5103.634    468.021    467.446    467.446
116.670   5371.317   5479.052   -107.734    467.628   5477.777    468.239    467.628    467.628
116.770   5872.000   5836.521     35.479    467.818   5835.231    468.464    467.818    467.818
116.870   6330.000   6167.717    162.283    468.016   6166.427    468.695    468.016    468.016
116.970   6415.000   6462.655    -47.655    468.223   6461.382    468.934    468.223    468.223
117.070   6602.779   6711.405   -108.626    468.437   6710.167    469.179    468.437    468.437
117.170   7025.000   6904.746    120.254    468.659   6903.560    469.429    468.659    468.659
117.270   6966.405   7034.949    -68.544    468.890   7033.830    469.685    468.890    468.890
117.370   7199.215   7096.582    102.633    469.128   7095.543    469.946    469.128    469.128
117.470   6911.000   7087.159   -176.159    469.375   7086.207    470.211    469.375    469.375
117.570   7027.000   7007.451     19.549    469.631   7006.591    470.480    469.631    469.631
117.670   6785.396   6861.385    -75.989    469.895   6860.615    470.753    469.895    469.895
117.770   6825.204   6655.537    169.668    470.168   6654.851    471.029    470.168    470.168
117.870   6184.000   6398.383   -214.383    470.449   6397.774    471.310    470.449    470.449
117.970   6205.000   6099.485    105.515    470.739   6098.944    471.594    470.739    470.739
118.070   5521.000   5768.760   -247.760    471.038   5768.278    471.883    471.038    471.038
118.170   5424.435   5415.917      8.519    471.346   5415.483    472.175    471.346    471.346
118.270   4864.000   5050.062   -186.062    471.663   5049.667    472.471    471.663    471.663
118.370   4689.000   4679.456      9.544    471.989   4679.093    472.772    471.989    471.989
118.470   4335.000   4311.373     23.627    472.324   4311.034    473.079    472.324    472.324
118.570   3914.000   3952.018    -38.018    472.669   3951.698    473.391    472.669    472.669
118.670   3611.000   3606.490      4.510    473.023   3606.185    473.709    473.023    473.023
118.770   3254.000   3278.817    -24.817    473.386   3278.522    474.035    473.386    473.386
118.870   3003.000   2972.068     30.932    473.759   2971.780    474.370    473.759    473.759
118.970   2656.000   2688.225    -32.225    474.141   2687.942    474.714    474.141    474.141
119.070   2470.063   2428.429     41.635    474.533   2428.150    475.067    474.533    474.533
119.170   2151.000   2193.059    -42.059    474.935   2192.783    475.432    474.935    474.935
119.270   1924.000   1981.846    -57.846    475.347   1981.573    475.807    475.347    475.347
119.370   1800.000   1793.993      6.007    475.768   1793.723    476.195    475.768    475.768
119.470   1626.000   1628.294     -2.294    476.200   1628.027    476.594    476.200    476.200
119.570   1512.000   1483.240     28.760    476.642   1482.978    477.007    476.642    476.642
119.670   1353.497   1357.128     -3.631    477.094   1356.870    477.432    477.094    477.094
119.770   1178.000   1248.142    -70.142    477.556   1247.888    477.871    477.556    477.556
119.870   1183.133   1154.441     28.693    478.029   1154.192    478.323    478.029    478.029
119.970   1114.004   1074.217     39.787    478.513   1073.972    478.789    478.513    478.513
120.070   1001.000   1005.753     -4.753    479.006   1005.512    479.269    479.006    479.006
120.170    978.827    947.455     31.372    479.511    947.218    479.762    479.511    479.511
120.270    916.000    897.878     18.122    480.026    897.644    480.269    480.026    480.026
120.370    875.000    855.738     19.262    480.552    855.505    480.790    480.552    480.552
120.470    820.285    819.912      0.373    481.089    819.679    481.324    481.089    481.089
120.570    835.627    789.434     46.193    481.637    789.200    481.872    481.637    481.637
120.670    724.983    763.483    -38.500    482.197    763.246    482.434    482.197    482.197
120.770    724.541    741.370    -16.829    482.767    741.129    483.009    482.767    482.767
120.870    752.589    722.521     30.067    483.349    722.274    483.597    483.349    483.349
120.970    750.357    706.464     43.893    483.942    706.209    484.199    483.942    483.942
121.070    674.000    692.809    -18.809    484.547    692.544    484.814    484.547    484.547
121.170    654.000    681.238    -27.238    485.163    680.962    485.442    485.163    485.163
121.270    623.000    671.491    -48.491    485.791    671.203    486.083    485.791    485.791
121.370    664.071    663.354      0.716    486.431    663.052    486.738    486.431    486.431
121.470    650.327    656.653     -6.326    487.082    656.336    487.406    487.082    487.082
121.570    631.000    651.242    -20.242    487.746    650.907    488.088    487.746    487.746
121.670    645.000    646.998     -1.998    488.422    646.645    488.783    488.422    488.422
121.770    686.312    643.816     42.496    489.109    643.443    489.492    489.109    489.109
121.870    614.000    641.605    -27.605    489.810    641.211    490.215    489.810    489.810
121.970    648.000    640.283      7.717    490.522    639.866    490.952    490.522    490.522
122.070    666.000    639.774     26.226    491.247    639.332    491.703    491.247    491.247
122.170    610.000    640.004    -30.004    491.985    639.534    492.470    491.985    491.985
122.270    624.000    640.901    -16.901    492.735    640.402    493.251    492.735    492.735
122.370    641.000    642.391     -1.391    493.498    641.861    494.047    493.498    493.498
122.470    671.167    644.399     26.768    494.274    643.836    494.859    494.274    494.274
122.570    650.256    646.844      3.412    495.062    646.246    495.685    495.062    495.062
122.670    631.000    649.641    -18.641    495.864    649.005    496.527    495.864    495.864
122.770    636.000    652.697    -16.697    496.679    652.023    497.383    496.679    496.679
122.870    650.000    655.916     -5.916    497.508    655.202    498.255    497.508    497.508
122.970    602.068    659.194    -57.127    498.349    658.439    499.140    498.349    498.349
123.070    674.000    662.421     11.579    499.204    661.625    500.039    499.204    499.204
123.170    685.000    665.484     19.516    500.073    664.647    500.951    500.073    500.073
123.270    653.384    668.268    -14.883    500.956    667.391    501.876    500.956    500.956
123.370    692.000    670.661     21.339    501.852    669.747    502.812    501.852    501.852
123.470    675.000    672.559      2.441    502.762    671.609    503.760    502.762    502.762
123.570    623.945    673.870    -49.925    503.686    672.889    504.718    503.686    503.686
123.670    690.000    674.524     15.476    504.624    673.514    505.686    504.624    504.624
123.770    710.506    674.472     36.034    505.576    673.439    506.663    505.576    505.576
123.870    689.000    673.694     15.306    506.543    672.642    507.649    506.543    506.543
123.970    637.000    672.197    -35.197    507.524    671.132    508.644    507.524    507.524
124.070    663.000    670.014     -7.014    508.520    668.941    509.647    508.520    508.520
124.170    724.655    667.195     57.460    509.530    666.121    510.658    509.530    509.530
124.270    685.000    663.809     21.191    510.555    662.740    511.677    510.555    510.555
124.370    689.000    659.933     29.067    511.595    658.874    512.705    511.595    511.595
124.470    612.719    655.650    -42.931    512.650    654.607    513.742    512.650    512.650
124.570    676.778    651.043     25.735    513.720    650.022    514.788    513.720    513.720
124.670    707.000    646.195     60.805    514.805    645.202    515.843    514.805    514.805
124.770    632.000    641.189     -9.189    515.905    640.228    516.908    515.905    515.905
124.870    618.459    636.100    -17.641    517.021    635.176    517.984    517.021    517.021
124.970    624.000    631.002     -7.002    518.152    630.119    519.072    518.152    518.152
