neutron_powder_diffraction_0236
R_wp: 4.019
Temperature (K): 1020.333
Counts: 83923.00
Wavelength (Ã…): 2.52098
COMMENTS
Test file for demonstrating the .xyy file format in Reel1.0
END OF HEADER
   tth       Y_obs     Y_calc      Y_res    Background    Phase_1_Nuc    Phase_1_Mag    Phase_2_Nuc    Phase_2_Mag
  9.970    541.000    569.306    -28.306    568.675    569.287    568.675    568.693    568.675
 10.070    584.000    569.459     14.541    568.758    569.438    568.758    568.779    568.758
 10.170    555.000    569.605    -14.605    568.836    569.584    568.836    568.857    568.836
 10.270    585.000    569.749     15.251    568.908    569.728    568.908    568.929    568.908
 10.370    565.000    569.899     -4.899    568.975    569.878    568.975    568.996    568.975
 10.470    608.000    570.058     37.942    569.036    570.037    569.036    569.057    569.036
 10.570    536.741    570.229    -33.488    569.092    570.208    569.092    569.113    569.092
 10.670    523.175    570.417    -47.242    569.142    570.395    569.142    569.163    569.142
 10.770    529.379    570.628    -41.249    569.187    570.606    569.187    569.208    569.187
 10.870    580.000    570.870      9.130    569.227    570.848    569.227    569.248    569.227
 10.970    569.788    571.155     -1.367    569.261    571.133    569.261    569.282    569.261
 11.070    600.000    571.500     28.500    569.290    571.477    569.290    569.312    569.290
 11.170    588.000    571.929     16.071    569.314    571.905    569.314    569.336    569.314
 11.270    607.000    572.478     34.522    569.333    572.454    569.333    569.355    569.333
 11.370    531.000    573.211    -42.211    569.347    573.187    569.347    569.369    569.347
 11.470    598.000    574.264     23.736    569.356    574.239    569.356    569.379    569.356
 11.570    564.143    576.007    -11.864    569.360    575.981    569.360    569.383    569.360
 11.670    620.000    579.494     40.506    569.360    579.466    569.360    569.382    569.360
 11.770    634.118    587.215     46.904    569.354    587.182    569.354    569.377    569.354
 11.870    634.134    603.310     30.825    569.344    603.268    569.344    569.366    569.344
 11.970    620.966    631.314    -10.348    569.329    631.256    569.329    569.351    569.329
 12.070    708.000    668.349     39.651    569.309    668.271    569.309    569.332    569.309
 12.170    693.000    699.295     -6.295    569.284    699.199    569.284    569.307    569.284
 12.270    652.000    703.212    -51.212    569.255    703.114    569.255    569.279    569.255
 12.370    685.000    676.549      8.451    569.222    676.465    569.222    569.245    569.222
 12.470    658.239    638.771     19.467    569.184    638.709    569.184    569.207    569.184
 12.570    600.000    607.994     -7.994    569.141    607.949    569.141    569.165    569.141
 12.670    600.216    589.438     10.778    569.094    589.403    569.094    569.118    569.094
 12.770    593.000    580.292     12.708    569.043    580.261    569.043    569.067    569.043
 12.870    583.000    576.156      6.844    568.988    576.128    568.988    569.012    568.988
 12.970    543.000    574.133    -31.133    568.928    574.106    568.928    568.952    568.928
 13.070    578.000    572.932      5.068    568.864    572.905    568.864    568.888    568.864
 13.170    616.780    572.095     44.685    568.796    572.069    568.796    568.820    568.796
 13.270    547.000    571.462    -24.462    568.723    571.436    568.723    568.748    568.723
 13.370    527.000    570.962    -43.962    568.647    570.935    568.647    568.673    568.647
 13.470    574.000    570.555      3.445    568.567    570.525    568.567    568.596    568.567
 13.570    553.179    570.210    -17.031    568.482    570.180    568.482    568.512    568.482
 13.670    541.270    569.913    -28.643    568.394    569.882    568.394    568.424    568.394
 13.770    559.000    569.651    -10.651    568.302    569.619    568.302    568.333    568.302
 13.870    538.959    569.415    -30.456    568.206    569.382    568.206    568.238    568.206
 13.970    552.000    569.197    -17.197    568.106    569.165    568.106    568.138    568.106
 14.070    544.000    568.995    -24.995    568.002    568.962    568.002    568.035    568.002
 14.170    557.000    568.804    -11.804    567.895    568.771    567.895    567.927    567.895
 14.270    530.000    568.621    -38.621    567.784    568.588    567.784    567.817    567.784
 14.370    606.621    568.445     38.177    567.669    568.411    567.669    567.702    567.669
 14.470    594.000    568.273     25.727    567.551    568.239    567.551    567.584    567.551
 14.570    576.000    568.104      7.896    567.429    568.071    567.429    567.463    567.429
 14.670    535.101    567.938    -32.838    567.304    567.905    567.304    567.338    567.304
 14.770    558.399    567.776     -9.376    567.175    567.742    567.175    567.209    567.175
 14.870    574.572    567.614      6.958    567.043    567.580    567.043    567.077    567.043
 14.970    562.000    567.451     -5.451    566.908    567.416    566.908    566.942    566.908
 15.070    601.419    567.288     34.131    566.769    567.252    566.769    566.804    566.769
 15.170    567.000    567.132     -0.132    566.627    567.089    566.627    566.670    566.627
 15.270    529.000    566.974    -37.974    566.482    566.925    566.482    566.530    566.482
 15.370    545.000    566.808    -21.808    566.333    566.759    566.333    566.382    566.333
 15.470    542.717    566.640    -23.923    566.181    566.591    566.181    566.231    566.181
 15.570    583.000    566.471     16.529    566.027    566.421    566.027    566.076    566.027
 15.670    534.815    566.301    -31.485    565.869    566.250    565.869    565.919    565.869
 15.770    520.000    566.128    -46.128    565.708    566.078    565.708    565.758    565.708
 15.870    563.000    565.954     -2.954    565.544    565.903    565.544    565.595    565.544
 15.970    611.672    565.782     45.890    565.377    565.726    565.377    565.432    565.377
 16.070    549.000    565.606    -16.606    565.207    565.548    565.207    565.265    565.207
 16.170    611.998    565.426     46.572    565.034    565.367    565.034    565.093    565.034
 16.270    533.393    565.244    -31.851    564.859    565.185    564.859    564.918    564.859
 16.370    552.000    565.060    -13.060    564.680    565.000    564.680    564.740    564.680
 16.470    582.000    564.874     17.126    564.499    564.813    564.499    564.559    564.499
 16.570    502.000    564.686    -62.686    564.315    564.625    564.315    564.376    564.315
 16.670    562.223    564.495     -2.272    564.129    564.434    564.129    564.190    564.129
 16.770    541.552    564.302    -22.750    563.940    564.240    563.940    564.002    563.940
 16.870    570.000    564.108      5.892    563.748    564.045    563.748    563.810    563.748
 16.970    612.040    563.911     48.130    563.554    563.848    563.554    563.616    563.554
 17.070    577.641    563.711     13.930    563.357    563.648    563.357    563.420    563.357
 17.170    523.000    563.510    -40.510    563.157    563.447    563.157    563.221    563.157
 17.270    528.000    563.307    -35.307    562.955    563.243    562.955    563.019    562.955
 17.370    521.710    563.104    -41.393    562.751    563.039    562.751    562.816    562.751
 17.470    570.667    562.898      7.770    562.544    562.833    562.544    562.609    562.544
 17.570    535.761    562.688    -26.928    562.335    562.623    562.335    562.401    562.335
 17.670    588.000    562.477     25.523    562.124    562.411    562.124    562.190    562.124
 17.770    579.668    562.264     17.404    561.910    562.197    561.910    561.977    561.910
 17.870    527.705    562.049    -34.343    561.695    561.981    561.695    561.762    561.695
 17.970    579.000    561.831     17.169    561.477    561.764    561.477    561.544    561.477
 18.070    535.000    561.612    -26.612    561.256    561.544    561.256    561.324    561.256
 18.170    583.000    561.391     21.609    561.034    561.323    561.034    561.103    561.034
 18.270    569.000    561.169      7.831    560.810    561.100    560.810    560.879    560.810
 18.370    576.339    560.944     15.395    560.583    560.875    560.583    560.653    560.583
 18.470    561.614    560.718      0.896    560.355    560.648    560.355    560.425    560.355
 18.570    512.731    560.490    -47.760    560.124    560.419    560.124    560.195    560.124
 18.670    523.000    560.261    -37.261    559.892    560.189    559.892    559.963    559.892
 18.770    510.048    560.031    -49.983    559.657    559.959    559.657    559.729    559.657
 18.870    543.190    559.799    -16.608    559.421    559.726    559.421    559.493    559.421
 18.970    553.000    559.564     -6.564    559.183    559.491    559.183    559.256    559.183
 19.070    560.539    559.330      1.209    558.943    559.254    558.943    559.018    558.943
 19.170    552.000    559.094     -7.094    558.701    559.016    558.701    558.779    558.701
 19.270    542.000    558.856    -16.856    558.457    558.777    558.457    558.536    558.457
 19.370    526.000    558.616    -32.616    558.212    558.536    558.212    558.292    558.212
 19.470    579.000    558.375     20.625    557.965    558.294    557.965    558.046    557.965
 19.570    562.000    558.132      3.868    557.717    558.050    557.717    557.799    557.717
 19.670    535.000    557.888    -22.888    557.466    557.805    557.466    557.549    557.466
 19.770    562.000    557.643      4.357    557.215    557.559    557.215    557.299    557.215
 19.870    579.703    557.404     22.299    556.961    557.319    556.961    557.046    556.961
 19.970    563.000    557.172      5.828    556.706    557.086    556.706    556.792    556.706
 20.070    520.350    556.925    -36.575    556.450    556.838    556.450    556.536    556.450
 20.170    597.000    556.675     40.325    556.192    556.588    556.192    556.279    556.192
 20.270    568.000    556.424     11.576    555.933    556.336    555.933    556.021    555.933
 20.370    548.000    556.172     -8.172    555.672    556.084    555.672    555.761    555.672
 20.470    593.653    555.920     37.733    555.410    555.830    555.410    555.500    555.410
 20.570    578.000    555.667     22.333    555.147    555.576    555.147    555.237    555.147
 20.670    518.000    555.413    -37.413    554.882    555.321    554.882    554.973    554.882
 20.770    525.000    555.158    -30.158    554.616    555.066    554.616    554.708    554.616
 20.870    556.004    554.903      1.101    554.349    554.810    554.349    554.442    554.349
 20.970    556.000    554.647      1.353    554.080    554.553    554.080    554.175    554.080
 21.070    546.000    554.392     -8.392    553.811    554.296    553.811    553.907    553.811
 21.170    551.032    554.137     -3.105    553.540    554.039    553.540    553.638    553.540
 21.270    538.000    553.880    -15.880    553.268    553.781    553.268    553.367    553.268
 21.370    553.000    553.624     -0.624    552.995    553.524    552.995    553.095    552.995
 21.470    598.298    553.368     44.930    552.721    553.266    552.721    552.822    552.721
 21.570    561.281    553.112      8.169    552.446    553.009    552.446    552.548    552.446
 21.670    539.000    552.856    -13.856    552.169    552.752    552.169    552.273    552.169
 21.770    569.000    552.601     16.399    551.892    552.496    551.892    551.998    551.892
 21.870    565.296    552.347     12.949    551.614    552.240    551.614    551.721    551.614
 21.970    555.000    552.094      2.906    551.335    551.986    551.335    551.443    551.335
 22.070    522.383    551.844    -29.460    551.055    551.734    551.055    551.164    551.055
 22.170    523.000    551.616    -28.616    550.774    551.505    550.774    550.885    550.774
 22.270    562.000    551.457     10.543    550.493    551.342    550.493    550.607    550.493
 22.370    568.000    551.226     16.774    550.210    551.106    550.210    550.331    550.210
 22.470    531.000    550.997    -19.997    549.927    550.875    549.927    550.049    549.927
 22.570    574.000    550.794     23.206    549.643    550.671    549.643    549.767    549.643
 22.670    549.000    550.565     -1.565    549.358    550.439    549.358    549.484    549.358
 22.770    554.660    550.340      4.320    549.072    550.213    549.072    549.200    549.072
 22.870    502.736    550.150    -47.414    548.786    550.021    548.786    548.916    548.786
 22.970    532.979    549.971    -16.993    548.499    549.840    548.499    548.631    548.499
 23.070    546.000    549.775     -3.775    548.212    549.642    548.212    548.345    548.212
 23.170    554.000    549.587      4.413    547.924    549.452    547.924    548.060    547.924
 23.270    567.970    549.415     18.554    547.635    549.278    547.635    547.773    547.635
 23.370    521.738    549.265    -27.526    547.346    549.125    547.346    547.486    547.346
 23.470    491.000    549.141    -58.141    547.056    548.999    547.056    547.199    547.056
 23.570    523.912    549.053    -25.141    546.766    548.909    546.766    546.911    546.766
 23.670    520.420    549.013    -28.593    546.475    548.867    546.475    546.623    546.475
 23.770    578.000    549.039     28.961    546.184    548.890    546.184    546.334    546.184
 23.870    588.381    549.159     39.223    545.893    549.007    545.893    546.046    545.893
 23.970    560.611    549.422     11.189    545.600    549.268    545.600    545.756    545.600
 24.070    550.000    549.945      0.055    545.308    549.788    545.308    545.467    545.308
 24.170    549.000    551.046     -2.046    545.015    550.887    545.015    545.178    545.015
 24.270    549.000    553.574     -4.574    544.722    553.414    544.722    544.888    544.722
 24.370    570.000    559.316     10.684    544.429    559.156    544.429    544.598    544.429
 24.470    539.000    570.865    -31.865    544.135    570.710    544.135    544.308    544.135
 24.570    573.000    589.845    -16.845    543.841    589.700    543.841    544.018    543.841
 24.670    663.000    613.354     49.646    543.547    613.222    543.547    543.728    543.547
 24.770    596.000    631.128    -35.128    543.253    631.005    543.253    543.438    543.253
 24.870    643.000    631.037     11.963    542.958    630.909    542.958    543.148    542.958
 24.970    582.000    612.944    -30.944    542.663    612.799    542.663    542.859    542.663
 25.070    569.000    588.918    -19.918    542.368    588.750    542.368    542.569    542.368
 25.170    561.000    569.341     -8.341    542.073    569.153    542.073    542.279    542.073
 25.270    599.000    557.203     41.797    541.778    557.001    541.778    541.990    541.778
 25.370    576.000    550.924     25.076    541.483    550.711    541.483    541.701    541.483
 25.470    503.720    547.896    -44.176    541.188    547.674    541.188    541.414    541.188
 25.570    585.374    546.320     39.054    540.893    546.087    540.893    541.128    540.893
 25.670    538.041    545.342     -7.301    540.597    545.101    540.597    540.840    540.597
 25.770    584.737    544.612     40.125    540.302    544.362    540.302    540.553    540.302
 25.870    568.268    544.034     24.234    540.007    543.775    540.007    540.267    540.007
 25.970    553.489    543.562      9.927    539.711    543.293    539.711    539.981    539.711
 26.070    577.227    543.172     34.056    539.416    542.892    539.416    539.696    539.416
 26.170    561.000    542.843     18.157    539.121    542.552    539.121    539.413    539.121
 26.270    565.000    542.571     22.429    538.826    542.268    538.826    539.130    538.826
 26.370    544.000    542.345      1.655    538.531    542.029    538.531    538.848    538.531
 26.470    543.000    542.167      0.833    538.237    541.836    538.237    538.568    538.237
 26.570    586.000    542.039     43.961    537.942    541.692    537.942    538.289    537.942
 26.670    590.000    541.977     48.023    537.648    541.613    537.648    538.012    537.648
 26.770    505.068    542.011    -36.943    537.354    541.628    537.354    537.737    537.354
 26.870    574.296    542.082     32.214    537.060    541.677    537.060    537.464    537.060
 26.970    573.000    542.228     30.772    536.766    541.800    536.766    537.194    536.766
 27.070    537.676    542.490     -4.814    536.473    542.036    536.473    536.926    536.473
 27.170    587.992    542.895     45.098    536.180    542.412    536.180    536.662    536.180
 27.270    543.000    543.491     -0.491    535.887    542.975    535.887    536.402    535.887
 27.370    517.000    544.359    -27.359    535.595    543.806    535.595    536.146    535.595
 27.470    560.402    545.640     14.762    535.303    545.046    535.303    535.895    535.303
 27.570    589.000    547.706     41.294    535.011    547.064    535.011    535.650    535.011
 27.670    572.000    551.738     20.262    534.720    551.041    534.720    535.413    534.720
 27.770    581.000    562.020     18.980    534.429    561.257    534.429    535.184    534.429
 27.870    565.000    589.721    -24.721    534.138    588.877    534.138    534.966    534.138
 27.970    699.000    653.082     45.918    533.848    652.133    533.848    534.761    533.848
 28.070    727.083    762.130    -35.047    533.558    761.051    533.558    534.571    533.558
 28.170    919.000    889.130     29.870    533.269    887.905    533.269    534.401    533.269
 28.270    969.000    959.970      9.030    532.981    958.604    532.981    534.256    532.981
 28.370    929.000    919.010      9.990    532.692    917.503    532.692    534.143    532.692
 28.470    830.936    809.486     21.450    532.405    807.798    532.405    534.072    532.405
 28.570    735.000    716.452     18.548    532.118    714.506    532.118    534.058    532.118
 28.670    719.130    690.244     28.886    531.831    687.942    531.831    534.125    531.831
 28.770    783.000    731.300     51.700    531.545    728.508    531.545    534.320    531.545
 28.870    758.825    801.760    -42.935    531.260    798.266    531.260    534.732    531.260
 28.970    840.000    841.127     -1.127    530.975    836.550    530.975    535.539    530.975
 29.070    784.000    809.120    -25.120    530.691    802.766    530.691    537.049    530.691
 29.170    752.963    730.973     21.990    530.407    721.685    530.407    539.710    530.407
 29.270    721.000    655.450     65.550    530.125    641.569    530.125    544.020    530.125
 29.370    596.593    608.196    -11.603    529.842    587.785    529.842    550.261    529.842
 29.470    615.000    588.553     26.447    529.561    560.069    529.561    558.047    529.561
 29.570    659.000    584.327     74.673    529.280    547.966    529.280    565.641    529.280
 29.670    609.000    583.481     25.519    529.000    542.726    529.000    569.753    529.000
 29.770    581.000    579.123      1.877    528.721    540.029    528.721    567.813    528.721
 29.870    599.670    570.814     28.855    528.442    538.324    528.442    560.930    528.442
 29.970    596.000    561.391     34.609    528.164    537.136    528.164    552.418    528.164
 30.070    599.000    553.206     45.794    527.887    536.313    527.887    544.779    527.887
 30.170    552.000    547.191      4.809    527.611    535.821    527.611    538.979    527.611
 30.270    574.000    543.420     30.580    527.336    535.748    527.336    535.004    527.336
 30.370    563.000    541.846     21.154    527.061    536.477    527.061    532.426    527.061
 30.470    553.529    543.049     10.480    526.787    539.073    526.787    530.756    526.787
 30.570    578.000    548.734     29.266    526.514    545.620    526.514    529.616    526.514
 30.670    572.000    561.143     10.857    526.242    558.594    526.242    528.770    526.242
 30.770    597.000    580.530     16.470    525.971    578.375    525.971    528.090    525.971
 30.870    619.000    601.653     17.347    525.700    599.792    525.700    527.511    525.700
 30.970    618.000    612.996      5.004    525.431    611.371    525.431    527.001    525.431
 31.070    631.000    605.750     25.250    525.162    604.326    525.162    526.539    525.162
 31.170    554.000    585.324    -31.324    524.895    584.073    524.895    526.115    524.895
 31.270    519.000    563.495    -44.495    524.628    562.386    524.628    525.719    524.628
 31.370    565.000    547.465     17.535    524.362    546.472    524.362    525.346    524.362
 31.470    514.000    538.261    -24.261    524.098    537.364    524.098    524.990    524.098
 31.570    522.679    533.769    -11.090    523.834    532.950    523.834    524.650    523.834
 31.670    548.000    531.669     16.331    523.571    530.916    523.571    524.322    523.571
 31.770    552.354    530.577     21.777    523.309    529.881    523.309    524.003    523.309
 31.870    482.407    529.898    -47.490    523.049    529.251    523.049    523.694    523.049
 31.970    532.000    529.426      2.574    522.789    528.822    522.789    523.391    522.789
 32.070    556.000    529.094     26.906    522.530    528.528    522.530    523.095    522.530
 32.170    533.000    528.875      4.125    522.272    528.342    522.272    522.804    522.272
 32.270    517.000    528.760    -11.760    522.016    528.256    522.016    522.519    522.016
 32.370    549.000    528.748     20.252    521.760    528.270    521.760    522.237    521.760
 32.470    495.833    528.848    -33.015    521.506    528.393    521.506    521.960    521.506
 32.570    542.000    529.075     12.925    521.253    528.641    521.253    521.686    521.253
 32.670    574.000    529.445     44.555    521.000    529.029    521.000    521.415    521.000
 32.770    547.000    529.997     17.003    520.749    529.597    520.749    521.147    520.749
 32.870    532.214    530.780      1.434    520.499    530.395    520.499    520.882    520.499
 32.970    535.281    531.869      3.412    520.250    531.498    520.250    520.620    520.250
 33.070    515.000    533.378    -18.378    520.003    533.019    520.003    520.360    520.003
 33.170    559.905    535.508     24.397    519.756    535.160    519.756    520.102    519.756
 33.270    552.000    538.714     13.286    519.511    538.375    519.511    519.847    519.511
 33.370    514.000    544.228    -30.228    519.266    543.898    519.266    519.593    519.266
 33.470    544.927    555.375    -10.448    519.023    555.051    519.023    519.342    519.023
 33.570    591.000    579.637     11.363    518.781    579.316    518.781    519.092    518.781
 33.670    616.000    629.518    -13.518    518.541    629.194    518.541    518.845    518.541
 33.770    724.000    717.672      6.328    518.301    717.338    518.301    518.599    518.301
 33.870    847.000    843.515      3.485    518.063    843.168    518.063    518.355    518.063
 33.970   1021.000    976.620     44.380    517.826    976.267    517.826    518.112    517.826
 34.070   1078.259   1053.826     24.433    517.591   1053.486    517.591    517.872    517.591
 34.170   1072.492   1024.225     48.267    517.356   1023.915    517.356    517.633    517.356
 34.270    919.000    909.773      9.227    517.123    909.492    517.123    517.395    517.123
 34.370    780.705    774.908      5.797    516.891    774.643    516.891    517.160    516.891
 34.470    648.000    666.715    -18.715    516.660    666.456    516.660    516.925    516.660
 34.570    608.000    598.647      9.353    516.431    598.389    516.431    516.693    516.431
 34.670    539.000    562.738    -23.738    516.203    562.480    516.203    516.462    516.203
 34.770    523.000    545.580    -22.580    515.976    545.323    515.976    516.233    515.976
 34.870    577.000    537.217     39.783    515.751    536.963    515.751    516.005    515.751
 34.970    584.000    532.520     51.480    515.526    532.267    515.526    515.778    515.526
 35.070    561.000    529.395     31.605    515.304    529.144    515.304    515.554    515.304
 35.170    513.000    527.076    -14.076    515.082    526.827    515.082    515.330    515.082
 35.270    503.000    525.259    -22.259    514.862    525.012    514.862    515.109    514.862
 35.370    481.827    523.792    -41.964    514.643    523.546    514.643    514.889    514.643
 35.470    546.054    522.581     23.473    514.426    522.336    514.426    514.670    514.426
 35.570    530.000    521.563      8.437    514.210    521.319    514.210    514.453    514.210
 35.670    555.238    520.693     34.545    513.995    520.451    513.995    514.237    513.995
 35.770    474.000    519.940    -45.940    513.782    519.698    513.782    514.023    513.782
 35.870    530.017    519.280     10.737    513.570    519.039    513.570    513.810    513.570
 35.970    480.651    518.695    -38.044    513.359    518.454    513.359    513.599    513.359
 36.070    502.000    518.172    -16.172    513.150    517.932    513.150    513.390    513.150
 36.170    525.000    517.702      7.298    512.942    517.462    512.942    513.182    512.942
 36.270    486.000    517.277    -31.277    512.736    517.037    512.736    512.975    512.736
 36.370    546.289    516.892     29.398    512.531    516.652    512.531    512.770    512.531
 36.470    506.000    516.544    -10.544    512.327    516.304    512.327    512.567    512.327
 36.570    521.000    516.231      4.769    512.125    515.991    512.125    512.365    512.125
 36.670    505.035    515.953    -10.918    511.925    515.714    511.925    512.164    511.925
 36.770    522.000    515.717      6.283    511.725    515.478    511.725    511.965    511.725
 36.870    562.000    515.538     46.462    511.528    515.297    511.528    511.768    511.528
 36.970    488.467    515.457    -26.990    511.331    515.216    511.331    511.572    511.331
 37.070    524.971    515.575      9.396    511.137    515.334    511.137    511.378    511.137
 37.170    517.662    516.094      1.568    510.943    515.852    510.943    511.185    510.943
 37.270    549.997    517.313     32.684    510.751    517.071    510.751    510.994    510.751
 37.370    550.400    519.522     30.878    510.561    519.279    510.561    510.804    510.561
 37.470    467.000    522.736    -55.736    510.372    522.493    510.372    510.616    510.372
 37.570    526.000    526.367     -0.367    510.184    526.124    510.184    510.430    510.184
 37.670    530.448    529.096      1.352    509.998    528.853    509.998    510.245    509.998
 37.770    548.638    529.509     19.129    509.814    529.267    509.814    510.061    509.814
 37.870    481.118    527.423    -46.304    509.631    527.181    509.631    509.880    509.631
 37.970    543.000    524.026     18.974    509.449    523.786    509.449    509.699    509.449
 38.070    530.000    520.542      9.458    509.269    520.301    509.269    509.521    509.269
 38.170    498.000    517.563    -19.563    509.090    517.319    509.090    509.343    509.090
 38.270    509.000    515.296     -6.296    508.913    515.049    508.913    509.168    508.913
 38.370    508.000    513.724     -5.724    508.738    513.473    508.738    508.994    508.738
 38.470    530.369    512.691     17.678    508.564    512.436    508.564    508.822    508.564
 38.570    494.000    512.021    -18.021    508.391    511.763    508.391    508.651    508.391
 38.670    524.040    511.570     12.471    508.220    511.309    508.220    508.482    508.220
 38.770    480.000    511.240    -31.240    508.051    510.977    508.051    508.314    508.051
 38.870    518.000    510.974      7.026    507.883    510.709    507.883    508.148    507.883
 38.970    493.000    510.743    -17.743    507.716    510.477    507.716    507.984    507.716
 39.070    489.000    510.535    -21.535    507.552    510.266    507.552    507.821    507.552
 39.170    515.000    510.342      4.658    507.388    510.070    507.388    507.660    507.388
 39.270    516.161    510.161      5.999    507.227    509.888    507.227    507.500    507.227
 39.370    501.000    509.992     -8.992    507.066    509.716    507.066    507.342    507.066
 39.470    472.000    509.831    -37.831    506.908    509.553    506.908    507.186    506.908
 39.570    526.000    509.679     16.321    506.750    509.399    506.750    507.032    506.750
 39.670    526.000    509.536     16.464    506.595    509.252    506.595    506.879    506.595
 39.770    493.000    509.400    -16.400    506.441    509.114    506.441    506.727    506.441
 39.870    484.000    509.271    -25.271    506.288    508.982    506.288    506.578    506.288
 39.970    566.000    509.151     56.849    506.137    508.859    506.137    506.430    506.137
 40.070    492.000    509.038    -17.038    505.988    508.743    505.988    506.283    505.988
 40.170    535.774    508.933     26.841    505.840    508.635    505.840    506.138    505.840
 40.270    508.000    508.837     -0.837    505.694    508.536    505.694    505.995    505.694
 40.370    533.165    508.750     24.414    505.549    508.446    505.549    505.854    505.549
 40.470    508.663    508.674     -0.011    505.406    508.366    505.406    505.714    505.406
 40.570    481.000    508.609    -27.609    505.265    508.298    505.265    505.576    505.265
 40.670    510.000    508.557      1.443    505.125    508.243    505.125    505.440    505.125
 40.770    522.000    508.521     13.479    504.986    508.202    504.986    505.305    504.986
 40.870    516.000    508.501      7.499    504.850    508.179    504.850    505.172    504.850
 40.970    492.556    508.502    -15.947    504.714    508.176    504.714    505.041    504.714
 41.070    510.981    508.528      2.452    504.581    508.198    504.581    504.911    504.581
 41.170    536.401    508.585     27.816    504.449    508.250    504.449    504.783    504.449
 41.270    502.000    508.678     -6.678    504.318    508.340    504.318    504.657    504.318
 41.370    537.919    508.819     29.099    504.189    508.477    504.189    504.533    504.189
 41.470    534.000    509.022     24.978    504.062    508.675    504.062    504.410    504.062
 41.570    490.984    509.307    -18.323    503.936    508.955    503.936    504.289    503.936
 41.670    550.821    509.713     41.109    503.812    509.356    503.812    504.170    503.812
 41.770    536.844    510.319     26.525    503.689    509.957    503.689    504.052    503.689
 41.870    517.000    511.320      5.680    503.568    510.953    503.568    503.937    503.568
 41.970    524.680    513.169     11.511    503.449    512.798    503.449    503.823    503.449
 42.070    505.000    516.807    -11.807    503.331    516.432    503.331    503.710    503.331
 42.170    500.467    523.820    -23.353    503.214    523.442    503.214    503.600    503.214
 42.270    525.872    536.196    -10.323    503.100    535.817    503.100    503.491    503.100
 42.370    520.000    555.321    -35.321    502.986    554.945    502.986    503.385    502.986
 42.470    534.204    580.272    -46.068    502.875    579.902    502.875    503.280    502.875
 42.570    578.431    606.113    -27.682    502.765    605.750    502.765    503.176    502.765
 42.670    566.000    623.795    -57.795    502.656    623.438    502.656    503.075    502.656
 42.770    646.625    624.670     21.955    502.549    624.309    502.549    502.975    502.549
 42.870    541.000    608.177    -67.177    502.444    607.802    502.444    502.878    502.444
 42.970    625.487    582.509     42.977    502.340    582.113    502.340    502.782    502.340
 43.070    522.008    557.026    -35.019    502.238    556.608    502.238    502.688    502.238
 43.170    495.000    537.109    -42.109    502.138    536.670    502.138    502.596    502.138
 43.270    492.000    523.999    -31.999    502.039    523.544    502.039    502.506    502.039
 43.370    532.425    516.443     15.982    501.941    515.974    501.941    502.418    501.941
 43.470    528.000    512.446     15.554    501.845    511.964    501.845    502.331    501.845
 43.570    525.000    510.358     14.642    501.751    509.865    501.751    502.247    501.751
 43.670    506.521    509.182     -2.661    501.658    508.677    501.658    502.165    501.658
 43.770    492.000    508.428    -16.428    501.567    507.912    501.567    502.085    501.567
 43.870    502.000    507.888     -5.888    501.478    507.360    501.478    502.007    501.478
 43.970    516.000    507.474      8.526    501.389    506.934    501.389    501.931    501.389
 44.070    535.000    507.148     27.852    501.303    506.595    501.303    501.857    501.303
 44.170    537.000    506.887     30.113    501.218    506.321    501.218    501.785    501.218
 44.270    471.880    506.677    -34.798    501.135    506.097    501.135    501.715    501.135
 44.370    474.818    506.508    -31.690    501.053    505.914    501.053    501.648    501.053
 44.470    519.207    506.373     12.833    500.972    505.763    500.972    501.583    500.972
 44.570    495.905    506.267    -10.362    500.894    505.641    500.894    501.520    500.894
 44.670    510.000    506.185      3.815    500.816    505.542    500.816    501.460    500.816
 44.770    494.753    506.126    -11.372    500.741    505.464    500.741    501.403    500.741
 44.870    454.000    506.085    -52.085    500.667    505.405    500.667    501.347    500.667
 44.970    498.000    506.063     -8.063    500.594    505.363    500.594    501.295    500.594
 45.070    534.000    506.059     27.941    500.523    505.337    500.523    501.245    500.523
 45.170    516.000    506.070      9.930    500.453    505.326    500.453    501.198    500.453
 45.270    513.000    506.098      6.902    500.385    505.330    500.385    501.154    500.385
 45.370    528.000    506.142     21.858    500.319    505.348    500.319    501.113    500.319
 45.470    465.447    506.203    -40.756    500.254    505.382    500.254    501.075    500.254
 45.570    546.746    506.280     40.466    500.190    505.430    500.190    501.041    500.190
 45.670    496.447    506.376     -9.929    500.129    505.495    500.129    501.010    500.129
 45.770    507.525    506.491      1.034    500.068    505.577    500.068    500.982    500.068
 45.870    469.000    506.627    -37.627    500.009    505.677    500.009    500.959    500.009
 45.970    489.773    506.786    -17.013    499.952    505.797    499.952    500.940    499.952
 46.070    526.174    506.970     19.204    499.896    505.940    499.896    500.926    499.896
 46.170    551.985    507.183     44.802    499.841    506.108    499.841    500.916    499.841
 46.270    488.347    507.429    -19.082    499.789    506.305    499.789    500.911    499.789
 46.370    540.000    507.712     32.288    499.737    506.536    499.737    500.913    499.737
 46.470    463.000    508.041    -45.041    499.687    506.808    499.687    500.920    499.687
 46.570    490.000    508.424    -18.424    499.639    507.128    499.639    500.934    499.639
 46.670    524.446    508.875     15.571    499.592    507.510    499.592    500.956    499.592
 46.770    488.507    509.417    -20.910    499.546    507.977    499.546    500.986    499.546
 46.870    509.000    510.096     -1.096    499.502    508.571    499.502    501.025    499.502
 46.970    500.000    511.011    -11.011    499.460    509.395    499.460    501.074    499.460
 47.070    557.000    512.384     44.616    499.419    510.665    499.419    501.135    499.419
 47.170    470.134    514.649    -44.515    499.379    512.814    499.379    501.210    499.379
 47.270    536.274    518.536     17.738    499.341    516.570    499.341    501.300    499.341
 47.370    528.000    525.020      2.980    499.304    522.904    499.304    501.407    499.304
 47.470    528.000    534.997     -6.997    499.269    532.711    499.269    501.535    499.269
 47.570    532.000    548.649    -16.649    499.235    546.167    499.235    501.688    499.235
 47.670    534.238    564.712    -30.474    499.202    562.005    499.202    501.868    499.202
 47.770    532.054    579.906    -47.852    499.171    576.943    499.171    502.083    499.171
 47.870    596.000    589.393      6.607    499.142    586.139    499.142    502.340    499.142
 47.970    608.000    589.399     18.601    499.114    585.813    499.114    502.647    499.114
 48.070    581.000    580.457      0.543    499.087    576.482    499.087    503.016    499.087
 48.170    610.031    566.867     43.164    499.062    562.429    499.062    503.466    499.062
 48.270    571.000    553.316     17.684    499.038    548.308    499.038    504.023    499.038
 48.370    568.000    542.767     25.233    499.015    537.037    499.015    504.730    499.015
 48.470    513.000    536.292    -23.292    498.994    529.610    498.994    505.666    498.994
 48.570    562.000    533.713     28.287    498.974    525.701    498.974    506.980    498.974
 48.670    526.000    534.409     -8.409    498.956    524.425    498.956    508.936    498.956
 48.770    503.087    537.963    -34.877    498.939    524.923    498.939    511.976    498.939
 48.870    526.315    544.472    -18.157    498.923    526.628    498.923    516.763    498.923
 48.970    558.128    554.546      3.582    498.909    529.306    498.909    524.145    498.909
 49.070    545.000    569.117    -24.117    498.896    533.020    498.896    534.988    498.896
 49.170    558.000    589.184    -31.184    498.885    538.230    498.885    549.832    498.885
 49.270    613.000    615.818     -2.818    498.875    546.274    498.875    568.409    498.875
 49.370    631.000    650.879    -19.879    498.866    560.668    498.866    589.062    498.866
 49.470    788.000    699.058     88.942    498.858    589.670    498.858    608.220    498.858
 49.570    785.000    771.643     13.357    498.852    649.813    498.852    620.637    498.852
 49.670    921.000    890.777     30.223    498.847    767.840    498.847    621.708    498.847
 49.770   1033.249   1088.015    -54.766    498.844    975.782    498.844    610.960    498.844
 49.870   1409.000   1388.093     20.907    498.842   1294.266    498.842    592.515    498.842
 49.970   1819.000   1779.864     39.136    498.841   1706.756    498.841    571.787    498.841
 50.070   2134.000   2192.678    -58.678    498.841   2138.703    498.841    552.699    498.841
 50.170   2507.000   2500.751      6.249    498.843   2462.388    498.843    537.191    498.843
 50.270   2596.000   2574.899     21.101    498.846   2548.139    498.846    525.718    498.846
 50.370   2241.000   2373.966   -132.966    498.850   2355.186    498.850    517.834    498.850
 50.470   2009.000   1984.504     24.496    498.856   1970.892    498.856    512.696    498.856
 50.570   1600.000   1547.003     52.997    498.862   1536.632    498.862    509.435    498.862
 50.670   1132.000   1171.307    -39.307    498.870   1162.975    498.870    507.352    498.870
 50.770    850.000    906.617    -56.617    498.880    899.628    498.880    505.969    498.880
 50.870    730.390    749.840    -19.451    498.890    743.801    498.890    504.995    498.890
 50.970    634.000    670.581    -36.581    498.902    665.261    498.902    504.270    498.902
 51.070    653.000    634.538     18.462    498.915    629.788    498.915    503.704    498.915
 51.170    568.354    616.031    -47.677    498.930    611.745    498.930    503.251    498.930
 51.270    645.000    601.250     43.750    498.945    597.344    498.945    502.882    498.945
 51.370    613.000    586.121     26.879    498.962    582.529    498.962    502.578    498.962
 51.470    589.000    571.375     17.625    498.980    568.047    498.980    502.327    498.980
 51.570    571.876    558.613     13.264    498.999    555.506    498.999    502.119    498.999
 51.670    527.000    548.793    -21.793    499.019    545.874    499.019    501.947    499.019
 51.770    563.345    542.031     21.315    499.041    539.274    499.041    501.804    499.041
 51.870    557.000    537.860     19.140    499.063    535.242    499.063    501.687    499.063
 51.970    529.000    535.611     -6.611    499.087    533.111    499.087    501.591    499.087
 52.070    519.639    534.700    -15.061    499.112    532.302    499.112    501.514    499.112
 52.170    577.000    534.770     42.230    499.138    532.458    499.138    501.453    499.138
 52.270    545.000    535.701      9.299    499.166    533.463    499.166    501.406    499.166
 52.370    569.000    537.621     31.379    499.194    535.445    499.194    501.372    499.194
 52.470    568.000    541.006     26.994    499.224    538.882    499.224    501.350    499.224
 52.570    539.800    546.963     -7.163    499.255    544.881    499.255    501.337    499.255
 52.670    571.832    557.705     14.127    499.286    555.657    499.286    501.334    499.286
 52.770    588.000    577.103     10.897    499.319    575.081    499.319    501.339    499.319
 52.870    619.000    610.887      8.113    499.353    608.884    499.353    501.353    499.353
 52.970    702.207    665.832     36.375    499.389    663.841    499.389    501.373    499.389
 53.070    742.840    747.339     -4.499    499.425    745.355    499.425    501.401    499.425
 53.170    905.000    855.552     49.448    499.462    853.571    499.462    501.435    499.462
 53.270   1018.000    981.153     36.847    499.500    979.173    499.500    501.476    499.500
 53.370   1115.000   1102.639     12.361    499.540   1100.660    499.540    501.523    499.540
 53.470   1201.186   1188.116     13.070    499.580   1186.137    499.580    501.575    499.580
 53.570   1183.000   1207.233    -24.233    499.622   1205.250    499.622    501.634    499.622
 53.670   1069.000   1151.905    -82.905    499.665   1149.908    499.665    501.698    499.665
 53.770   1042.128   1043.805     -1.677    499.708   1041.782    499.708    501.769    499.708
 53.870    897.000    916.899    -19.899    499.753    914.841    499.753    501.845    499.753
 53.970    811.170    798.684     12.486    499.798    796.581    499.798    501.927    499.798
 54.070    674.236    704.237    -30.001    499.845    702.086    499.845    502.015    499.845
 54.170    627.650    637.499     -9.849    499.893    635.295    499.893    502.109    499.893
 54.270    593.000    595.027     -2.027    499.941    592.767    499.941    502.209    499.941
 54.370    568.000    570.244     -2.244    499.991    567.923    499.991    502.316    499.991
 54.470    563.000    556.673      6.327    500.042    554.287    500.042    502.430    500.042
 54.570    579.000    549.503     29.497    500.093    547.047    500.093    502.552    500.093
 54.670    507.095    545.778    -38.682    500.146    543.244    500.146    502.680    500.146
 54.770    539.000    543.926     -4.926    500.199    541.309    500.199    502.817    500.199
 54.870    612.000    543.206     68.794    500.253    540.497    500.253    502.963    500.253
 54.970    500.351    543.295    -42.944    500.309    540.487    500.309    503.118    500.309
 55.070    552.000    544.070      7.930    500.365    541.153    500.365    503.283    500.365
 55.170    574.000    545.500     28.500    500.422    542.464    500.422    503.458    500.422
 55.270    568.911    547.607     21.304    500.480    544.442    500.480    503.646    500.480
 55.370    606.000    550.464     55.536    500.539    547.158    500.539    503.846    500.539
 55.470    559.650    554.208      5.443    500.599    550.747    500.599    504.060    500.599
 55.570    532.025    559.098    -27.073    500.660    555.468    500.660    504.289    500.660
 55.670    530.000    565.665    -35.665    500.721    561.850    500.721    504.536    500.721
 55.770    537.000    575.060    -38.060    500.784    571.042    500.784    504.801    500.784
 55.870    610.000    589.765     20.235    500.847    585.521    500.847    505.088    500.847
 55.970    637.000    614.783     22.217    500.911    610.290    500.911    505.398    500.911
 56.070    630.000    659.194    -29.194    500.976    654.422    500.976    505.735    500.976
 56.170    708.000    737.314    -29.314    501.042    732.230    501.042    506.102    501.042
 56.270    838.000    867.950    -29.950    501.108    862.515    501.108    506.503    501.108
 56.370   1006.000   1069.915    -63.915    501.176   1064.090    501.176    506.942    501.176
 56.470   1327.757   1353.118    -25.361    501.244   1346.864    501.244    507.427    501.244
 56.570   1714.000   1707.109      6.891    501.313   1700.388    501.313    507.964    501.313
 56.670   2019.000   2091.432    -72.432    501.382   2084.210    501.382    508.560    501.382
 56.770   2513.034   2433.232     79.802    501.453   2425.472    501.453    509.227    501.453
 56.870   2732.757   2641.078     91.679    501.524   2632.727    501.524    509.976    501.524
 56.970   2596.000   2645.374    -49.374    501.596   2636.338    501.596    510.823    501.596
 57.070   2350.874   2445.033    -94.159    501.669   2435.165    501.669    511.787    501.669
 57.170   2199.129   2108.419     90.709    501.742   2097.530    501.742    512.893    501.742
 57.270   1716.348   1727.180    -10.831    501.816   1715.059    501.816    514.172    501.816
 57.370   1429.000   1375.056     53.944    501.891   1361.462    501.891    515.672    501.891
 57.470   1074.000   1093.507    -19.507    501.967   1078.147    501.967    517.461    501.967
 57.570    892.000    893.892     -1.892    502.043    876.365    502.043    519.658    502.043
 57.670    713.612    767.109    -53.497    502.120    746.819    502.120    522.462    502.120
 57.770    709.181    695.265     13.916    502.198    671.260    502.198    526.231    502.198
 57.870    711.000    661.007     49.993    502.276    631.725    502.276    531.570    502.276
 57.970    651.988    652.505     -0.517    502.355    615.405    502.355    539.456    502.355
 58.070    666.000    664.562      1.438    502.434    615.659    502.434    551.330    502.434
 58.170    751.927    697.382     54.545    502.515    630.781    502.515    569.097    502.515
 58.270    707.664    754.263    -46.599    502.595    661.894    502.595    594.934    502.595
 58.370    756.000    838.760    -82.760    502.677    710.569    502.677    630.826    502.677
 58.470    932.000    951.875    -19.875    502.759    776.742    502.759    677.841    502.759
 58.570   1130.611   1089.580     41.032    502.841    857.132    502.841    735.233    502.841
 58.670   1267.329   1241.175     26.154    502.925    944.564    502.925    799.483    502.925
 58.770   1365.000   1389.576    -24.576    503.008   1029.152    503.008    863.389    503.008
 58.870   1534.000   1514.461     19.539    503.093   1101.739    503.093    915.789    503.093
 58.970   1595.000   1596.388     -1.388    503.178   1155.766    503.178    943.795    503.178
 59.070   1669.000   1620.754     48.246    503.263   1185.098    503.263    938.938    503.263
 59.170   1639.000   1583.786     55.214    503.349   1184.285    503.349    902.887    503.349
 59.270   1496.000   1497.214     -1.214    503.436   1154.554    503.436    846.138    503.436
 59.370   1444.501   1384.957     59.543    503.523   1107.070    503.523    781.440    503.523
 59.470   1208.991   1272.887    -63.896    503.610   1057.660    503.610    718.842    503.610
 59.570   1152.508   1181.837    -29.329    503.698   1021.089    503.698    664.414    503.698
 59.670   1145.000   1127.690     17.310    503.787   1010.607    503.787    620.794    503.787
 59.770   1131.000   1122.339      8.661    503.875   1037.971    503.875    588.117    503.875
 59.870   1181.000   1170.345     10.655    503.965   1109.155    503.965    564.976    503.965
 59.970   1310.547   1264.143     46.404    504.055   1218.695    504.055    549.272    504.055
 60.070   1441.000   1381.929     59.071    504.145   1346.926    504.145    538.880    504.145
 60.170   1537.225   1489.434     47.791    504.236   1461.368    504.236    532.021    504.236
 60.270   1574.000   1547.605     26.395    504.327   1524.277    504.327    527.393    504.327
 60.370   1485.888   1528.506    -42.618    504.419   1508.571    504.419    524.139    504.419
 60.470   1461.000   1431.047     29.953    504.511   1413.666    504.511    521.738    504.511
 60.570   1251.021   1280.078    -29.057    504.603   1264.696    504.603    519.888    504.603
 60.670   1116.000   1110.246      5.754    504.696   1096.465    504.696    518.424    504.696
 60.770    973.062    951.171     21.891    504.789    938.680    504.789    517.255    504.789
 60.870    830.000    821.117      8.883    504.882    809.654    504.882    516.333    504.882
 60.970    747.000    726.745     20.255    504.976    716.076    504.976    515.640    504.976
 61.070    679.000    666.278     12.722    505.070    656.173    505.070    515.168    505.070
 61.170    623.762    634.093    -10.331    505.165    624.324    505.165    514.923    505.165
 61.270    616.000    624.926     -8.926    505.260    615.260    505.260    514.907    505.260
 61.370    618.000    636.488    -18.488    505.355    626.698    505.355    515.115    505.355
 61.470    633.778    670.153    -36.375    505.450    660.038    505.450    515.519    505.450
 61.570    700.000    729.838    -29.838    505.546    719.252    505.546    516.063    505.546
 61.670    762.002    819.348    -57.346    505.642    808.247    505.642    516.646    505.642
 61.770    902.000    938.779    -36.779    505.738    927.265    505.738    517.125    505.738
 61.870   1068.000   1080.950    -12.950    505.835   1069.298    505.835    517.331    505.835
 61.970   1211.000   1229.170    -18.170    505.932   1217.782    505.932    517.146    505.932
 62.070   1296.000   1357.601    -61.601    506.029   1346.894    506.029    516.562    506.029
 62.170   1369.000   1436.181    -67.181    506.126   1426.469    506.126    515.686    506.126
 62.270   1381.000   1442.137    -61.137    506.223   1433.572    506.223    514.677    506.223
 62.370   1293.000   1373.088    -80.088    506.321   1365.670    506.321    513.671    506.321
 62.470   1227.000   1248.810    -21.810    506.419   1242.437    506.419    512.760    506.419
 62.570   1077.000   1099.295    -22.295    506.517   1093.812    506.517    511.994    506.517
 62.670    969.890    951.825     18.065    506.615    947.060    506.615    511.387    506.615
 62.770    810.000    824.786    -14.786    506.714    820.581    506.714    510.931    506.714
 62.870    745.329    726.653     18.677    506.812    722.873    506.812    510.602    506.812
 62.970    704.616    657.731     46.885    506.911    654.273    506.911    510.375    506.911
 63.070    576.000    613.285    -37.285    507.010    610.075    507.010    510.222    507.010
 63.170    562.000    586.752    -24.752    507.109    583.738    507.109    510.122    507.109
 63.270    612.000    572.062     39.938    507.208    569.209    507.208    510.058    507.208
 63.370    568.000    564.782      3.218    507.307    562.064    507.307    510.020    507.307
 63.470    538.000    562.337    -24.337    507.406    559.737    507.406    510.000    507.406
 63.570    581.000    563.800     17.200    507.506    561.304    507.506    509.993    507.506
 63.670    601.000    569.590     31.410    507.605    567.185    507.605    509.997    507.605
 63.770    581.000    581.198     -0.198    507.705    578.874    507.705    510.010    507.705
 63.870    626.318    600.888     25.430    507.804    598.634    507.804    510.031    507.804
 63.970    683.000    631.205     51.795    507.904    629.011    507.904    510.058    507.904
 64.070    673.000    674.182     -1.182    508.003    672.037    508.003    510.091    508.003
 64.170    801.000    730.290     70.710    508.103    728.186    508.103    510.130    508.103
 64.270    838.000    797.328     40.672    508.203    795.261    508.203    510.173    508.203
 64.370    843.406    869.572    -26.166    508.302    867.538    508.302    510.221    508.302
 64.470    912.171    937.625    -25.454    508.402    935.628    508.402    510.273    508.402
 64.570   1023.000    989.867     33.133    508.502    987.913    508.502    510.328    508.502
 64.670   1009.000   1016.186     -7.186    508.601   1014.285    508.601    510.387    508.601
 64.770   1045.978   1012.203     33.775    508.701   1010.360    508.701    510.449    508.701
 64.870    943.997    980.580    -36.583    508.800    978.797    508.800    510.514    508.800
 64.970    931.138    929.229      1.909    508.900    927.505    508.900    510.581    508.900
 65.070    837.000    868.395    -31.395    508.999    866.725    508.999    510.651    508.999
 65.170    822.000    807.448     14.552    509.098    805.823    509.098    510.724    509.098
 65.270    760.000    752.560      7.440    509.197    750.974    509.197    510.798    509.197
 65.370    717.000    706.291     10.709    509.296    704.735    509.296    510.875    509.296
 65.470    647.923    668.689    -20.766    509.395    667.155    509.395    510.954    509.395
 65.570    589.000    638.770    -49.770    509.494    637.253    509.494    511.035    509.494
 65.670    619.095    615.391      3.704    509.593    613.886    509.593    511.117    509.593
 65.770    620.000    597.477     22.523    509.692    595.981    509.692    511.202    509.692
 65.870    574.000    584.073    -10.073    509.790    582.585    509.790    511.288    509.790
 65.970    574.000    574.381     -0.381    509.888    572.899    509.888    511.375    509.888
 66.070    599.287    567.747     31.540    509.986    566.271    509.986    511.464    509.986
 66.170    542.037    563.630    -21.592    510.084    562.160    510.084    511.555    510.084
 66.270    568.883    561.574      7.310    510.182    560.108    510.182    511.647    510.182
 66.370    554.000    561.214     -7.214    510.279    559.752    510.279    511.741    510.279
 66.470    547.007    562.308    -15.300    510.377    560.848    510.377    511.836    510.377
 66.570    548.000    564.790    -16.790    510.474    563.331    510.474    511.933    510.474
 66.670    553.000    568.869    -15.869    510.570    567.409    510.570    512.031    510.570
 66.770    548.000    575.194    -27.194    510.667    573.731    510.667    512.130    510.667
 66.870    550.722    585.145    -34.423    510.763    583.676    510.763    512.231    510.763
 66.970    612.000    601.275     10.725    510.859    599.798    510.859    512.334    510.859
 67.070    619.000    627.847     -8.847    510.955    626.358    510.955    512.438    510.955
 67.170    704.906    671.292     33.613    511.051    669.788    511.051    512.543    511.051
 67.270    740.000    740.243     -0.243    511.146    738.720    511.146    512.650    511.146
 67.370    839.000    844.675     -5.675    511.241    843.131    511.241    512.759    511.241
 67.470    998.468    993.799      4.669    511.335    992.236    511.335    512.870    511.335
 67.570   1183.273   1192.695     -9.422    511.429   1191.116    511.429    512.982    511.429
 67.670   1471.079   1438.314     32.765    511.523   1436.729    511.523    513.096    511.523
 67.770   1695.000   1715.974    -20.974    511.617   1714.398    511.617    513.212    511.617
 67.870   1942.962   1997.572    -54.610    511.710   1996.020    511.710    513.331    511.710
 67.970   2332.667   2242.698     89.969    511.803   2241.187    511.803    513.451    511.803
 68.070   2378.832   2404.945    -26.113    511.895   2403.481    511.895    513.574    511.895
 68.170   2451.000   2446.337      4.663    511.987   2444.910    511.987    513.700    511.987
 68.270   2272.000   2355.904    -83.904    512.079   2354.486    512.079    513.828    512.079
 68.370   2202.978   2156.511     46.468    512.170   2155.062    512.170    513.959    512.170
 68.470   1990.000   1891.850     98.150    512.261   1890.337    512.261    514.094    512.261
 68.570   1583.106   1607.536    -24.429    512.351   1605.931    512.351    514.232    512.351
 68.670   1420.000   1339.721     80.279    512.441   1338.012    512.441    514.374    512.441
 68.770   1090.553   1111.296    -20.742    512.531   1109.476    512.531    514.520    512.531
 68.870    884.000    932.119    -48.119    512.620    930.190    512.620    514.670    512.620
 68.970    832.000    801.611     30.389    512.708    799.576    512.708    514.826    512.708
 69.070    721.000    712.593      8.407    512.797    710.457    512.797    514.987    512.797
 69.170    621.321    655.172    -33.851    512.884    652.937    512.884    515.154    512.884
 69.270    652.000    619.671     32.329    512.971    617.337    512.971    515.328    512.971
 69.370    566.000    598.236    -32.236    513.058    595.800    513.058    515.509    513.058
 69.470    643.000    585.286     57.714    513.144    582.742    513.144    515.699    513.144
 69.570    590.000    577.260     12.740    513.230    574.599    513.230    515.898    513.230
 69.670    638.000    572.072     65.928    513.315    569.285    513.315    516.107    513.315
 69.770    578.000    568.592      9.408    513.399    565.666    513.399    516.328    513.399
 69.870    557.000    566.233     -9.233    513.483    563.156    513.483    516.563    513.483
 69.970    569.000    564.706      4.294    513.567    561.462    513.567    516.813    513.567
 70.070    594.817    563.872     30.946    513.650    560.443    513.650    517.079    513.650
 70.170    537.000    563.676    -26.676    513.732    560.042    513.732    517.366    513.732
 70.270    562.000    564.122     -2.122    513.813    560.261    513.813    517.674    513.813
 70.370    584.000    565.284     18.716    513.895    561.168    513.895    518.009    513.895
 70.470    608.000    567.339     40.661    513.975    562.939    513.975    518.373    513.975
 70.570    567.050    570.655     -3.605    514.055    565.934    514.055    518.772    514.055
 70.670    579.595    575.924      3.671    514.134    570.841    514.134    519.212    514.134
 70.770    611.622    584.376     27.246    514.213    578.881    514.213    519.699    514.213
 70.870    597.116    598.046     -0.930    514.291    592.079    514.291    520.245    514.291
 70.970    624.000    620.038      3.962    514.368    613.523    514.368    520.863    514.368
 71.070    659.308    654.679      4.629    514.444    647.519    514.444    521.574    514.444
 71.170    733.000    707.360     25.640    514.520    699.423    514.520    522.412    514.520
 71.270    783.000    783.878     -0.878    514.596    774.976    514.596    523.431    514.596
 71.370    912.731    889.165     23.566    514.670    879.015    514.670    524.727    514.670
 71.470    998.813   1025.493    -26.679    514.744   1013.657    514.744    526.455    514.744
 71.570   1230.587   1190.517     40.071    514.817   1176.308    514.817    528.867    514.817
 71.670   1342.000   1375.676    -33.676    514.890   1358.027    514.890    532.346    514.890
 71.770   1501.166   1565.431    -64.265    514.961   1542.732    514.961    537.444    514.961
 71.870   1751.000   1737.765     13.235    515.032   1707.684    515.032    544.885    515.032
 71.970   1889.000   1866.897     22.103    515.103   1826.234    515.103    555.544    515.103
 72.070   1943.000   1929.940     13.060    515.172   1874.579    515.172    570.340    515.172
 72.170   1976.000   1916.682     59.318    515.241   1841.708    515.241    590.063    515.241
 72.270   1837.000   1835.215      1.785    515.309   1735.285    515.309    615.132    515.309
 72.370   1750.498   1707.356     43.142    515.376   1577.350    515.376    645.316    515.376
 72.470   1590.000   1558.608     31.392    515.442   1394.542    515.442    679.475    515.442
 72.570   1439.000   1410.482     28.518    515.508   1210.612    515.508    715.365    515.508
 72.670   1266.000   1276.998    -10.998    515.573   1043.010    515.573    749.559    515.573
 72.770   1152.000   1164.014    -12.014    515.637    902.040    515.637    777.613    515.637
 72.870   1120.771   1070.542     50.230    515.700    791.430    515.700    794.814    515.700
 72.970   1038.469    991.768     46.701    515.762    709.853    515.762    797.678    515.762
 73.070    879.400    922.635    -43.235    515.824    652.889    515.824    785.570    515.824
 73.170    918.281    860.076     58.205    515.884    614.901    515.884    761.058    515.884
 73.270    804.039    803.125      0.914    515.944    590.433    515.944    728.634    515.944
 73.370    706.343    751.983    -45.640    516.003    574.995    516.003    692.989    516.003
 73.470    664.000    707.226    -43.226    516.061    565.313    516.061    657.973    516.061
 73.570    674.180    669.371      4.809    516.118    559.229    516.118    626.260    516.118
 73.670    632.000    638.650     -6.650    516.174    555.454    516.174    599.372    516.174
 73.770    592.000    614.891    -22.891    516.230    553.282    516.230    577.843    516.230
 73.870    585.000    597.520    -12.520    516.284    552.355    516.284    561.457    516.284
 73.970    568.514    585.663    -17.150    516.338    552.487    516.338    549.526    516.338
 74.070    556.000    578.279    -22.279    516.390    553.535    516.390    541.150    516.390
 74.170    637.000    574.283     62.717    516.442    555.324    516.442    535.422    516.442
 74.270    647.000    572.629     74.371    516.493    557.594    516.493    531.555    516.493
 74.370    638.000    572.340     65.660    516.543    559.983    516.543    528.933    516.543
 74.470    588.840    572.524     16.316    516.591    562.040    516.591    527.114    516.591
 74.570    647.000    572.401     74.599    516.639    563.277    516.639    525.805    516.639
 74.670    667.000    571.390     95.610    516.686    563.301    516.686    524.818    516.686
 74.770    647.000    569.238     77.762    516.732    561.972    516.732    524.041    516.732
 74.870    570.337    566.071      4.266    516.777    559.481    516.777    523.407    516.777
 74.970    541.706    562.287    -20.581    516.821    556.268    516.821    522.874    516.821
 75.070    650.000    558.397     91.603    516.864    552.869    516.864    522.420    516.864
 75.170    570.218    554.915     15.302    516.906    549.815    516.906    522.029    516.906
 75.270    567.000    552.328     14.672    516.947    547.603    516.947    521.688    516.947
 75.370    577.000    551.103     25.897    516.987    546.710    516.987    521.389    516.987
 75.470    510.655    551.713    -41.058    517.026    547.615    517.026    521.127    517.026
 75.570    551.000    554.654     -3.654    517.064    550.819    517.064    520.896    517.064
 75.670    592.000    560.436     31.564    517.101    556.837    517.101    520.692    517.101
 75.770    585.851    569.530     16.321    517.137    566.142    517.137    520.510    517.137
 75.870    591.000    582.252      8.748    517.171    579.053    517.171    520.348    517.171
 75.970    566.000    598.616    -32.616    517.205    595.587    517.205    520.204    517.205
 76.070    652.598    618.165     34.433    517.238    615.290    517.238    520.075    517.238
 76.170    680.000    639.843     40.157    517.269    637.106    517.269    519.959    517.269
 76.270    713.000    661.929     51.071    517.300    659.319    517.300    519.855    517.300
 76.370    640.435    682.088    -41.652    517.329    679.596    517.329    519.761    517.329
 76.470    692.000    697.597     -5.597    517.357    695.215    517.357    519.675    517.357
 76.570    686.000    705.882    -19.882    517.385    703.606    517.385    519.598    517.385
 76.670    733.000    705.344     27.656    517.411    703.168    517.411    519.528    517.411
 76.770    634.000    696.032    -62.032    517.436    693.952    517.436    519.464    517.436
 76.870    643.000    679.621    -36.621    517.459    677.632    517.459    519.406    517.459
 76.970    648.754    658.704     -9.949    517.482    656.799    517.482    519.353    517.482
 77.070    616.000    635.972    -19.972    517.504    634.147    517.504    519.303    517.504
 77.170    566.000    613.706    -47.706    517.524    611.953    517.524    519.258    517.524
 77.270    596.816    593.549      3.267    517.543    591.863    517.543    519.216    517.543
 77.370    540.000    576.466    -36.466    517.562    574.841    517.562    519.177    517.562
 77.470    528.382    562.809    -34.427    517.579    561.240    517.579    519.141    517.579
 77.570    522.000    552.449    -30.449    517.594    550.932    517.594    519.107    517.594
 77.670    518.000    544.951    -26.951    517.609    543.482    517.609    519.075    517.609
 77.770    569.203    539.739     29.464    517.622    538.314    517.622    519.045    517.622
 77.870    552.000    536.229     15.771    517.635    534.845    517.635    519.017    517.635
 77.970    549.000    533.902     15.098    517.646    532.557    517.646    518.990    517.646
 78.070    541.000    532.350      8.650    517.656    531.041    517.656    518.964    517.656
 78.170    491.000    531.344    -40.344    517.664    530.069    517.664    518.939    517.664
 78.270    498.000    530.667    -32.667    517.672    529.423    517.672    518.915    517.672
 78.370    524.000    530.200     -6.200    517.678    528.985    517.678    518.892    517.678
 78.470    535.228    529.875      5.354    517.683    528.687    517.683    518.870    517.683
 78.570    531.000    529.660      1.340    517.687    528.498    517.687    518.848    517.687
 78.670    569.115    529.544     39.571    517.689    528.406    517.689    518.827    517.689
 78.770    551.863    529.530     22.333    517.691    528.413    517.691    518.807    517.691
 78.870    554.000    529.630     24.370    517.691    528.533    517.691    518.787    517.691
 78.970    514.000    529.864    -15.864    517.690    528.785    517.690    518.768    517.690
 79.070    547.704    530.262     17.442    517.687    529.198    517.687    518.750    517.687
 79.170    534.000    530.853      3.147    517.684    529.801    517.684    518.734    517.684
 79.270    524.000    531.668     -7.668    517.679    530.624    517.679    518.721    517.679
 79.370    539.000    532.739      6.261    517.673    531.699    517.673    518.711    517.673
 79.470    493.265    534.094    -40.829    517.665    533.051    517.665    518.705    517.665
 79.570    488.631    535.765    -47.134    517.656    534.712    517.656    518.706    517.656
 79.670    535.000    537.798     -2.798    517.647    536.726    517.647    518.714    517.647
 79.770    508.555    540.265    -31.710    517.635    539.163    517.635    518.732    517.635
 79.870    531.552    543.282    -11.730    517.623    542.139    517.623    518.760    517.623
 79.970    541.000    547.033     -6.033    517.609    545.837    517.609    518.799    517.609
 80.070    556.545    551.794      4.751    517.594    550.534    517.594    518.849    517.594
 80.170    557.000    557.946     -0.946    517.577    556.612    517.577    518.908    517.577
 80.270    551.000    565.957    -14.957    517.560    564.543    517.560    518.972    517.560
 80.370    579.000    576.299      2.701    517.540    574.805    517.540    519.036    517.540
 80.470    570.000    589.340    -19.340    517.520    587.771    517.520    519.093    517.520
 80.570    626.849    605.218     21.631    517.498    603.589    517.498    519.135    517.498
 80.670    605.920    623.746    -17.826    517.475    622.083    517.475    519.152    517.475
 80.770    652.000    644.351      7.649    517.451    642.684    517.451    519.137    517.451
 80.870    678.599    666.064     12.534    517.425    664.428    517.425    519.086    517.425
 80.970    707.000    687.608     19.392    517.398    686.035    517.398    519.003    517.398
 81.070    666.000    707.566    -41.566    517.370    706.080    517.370    518.894    517.370
 81.170    689.408    724.589    -35.181    517.340    723.204    517.340    518.770    517.340
 81.270    733.535    737.545     -4.011    517.309    736.267    517.309    518.638    517.309
 81.370    717.937    745.610    -27.673    517.277    744.437    517.277    518.506    517.277
 81.470    759.000    748.359     10.641    517.243    747.284    517.243    518.380    517.243
 81.570    724.000    745.804    -21.804    517.208    744.817    517.208    518.261    517.208
 81.670    685.808    738.326    -52.518    517.172    737.413    517.172    518.153    517.172
 81.770    718.000    726.602     -8.602    517.134    725.750    517.134    518.056    517.134
 81.870    678.000    711.605    -33.605    517.095    710.802    517.095    517.968    517.095
 81.970    736.000    694.547     41.453    517.054    693.780    517.054    517.889    517.054
 82.070    692.000    676.657     15.343    517.013    675.917    517.013    517.817    517.013
 82.170    666.189    658.919      7.270    516.969    658.198    516.969    517.751    516.969
 82.270    622.000    641.945    -19.945    516.925    641.237    516.925    517.689    516.925
 82.370    637.000    626.023     10.977    516.879    625.325    516.879    517.630    516.879
 82.470    628.000    611.279     16.721    516.831    610.587    516.831    517.572    516.831
 82.570    631.725    597.825     33.899    516.783    597.135    516.783    517.515    516.783
 82.670    577.000    585.818     -8.818    516.733    585.129    516.733    517.458    516.733
 82.770    555.000    575.443    -20.443    516.681    574.753    516.681    517.400    516.681
 82.870    590.159    566.874     23.285    516.628    566.182    516.628    517.343    516.628
 82.970    515.000    560.246    -45.246    516.574    559.551    516.574    517.284    516.574
 83.070    552.000    555.649     -3.649    516.518    554.950    516.518    517.225    516.518
 83.170    523.176    553.105    -29.929    516.461    552.402    516.461    517.165    516.461
 83.270    543.051    552.555     -9.504    516.403    551.848    516.403    517.104    516.403
 83.370    535.365    553.838    -18.473    516.343    553.125    516.343    517.042    516.343
 83.470    538.585    556.677    -18.092    516.282    555.959    516.282    516.978    516.282
 83.570    571.000    560.675     10.325    516.219    559.952    516.219    516.914    516.219
 83.670    534.778    565.322    -30.544    516.155    564.593    516.155    516.849    516.155
 83.770    568.000    570.017     -2.017    516.089    569.284    516.089    516.783    516.089
 83.870    559.000    574.104    -15.104    516.022    573.367    516.022    516.715    516.022
 83.970    598.000    576.942     21.058    515.954    576.203    515.954    516.646    515.954
 84.070    560.000    578.018    -18.018    515.885    577.280    515.885    516.577    515.885
 84.170    622.442    577.077     45.366    515.813    576.341    515.813    516.506    515.813
 84.270    573.000    574.190     -1.190    515.741    573.456    515.741    516.434    515.741
 84.370    612.636    569.715     42.921    515.667    568.986    515.667    516.361    515.667
 84.470    557.000    564.174     -7.174    515.592    563.449    515.592    516.286    515.592
 84.570    550.033    558.120     -8.088    515.515    557.400    515.515    516.211    515.515
 84.670    555.000    552.054      2.946    515.437    551.336    515.437    516.134    515.437
 84.770    565.950    546.370     19.581    515.357    545.655    515.357    516.057    515.357
 84.870    493.766    541.341    -47.576    515.276    540.628    515.276    515.978    515.276
 84.970    538.000    537.119      0.881    515.194    536.406    515.194    515.898    515.194
 85.070    509.000    533.742    -24.742    515.110    533.029    515.110    515.816    515.110
 85.170    559.799    531.169     28.630    515.025    530.455    515.025    515.734    515.025
 85.270    492.772    529.308    -36.536    514.938    528.591    514.938    515.650    514.938
 85.370    543.000    528.044     14.956    514.850    527.324    514.850    515.566    514.850
 85.470    544.000    527.265     16.735    514.761    526.543    514.761    515.480    514.761
 85.570    487.000    526.881    -39.881    514.670    526.155    514.670    515.392    514.670
 85.670    556.509    526.833     29.677    514.578    526.103    514.578    515.303    514.578
 85.770    506.000    527.101    -21.101    514.484    526.367    514.484    515.213    514.484
 85.870    518.000    527.707     -9.707    514.389    526.967    514.389    515.123    514.389
 85.970    564.821    528.713     36.108    514.293    527.967    514.293    515.031    514.293
 86.070    575.364    530.227     45.137    514.195    529.473    514.195    514.939    514.195
 86.170    520.000    532.396    -12.396    514.096    531.633    514.096    514.845    514.096
 86.270    491.000    535.396    -44.396    513.995    534.624    513.995    514.750    513.995
 86.370    543.000    539.422      3.578    513.893    538.639    513.893    514.654    513.893
 86.470    558.157    544.660     13.496    513.789    543.864    513.789    514.557    513.789
 86.570    571.000    551.256     19.744    513.684    550.444    513.684    514.459    513.684
 86.670    509.344    559.273    -49.929    513.578    558.445    513.578    514.360    513.578
 86.770    604.000    568.656     35.344    513.470    567.809    513.470    514.260    513.470
 86.870    570.305    579.187     -8.883    513.361    578.321    513.361    514.159    513.361
 86.970    642.000    590.468     51.532    513.251    589.580    513.251    514.057    513.251
 87.070    606.000    601.905      4.095    513.139    600.996    513.139    513.953    513.139
 87.170    618.000    612.723      5.277    513.025    611.795    513.025    513.849    513.025
 87.270    657.000    622.023     34.977    512.911    621.077    512.911    513.744    512.911
 87.370    697.000    628.908     68.092    512.795    627.948    512.795    513.638    512.795
 87.470    636.491    632.598      3.893    512.677    631.628    512.677    513.532    512.677
 87.570    616.000    632.683    -16.683    512.558    631.706    512.558    513.424    512.558
 87.670    668.000    629.238     38.762    512.438    628.258    512.438    513.316    512.438
 87.770    618.929    622.793     -3.864    512.317    621.812    512.317    513.206    512.317
 87.870    613.000    614.176     -1.176    512.194    613.195    512.194    513.096    512.194
 87.970    572.216    604.343    -32.128    512.069    603.363    512.069    512.986    512.069
 88.070    641.006    594.250     46.756    511.944    593.269    511.944    512.874    511.944
 88.170    574.000    584.764    -10.764    511.816    583.780    511.816    512.762    511.816
 88.270    566.000    576.606    -10.606    511.688    575.618    511.688    512.650    511.688
 88.370    562.000    570.316     -8.316    511.558    569.322    511.558    512.537    511.558
 88.470    542.000    566.236    -24.236    511.427    565.233    511.427    512.423    511.427
 88.570    600.953    564.504     36.450    511.294    563.491    511.294    512.309    511.294
 88.670    586.173    565.066     21.107    511.161    564.041    511.161    512.195    511.161
 88.770    586.531    567.691     18.840    511.025    566.653    511.025    512.081    511.025
 88.870    614.261    571.987     42.274    510.889    570.935    510.889    511.966    510.889
 88.970    583.000    577.431      5.569    510.751    576.363    510.751    511.851    510.751
 89.070    639.000    583.387     55.613    510.612    582.302    510.612    511.737    510.612
 89.170    578.993    589.150    -10.157    510.471    588.045    510.471    511.622    510.471
 89.270    605.103    593.983     11.120    510.329    592.859    510.329    511.506    510.329
 89.370    607.000    597.205      9.795    510.186    596.059    510.186    511.390    510.186
 89.470    573.000    598.300    -25.300    510.041    597.125    510.041    511.277    510.041
 89.570    616.000    597.023     18.977    509.896    595.816    509.896    511.164    509.896
 89.670    586.000    593.465     -7.465    509.748    592.222    509.748    511.053    509.748
 89.770    564.000    588.003    -24.003    509.600    586.718    509.600    510.942    509.600
 89.870    563.000    581.182    -18.182    509.450    579.852    509.450    510.833    509.450
 89.970    602.808    573.597     29.211    509.299    572.218    509.299    510.726    509.299
 90.070    534.400    565.805    -31.405    509.147    564.372    509.147    510.621    509.147
 90.170    580.971    558.273     22.698    508.993    556.783    508.993    510.518    508.993
 90.270    546.000    551.357     -5.357    508.838    549.806    508.838    510.418    508.838
 90.370    528.000    545.293    -17.293    508.682    543.676    508.682    510.321    508.682
 90.470    581.076    540.200     40.876    508.525    538.514    508.525    510.228    508.525
 90.570    505.000    536.101    -31.101    508.366    534.340    508.366    510.140    508.366
 90.670    514.000    532.945    -18.945    508.206    531.102    508.206    510.058    508.206
 90.770    512.000    530.631    -18.631    508.045    528.699    508.045    509.983    508.045
 90.870    521.000    529.038     -8.038    507.882    527.007    507.882    509.917    507.882
 90.970    471.000    528.022    -57.022    507.719    525.880    507.719    509.863    507.719
 91.070    522.000    527.510     -5.510    507.554    525.240    507.554    509.825    507.554
 91.170    538.375    527.464     10.911    507.388    525.042    507.388    509.809    507.388
 91.270    574.010    527.824     46.186    507.220    525.222    507.220    509.821    507.220
 91.370    499.000    528.599    -29.599    507.052    525.775    507.052    509.874    507.052
 91.470    532.000    529.855      2.145    506.882    526.751    506.882    509.982    506.882
 91.570    558.000    531.693     26.307    506.711    528.234    506.711    510.165    506.711
 91.670    504.833    534.269    -29.436    506.539    530.353    506.539    510.448    506.539
 91.770    512.000    537.782    -25.782    506.365    533.276    506.365    510.863    506.365
 91.870    538.832    542.471     -3.638    506.191    537.203    506.191    511.448    506.191
 91.970    552.000    548.598      3.402    506.015    542.354    506.015    512.246    506.015
 92.070    557.498    556.434      1.064    505.838    548.951    505.838    513.304    505.838
 92.170    540.000    566.230    -26.230    505.660    557.198    505.660    514.670    505.660
 92.270    578.010    578.186     -0.176    505.481    567.249    505.481    516.390    505.481
 92.370    591.000    592.420     -1.420    505.301    579.187    505.301    518.499    505.301
 92.470    628.018    608.931     19.086    505.119    592.990    505.119    521.019    505.119
 92.570    659.595    627.578     32.017    504.937    608.518    504.937    523.948    504.937
 92.670    685.000    648.050     36.950    504.753    625.486    504.753    527.261    504.753
 92.770    671.000    669.858      1.142    504.568    643.468    504.568    530.894    504.568
 92.870    734.000    692.357     41.643    504.383    661.919    504.383    534.750    504.383
 92.970    664.222    714.742    -50.520    504.196    680.174    504.196    538.689    504.196
 93.070    705.015    736.149    -31.134    504.008    697.549    504.008    542.528    504.008
 93.170    756.000    755.772      0.228    503.818    713.464    503.818    546.045    503.818
 93.270    792.000    773.004     18.996    503.628    727.563    503.628    548.988    503.628
 93.370    738.000    787.532    -49.532    503.437    739.785    503.437    551.102    503.437
 93.470    824.341    799.340     25.001    503.245    750.335    503.245    552.170    503.245
 93.570    895.000    808.657     86.343    503.052    759.569    503.052    552.062    503.052
 93.670    857.358    815.878     41.480    502.857    767.891    502.857    550.771    502.857
 93.770    872.000    821.523     50.477    502.662    775.700    502.662    548.414    502.662
 93.870    867.744    826.217     41.527    502.466    783.413    502.466    545.201    502.466
 93.970    843.000    830.682     12.318    502.268    791.497    502.268    541.388    502.268
 94.070    847.000    835.674     11.326    502.070    800.456    502.070    537.226    502.070
 94.170    850.000    841.846      8.154    501.871    810.714    501.871    532.943    501.871
 94.270    794.401    849.563    -55.162    501.671    822.451    501.671    528.726    501.671
 94.370    823.000    858.747    -35.747    501.470    835.445    501.470    524.719    501.470
 94.470    886.884    868.808     18.076    501.267    849.002    501.267    521.025    501.267
 94.570    821.932    878.665    -56.733    501.064    861.978    501.064    517.710    501.064
 94.670    945.000    886.852     58.148    500.861    872.872    500.861    514.804    500.861
 94.770    902.000    891.701     10.299    500.656    880.018    500.656    512.312    500.656
 94.870    944.000    891.626     52.374    500.450    881.845    500.450    510.213    500.450
 94.970    960.000    885.455     74.545    500.243    877.216    500.243    508.473    500.243
 95.070    876.917    872.736      4.181    500.036    865.724    500.036    507.048    500.036
 95.170    869.372    853.869     15.504    499.827    847.812    499.827    505.890    499.827
 95.270    903.000    830.000     73.000    499.618    824.678    499.618    504.952    499.618
 95.370    785.000    802.816    -17.816    499.408    798.049    499.408    504.190    499.408
 95.470    815.000    774.247     40.753    499.197    769.895    499.197    503.566    499.197
 95.570    706.655    746.250    -39.595    498.986    742.205    498.986    503.047    498.986
 95.670    724.000    720.707      3.293    498.773    716.886    498.773    502.608    498.773
 95.770    708.000    699.334      8.666    498.560    695.676    498.560    502.228    498.560
 95.870    680.000    683.645     -3.645    498.346    680.103    498.346    501.893    498.346
 95.970    625.105    674.938    -49.833    498.131    671.477    498.131    501.591    498.131
 96.070    642.000    674.302    -32.302    497.916    670.894    497.916    501.315    497.916
 96.170    674.000    682.630     -8.630    497.699    679.254    497.699    501.058    497.699
 96.270    730.262    700.619     29.643    497.482    697.257    497.482    500.817    497.482
 96.370    751.000    728.752     22.248    497.265    725.389    497.265    500.590    497.265
 96.470    713.000    767.238    -54.238    497.046    763.861    497.046    500.375    497.046
 96.570    791.000    815.930    -24.930    496.827    812.527    496.827    500.170    496.827
 96.670    876.000    874.217      1.783    496.607    870.777    496.607    499.976    496.607
 96.770    954.000    940.919     13.081    496.387    937.433    496.387    499.791    496.387
 96.870    992.271   1014.201    -21.931    496.166   1010.661    496.166    499.615    496.166
 96.970   1089.630   1091.525     -1.895    495.944   1087.922    495.944    499.449    495.944
 97.070   1184.000   1169.664     14.336    495.722   1165.992    495.722    499.292    495.722
 97.170   1265.976   1244.753     21.223    495.499   1241.006    495.499    499.145    495.499
 97.270   1346.000   1312.466     33.534    495.276   1308.637    495.276    499.009    495.276
 97.370   1367.000   1368.317     -1.317    495.052   1364.400    495.052    498.883    495.052
 97.470   1419.256   1408.170     11.085    494.827   1404.158    494.827    498.768    494.827
 97.570   1415.000   1428.897    -13.897    494.602   1424.781    494.602    498.666    494.602
 97.670   1414.000   1429.003    -15.003    494.376   1424.772    494.376    498.577    494.376
 97.770   1369.000   1408.931    -39.931    494.150   1404.571    494.150    498.502    494.150
 97.870   1391.100   1370.882     20.218    493.923   1366.374    493.923    498.444    493.923
 97.970   1345.000   1318.289     26.711    493.696   1313.611    493.696    498.405    493.696
 98.070   1290.966   1255.222     35.744    493.469   1250.348    493.469    498.388    493.469
 98.170   1154.000   1185.909    -31.909    493.241   1180.808    493.241    498.397    493.241
 98.270   1106.000   1114.412     -8.412    493.012   1109.047    493.012    498.437    493.012
 98.370   1066.588   1044.427     22.161    492.784   1038.755    492.784    498.517    492.784
 98.470    943.000    979.166    -36.166    492.554    973.132    492.554    498.648    492.554
 98.570    920.000    921.308     -1.308    492.325    914.842    492.325    498.844    492.325
 98.670    883.000    872.997     10.003    492.095    866.010    492.095    499.128    492.095
 98.770    851.000    835.890     15.110    491.864    828.265    491.864    499.528    491.864
 98.870    786.648    811.213    -24.565    491.634    802.795    491.634    500.080    491.634
 98.970    767.000    799.864    -32.864    491.403    790.450    491.403    500.835    491.403
 99.070    797.000    802.487     -5.487    491.172    791.812    491.172    501.855    491.172
 99.170    847.000    819.482     27.518    490.940    807.205    490.940    503.217    490.940
 99.270    795.132    851.067    -55.935    490.708    836.754    490.708    505.014    490.708
 99.370    890.000    897.249     -7.249    490.477    880.355    490.477    507.357    490.477
 99.470    895.160    957.762    -62.602    490.244    937.622    490.244    510.366    490.244
 99.570   1025.000   1031.987     -6.987    490.012   1007.804    490.012    514.175    490.012
 99.670   1119.000   1118.858      0.142    489.779   1089.699    489.779    518.919    489.779
 99.770   1267.000   1216.756     50.244    489.547   1181.562    489.547    524.725    489.547
 99.870   1318.600   1323.439     -4.839    489.314   1281.039    489.314    531.706    489.314
 99.970   1483.000   1435.989     47.011    489.081   1385.133    489.081    539.941    489.081
100.070   1640.000   1550.830     89.170    488.848   1490.235    488.848    549.463    488.848
100.170   1689.000   1663.850     25.150    488.614   1592.258    488.614    560.246    488.614
100.270   1686.047   1770.651    -84.604    488.381   1686.904    488.381    572.189    488.381
100.370   1856.000   1866.921    -10.921    488.148   1770.049    488.148    585.107    488.148
100.470   2091.000   1948.832    142.168    487.915   1838.139    487.915    598.719    487.915
100.570   2058.620   2013.293     45.326    487.681   1888.463    487.681    612.649    487.681
100.670   2040.000   2058.011    -18.011    487.448   1919.199    487.448    626.420    487.448
100.770   2070.000   2081.398    -11.398    487.215   1929.335    487.215    639.459    487.215
100.870   2148.746   2082.549     66.197    486.981   1918.608    486.981    651.119    486.981
100.970   2064.000   2061.380      2.620    486.748   1887.626    486.748    660.712    486.748
101.070   2064.000   2018.923     45.077    486.515   1838.074    486.515    667.580    486.515
101.170   1879.104   1957.547    -78.443    486.282   1772.859    486.282    671.187    486.282
101.270   1958.281   1880.923     77.358    486.049   1695.966    486.049    671.220    486.049
101.370   1823.403   1793.674     29.729    485.817   1612.039    485.817    667.658    485.817
101.470   1633.000   1700.825    -67.825    485.584   1525.829    485.584    660.774    485.584
101.570   1604.000   1607.234     -3.234    485.352   1441.686    485.352    651.079    485.352
101.670   1458.177   1517.150    -58.974    485.120   1363.215    485.120    639.219    485.120
101.770   1419.226   1433.928    -14.702    484.888   1293.080    484.888    625.884    484.888
101.870   1362.000   1359.885      2.115    484.657   1232.944    484.657    611.730    484.657
101.970   1255.800   1296.276    -40.475    484.425   1183.478    484.425    597.340    484.425
102.070   1207.000   1243.326    -36.326    484.194   1144.421    484.194    583.204    484.194
102.170   1224.518   1200.349     24.168    483.964   1114.690    483.964    569.718    483.964
102.270   1192.731   1165.871     26.860    483.733   1092.516    483.733    557.175    483.733
102.370   1167.328   1137.817     29.511    483.504   1075.630    483.504    545.772    483.504
102.470   1076.099   1113.755    -37.656    483.274   1061.487    483.274    535.621    483.274
102.570   1112.000   1091.177     20.823    483.045   1047.542    483.045    526.758    483.045
102.670   1044.000   1067.824    -23.824    482.816   1031.561    482.816    519.158    482.816
102.770   1116.000   1041.977     74.023    482.588   1011.900    482.588    512.745    482.588
102.870   1004.375   1012.642     -8.267    482.361    987.676    482.361    507.407    482.361
102.970    969.621    979.600     -9.979    482.134    958.789    482.134    503.025    482.134
103.070    926.000    943.257    -17.257    481.907    925.777    481.907    499.467    481.907
103.170    855.188    904.449    -49.260    481.681    889.611    481.681    496.596    481.681
103.270    840.000    864.239    -24.239    481.456    851.481    481.456    494.287    481.456
103.370    771.378    823.761    -52.383    481.231    812.632    481.231    492.428    481.231
103.470    754.000    784.098    -30.098    481.007    774.242    481.007    490.925    481.007
103.570    730.079    746.208    -16.130    480.783    737.350    480.783    489.698    480.783
103.670    704.000    710.876     -6.876    480.561    702.805    480.561    488.681    480.561
103.770    630.494    678.681    -48.187    480.339    671.238    480.339    487.825    480.339
103.870    599.835    649.995    -50.160    480.117    643.060    480.117    487.090    480.117
103.970    591.581    624.979    -33.398    479.897    618.460    479.897    486.446    479.897
104.070    607.000    603.607      3.393    479.677    597.437    479.677    485.872    479.677
104.170    569.000    585.715    -16.715    479.458    579.842    479.458    485.351    479.458
104.270    592.000    571.030     20.970    479.240    565.414    479.240    484.872    479.240
104.370    603.191    559.202     43.989    479.023    553.810    479.023    484.427    479.023
104.470    527.000    549.854    -22.854    478.807    544.661    478.807    484.009    478.807
104.570    570.000    542.611     27.389    478.591    537.595    478.591    483.615    478.591
104.670    574.680    537.121     37.559    478.377    532.263    478.377    483.240    478.377
104.770    550.000    533.073     16.927    478.164    528.357    478.164    482.882    478.164
104.870    505.322    530.209    -24.887    477.951    525.621    477.951    482.540    477.951
104.970    518.000    528.322    -10.322    477.740    523.849    477.740    482.212    477.740
105.070    485.185    527.262    -42.077    477.530    522.892    477.530    481.897    477.530
105.170    564.000    526.931     37.069    477.320    522.654    477.320    481.594    477.320
105.270    505.000    527.278    -22.278    477.112    523.084    477.112    481.302    477.112
105.370    581.000    528.295     52.705    476.905    524.175    476.905    481.020    476.905
105.470    545.395    530.012     15.383    476.700    525.957    476.700    480.747    476.700
105.570    503.000    532.489    -29.489    476.495    528.490    476.495    480.484    476.495
105.670    494.937    535.809    -40.872    476.292    531.860    476.292    480.229    476.292
105.770    561.000    540.068     20.932    476.090    536.161    476.090    479.983    476.090
105.870    567.939    545.363     22.576    475.889    541.492    475.889    479.744    475.889
105.970    619.000    551.777     67.223    475.690    547.935    475.690    479.513    475.690
106.070    545.004    559.365    -14.360    475.492    555.545    475.492    479.289    475.492
106.170    558.000    568.137    -10.137    475.295    564.335    475.295    479.072    475.295
106.270    601.000    578.051     22.949    475.100    574.261    475.100    478.862    475.100
106.370    631.686    589.003     42.684    474.906    585.218    474.906    478.658    474.906
106.470    570.000    600.817    -30.817    474.714    597.034    474.714    478.461    474.714
106.570    590.000    613.252    -23.252    474.523    609.466    474.523    478.271    474.523
106.670    599.000    626.002    -27.002    474.333    622.208    474.333    478.086    474.333
106.770    625.000    638.703    -13.703    474.146    634.898    474.146    477.908    474.146
106.870    685.461    650.950     34.510    473.960    647.129    473.960    477.737    473.960
106.970    656.000    662.315     -6.315    473.775    658.474    473.775    477.571    473.775
107.070    700.000    672.379     27.621    473.592    668.515    473.592    477.412    473.592
107.170    710.761    680.774     29.987    473.411    676.883    473.411    477.258    473.411
107.270    690.000    687.233      2.767    473.232    683.311    473.232    477.112    473.232
107.370    691.000    691.636     -0.636    473.054    687.681    473.054    476.971    473.054
107.470    684.000    694.043    -10.043    472.878    690.050    472.878    476.837    472.878
107.570    687.000    694.685     -7.685    472.704    690.649    472.704    476.709    472.704
107.670    686.563    693.930     -7.367    472.532    689.848    472.532    476.588    472.532
107.770    683.582    692.227     -8.645    472.362    688.093    472.362    476.473    472.362
107.870    689.494    690.038     -0.544    472.193    685.848    472.193    476.366    472.193
107.970    727.919    687.788     40.131    472.027    683.536    472.027    476.266    472.027
108.070    676.000    685.824     -9.824    471.862    681.505    471.862    476.172    471.862
108.170    732.969    684.386     48.583    471.700    679.994    471.700    476.087    471.700
108.270    632.000    683.595    -51.595    471.540    679.124    471.540    476.009    471.540
108.370    704.000    683.444     20.556    471.381    678.889    471.381    475.939    471.381
108.470    644.000    683.801    -39.801    471.225    679.155    471.225    475.877    471.225
108.570    716.000    684.420     31.580    471.071    679.676    471.071    475.824    471.071
108.670    668.911    684.960    -16.050    470.919    680.112    470.919    475.779    470.919
108.770    726.000    685.022     40.978    470.770    680.062    470.770    475.744    470.770
108.870    671.000    684.191    -13.191    470.623    679.112    470.623    475.719    470.623
108.970    684.000    682.094      1.906    470.478    676.886    470.478    475.704    470.478
109.070    662.000    678.450    -16.450    470.335    673.107    470.335    475.699    470.335
109.170    638.000    673.120    -35.120    470.195    667.631    470.195    475.706    470.195
109.270    621.017    666.116    -45.100    470.057    660.472    470.057    475.724    470.057
109.370    687.000    657.592     29.408    469.921    651.782    469.921    475.755    469.921
109.470    633.000    647.806    -14.806    469.788    641.819    469.788    475.798    469.788
109.570    677.000    637.072     39.928    469.658    630.897    469.658    475.856    469.658
109.670    659.000    625.729     33.271    469.530    619.352    469.530    475.928    469.530
109.770    571.917    614.184    -42.267    469.404    607.592    469.404    476.016    469.404
109.870    648.000    602.734     45.266    469.282    595.913    469.282    476.120    469.282
109.970    619.000    591.666     27.334    469.162    584.601    469.162    476.243    469.162
110.070    621.000    581.224     39.776    469.044    573.898    469.044    476.385    469.044
110.170    597.000    571.605     25.395    468.930    564.000    468.930    476.548    468.930
110.270    526.451    562.952    -36.501    468.818    555.047    468.818    476.733    468.818
110.370    578.000    555.355     22.645    468.709    547.128    468.709    476.945    468.709
110.470    531.708    548.859    -17.151    468.603    540.284    468.603    477.184    468.603
110.570    570.000    543.464     26.536    468.499    534.513    468.499    477.455    468.499
110.670    521.000    539.139    -18.139    468.399    529.777    468.399    477.764    468.399
110.770    550.000    535.822     14.178    468.302    526.011    468.302    478.114    468.302
110.870    548.000    533.439     14.561    468.207    523.130    468.207    478.516    468.207
110.970    560.000    531.901     28.099    468.116    521.039    468.116    478.977    468.116
111.070    551.000    531.121     19.879    468.028    519.635    468.028    479.511    468.028
111.170    522.000    531.016     -9.016    467.943    518.820    467.943    480.135    467.943
111.270    536.000    531.510      4.490    467.861    518.497    467.861    480.870    467.861
111.370    512.727    532.543    -19.817    467.782    518.578    467.782    481.742    467.782
111.470    518.128    534.070    -15.942    467.706    518.986    467.706    482.784    467.706
111.570    539.000    536.064      2.936    467.634    519.653    467.634    484.039    467.634
111.670    571.252    538.521     32.731    467.565    520.521    467.565    485.558    467.565
111.770    575.141    541.455     33.686    467.500    521.544    467.500    487.403    467.500
111.870    505.390    544.907    -39.517    467.438    522.688    467.438    489.649    467.438
111.970    522.000    548.939    -26.939    467.379    523.928    467.379    492.382    467.379
112.070    544.476    553.640     -9.165    467.324    525.252    467.324    495.703    467.324
112.170    549.000    559.122    -10.122    467.272    526.658    467.272    499.727    467.272
112.270    545.000    565.519    -20.519    467.224    528.154    467.224    504.580    467.224
112.370    613.000    572.985     40.015    467.180    529.757    467.180    510.398    467.180
112.470    586.000    581.689      4.311    467.139    531.492    467.139    517.326    467.139
112.570    595.000    591.812      3.188    467.102    533.393    467.102    525.510    467.102
112.670    605.000    603.539      1.461    467.068    535.503    467.068    535.094    467.068
112.770    587.956    617.056    -29.100    467.039    537.873    467.039    546.211    467.039
112.870    612.258    632.547    -20.288    467.013    540.571    467.013    558.976    467.013
112.970    671.000    650.183     20.817    466.991    543.683    466.991    573.477    466.991
113.070    744.000    670.128     73.872    466.974    547.322    466.974    589.765    466.974
113.170    709.000    692.532     16.468    466.960    551.632    466.960    607.843    466.960
113.270    681.995    717.537    -35.542    466.950    556.809    466.950    627.658    466.950
113.370    697.492    745.280    -47.788    466.944    563.108    466.944    649.095    466.944
113.470    746.165    775.909    -29.744    466.942    570.862    466.942    671.965    466.942
113.570    817.692    809.596      8.096    466.944    580.509    466.944    696.003    466.944
113.670    795.000    846.556    -51.556    466.951    592.610    466.951    720.865    466.951
113.770    884.000    887.078     -3.078    466.962    607.880    466.962    746.122    466.962
113.870    902.000    931.548    -29.548    466.977    627.216    466.977    771.265    466.977
113.970    956.946    980.487    -23.541    466.996    651.725    466.996    795.705    466.996
114.070   1029.000   1034.580     -5.580    467.020    682.752    467.020    818.785    467.020
114.170   1098.018   1094.720      3.298    467.048    721.898    467.048    839.794    467.048
114.270   1121.000   1162.041    -41.041    467.081    771.035    467.081    857.995    467.081
114.370   1260.402   1237.965     22.437    467.118    832.301    467.118    872.672    467.118
114.470   1327.430   1324.238      3.192    467.160    908.081    467.160    883.184    467.160
114.570   1459.000   1422.953     36.047    467.206   1000.963    467.206    889.037    467.206
114.670   1514.000   1536.542    -22.542    467.257   1113.669    467.257    889.940    467.257
114.770   1776.000   1667.720    108.280    467.313   1248.958    467.313    885.850    467.313
114.870   1841.000   1819.357     21.643    467.374   1409.492    467.374    876.976    467.374
114.970   2090.000   1994.297     95.703    467.439   1597.684    467.439    863.748    467.439
115.070   2218.392   2195.114     23.278    467.509   1815.510    467.509    846.765    467.509
115.170   2525.000   2423.850    101.150    467.584   2064.316    467.584    826.726    467.584
115.270   2760.000   2681.748     78.252    467.664   2344.608    467.664    804.366    467.664
115.370   2982.000   2969.002     12.998    467.749   2655.861    467.749    780.410    467.749
115.470   3231.629   3284.551    -52.922    467.839   2996.335    467.839    755.535    467.839
115.570   3519.000   3625.918   -106.918    467.934   3362.942    467.934    730.356    467.934
115.670   4002.549   3989.107     13.442    468.034   3751.152    468.034    705.409    468.034
115.770   4393.775   4368.571     25.203    468.140   4154.965    468.140    681.151    468.140
115.870   4521.000   4757.247   -236.247    468.251   4566.945    468.251    657.954    468.251
115.970   5064.000   5146.661    -82.661    468.367   4978.329    468.367    636.111    468.367
116.070   5320.000   5527.121   -207.121    468.488   5379.213    468.488    615.835    468.488
116.170   5790.000   5887.980    -97.980    468.615   5758.810    468.615    597.266    468.615
116.270   6196.000   6218.004    -22.004    468.747   6105.814    468.747    580.479    468.747
116.370   6393.732   6505.851   -112.119    468.884   6408.867    468.884    565.486    468.884
116.470   6668.242   6740.680    -72.438    469.028   6657.164    469.028    552.252    469.028
116.570   6976.000   6912.889     63.111    469.176   6841.174    469.176    540.703    469.176
116.670   7011.282   7014.900     -3.618    469.331   6953.422    469.331    530.730    469.331
116.770   7210.000   7042.000    168.000    469.491   6989.318    469.491    522.206    469.491
116.870   7011.000   6992.727     18.273    469.657   6947.537    469.657    514.989    469.657
116.970   6969.000   6869.100     99.900    469.829   6830.240    469.829    508.934    469.829
117.070   6628.000   6676.363    -48.363    470.006   6642.809    470.006    503.895    470.006
117.170   6517.846   6422.377     95.469    470.190   6393.245    470.190    499.733    470.190
117.270   6026.000   6116.856    -90.856    470.379   6091.389    470.379    496.317    470.379
117.370   5801.000   5770.576     30.424    470.575   5748.136    470.575    493.530    470.575
117.470   5270.000   5394.683   -124.683    470.776   5374.735    470.776    491.265    470.776
117.570   4903.000   5000.124    -97.124    470.984   4982.227    470.984    489.431    470.984
117.670   4523.000   4597.218    -74.218    471.198   4581.011    471.198    487.950    471.198
117.770   4246.856   4195.325     51.530    471.418   4180.516    471.418    486.756    471.418
117.870   3720.249   3802.614    -82.365    471.645   3788.966    471.645    485.793    471.645
117.970   3595.000   3425.908    169.092    471.878   3413.232    471.878    485.018    471.878
118.070   3160.000   3070.609     89.391    472.117   3058.754    472.117    484.393    472.117
118.170   2768.253   2740.695     27.557    472.362   2729.544    472.362    483.891    472.362
118.270   2610.000   2438.786    171.214    472.615   2428.243    472.615    483.488    472.615
118.370   2138.000   2166.255    -28.255    472.873   2156.245    472.873    483.167    472.873
118.470   1979.502   1923.387     56.115    473.139   1913.851    473.139    482.914    473.139
118.570   1684.000   1709.556    -25.556    473.411   1700.447    473.411    482.717    473.411
118.670   1546.000   1523.412     22.588    473.690   1514.692    473.690    482.570    473.690
118.770   1362.000   1363.068     -1.068    473.975   1354.704    473.975    482.466    473.975
118.870   1228.000   1226.275      1.725    474.268   1218.242    474.268    482.399    474.268
118.970   1044.000   1110.587    -66.587    474.567   1102.863    474.567    482.366    474.567
119.070   1053.105   1013.495     39.610    474.874   1006.060    474.874    482.365    474.874
119.170    911.000    932.542    -21.542    475.187    925.377    475.187    482.391    475.187
119.270    818.718    865.404    -46.686    475.508    858.493    475.508    482.445    475.508
119.370    792.484    809.951    -17.467    475.835    803.281    475.835    482.524    475.835
119.470    718.000    764.283    -46.283    476.170    757.837    476.170    482.628    476.170
119.570    707.994    726.736    -18.742    476.512    720.501    476.512    482.755    476.512
119.670    731.499    695.889     35.610    476.862    689.851    476.862    482.905    476.862
119.770    665.000    670.545     -5.545    477.219    664.689    477.219    483.077    477.219
119.870    624.000    649.711    -25.711    477.583    644.024    477.583    483.272    477.583
119.970    590.000    632.576    -42.576    477.955    627.043    477.955    483.489    477.955
120.070    583.000    618.485    -35.485    478.334    613.091    478.334    483.729    478.334
120.170    598.852    606.912     -8.060    478.721    601.643    478.721    483.992    478.721
120.270    610.000    597.440     12.560    479.116    592.280    479.116    484.279    479.116
120.370    525.000    589.741    -64.741    479.518    584.674    479.518    484.589    479.518
120.470    577.237    583.556     -6.319    479.929    578.565    479.929    484.924    479.929
120.570    544.782    578.687    -33.905    480.347    573.751    480.347    485.286    480.347
120.670    563.000    574.974    -11.974    480.773    570.075    480.773    485.677    480.773
120.770    544.000    572.296    -28.296    481.207    567.412    481.207    486.097    481.207
120.870    611.000    570.557     40.443    481.649    565.665    481.649    486.547    481.649
120.970    541.750    569.680    -27.930    482.099    564.758    482.099    487.029    482.099
121.070    542.000    569.606    -27.606    482.558    564.628    482.558    487.544    482.558
121.170    573.000    570.281      2.719    483.024    565.222    483.024    488.093    483.024
121.270    550.000    571.660    -21.660    483.499    566.493    483.499    488.678    483.499
121.370    538.000    573.697    -35.697    483.983    568.394    483.983    489.299    483.983
121.470    622.988    576.346     46.642    484.475    570.879    484.475    489.956    484.475
121.570    616.147    579.556     36.591    484.975    573.897    484.975    490.650    484.975
121.670    604.000    583.270     20.730    485.484    577.392    485.484    491.380    485.484
121.770    595.000    587.423      7.577    486.001    581.299    486.001    492.145    486.001
121.870    573.000    591.940    -18.940    486.528    585.547    486.528    492.943    486.528
121.970    552.432    596.740    -44.308    487.063    590.055    487.063    493.772    487.063
122.070    566.686    601.729    -35.043    487.606    594.733    487.606    494.630    487.606
122.170    579.000    606.804    -27.804    488.159    599.481    488.159    495.512    488.159
122.270    624.593    611.854     12.738    488.721    604.195    488.721    496.413    488.721
122.370    639.000    616.764     22.236    489.291    608.763    489.291    497.329    489.291
122.470    622.000    621.413      0.587    489.871    613.069    489.871    498.254    489.871
122.570    618.000    625.679     -7.679    490.460    617.001    490.460    499.180    490.460
122.670    610.667    629.447    -18.780    491.058    620.449    491.058    500.100    491.058
122.770    633.000    632.609      0.391    491.666    623.315    491.666    501.006    491.666
122.870    667.311    635.075     32.236    492.283    625.515    492.283    501.890    492.283
122.970    673.000    636.776     36.224    492.909    626.989    492.909    502.744    492.909
123.070    615.000    637.668    -22.668    493.545    627.702    493.545    503.560    493.545
123.170    638.000    637.736      0.264    494.190    627.645    494.190    504.331    494.190
123.270    643.000    636.993      6.007    494.845    626.837    494.845    505.050    494.845
123.370    647.000    635.477     11.523    495.510    625.321    495.510    505.715    495.510
123.470    715.000    633.247     81.753    496.184    623.156    496.184    506.323    496.184
123.570    617.000    630.375    -13.375    496.868    620.417    496.868    506.873    496.868
123.670    647.000    626.948     20.052    497.562    617.185    497.562    507.369    497.562
123.770    636.783    623.062     13.721    498.267    613.549    498.267    507.821    498.267
123.870    656.000    618.809     37.191    498.981    609.595    498.981    508.233    498.981
123.970    594.000    614.282    -20.282    499.705    605.411    499.705    508.612    499.705
124.070    644.000    609.573     34.427    500.440    601.079    500.440    508.967    500.440
124.170    567.615    604.765    -37.150    501.184    596.675    501.184    509.305    501.184
124.270    612.000    599.935     12.065    501.940    592.267    501.940    509.635    501.940
124.370    600.351    595.150      5.201    502.705    587.916    502.705    509.964    502.705
124.470    584.000    590.467     -6.467    503.481    583.671    503.481    510.299    503.481
124.570    627.896    585.932     41.964    504.268    579.572    504.268    510.647    504.268
124.670    606.000    581.582     24.418    505.065    575.651    505.065    511.012    505.065
124.770    545.187    577.446    -32.258    505.873    571.931    505.873    511.401    505.873
124.870    547.857    573.541    -25.684    506.691    568.427    506.691    511.817    506.691
124.970    588.000    569.880     18.120    507.521    565.148    507.521    512.262    507.521
