neutron_powder_diffraction_0088
R_wp: 4.500
Temperature (K): 832.197
Counts: 83603.00
Wavelength (Ã…): 2.52098
COMMENTS
Test file for demonstrating the .xyy file format in Reel1.0
END OF HEADER
   tth       Y_obs     Y_calc      Y_res    Background    Phase_1_Nuc    Phase_1_Mag    Phase_2_Nuc    Phase_2_Mag
  9.970    588.000    561.340     26.660    560.226    561.340    560.226    560.226    560.226
 10.070    591.000    561.897     29.103    560.692    561.896    560.692    560.692    560.692
 10.170    579.000    562.456     16.544    561.148    562.455    561.148    561.148    561.148
 10.270    648.000    563.020     84.980    561.594    563.020    561.594    561.594    561.594
 10.370    600.000    563.593     36.407    562.029    563.593    562.029    562.029    562.029
 10.470    625.000    564.179     60.821    562.455    564.178    562.455    562.455    562.455
 10.570    596.015    564.784     31.231    562.871    564.783    562.871    562.871    562.871
 10.670    562.000    565.416     -3.416    563.277    565.415    563.277    563.277    563.277
 10.770    523.385    566.079    -42.694    563.673    566.078    563.673    563.673    563.673
 10.870    643.000    566.790     76.210    564.060    566.788    564.060    564.060    564.060
 10.970    598.000    567.564     30.436    564.437    567.562    564.437    564.437    564.437
 11.070    621.000    568.426     52.574    564.804    568.424    564.804    564.804    564.804
 11.170    592.493    569.410     23.083    565.162    569.407    565.162    565.162    565.162
 11.270    613.588    570.568     43.020    565.511    570.565    565.511    565.511    565.511
 11.370    613.000    571.988     41.012    565.851    571.985    565.851    565.851    565.851
 11.470    584.000    573.850     10.150    566.181    573.845    566.181    566.181    566.181
 11.570    587.000    576.569     10.431    566.503    576.564    566.503    566.503    566.503
 11.670    640.000    581.117     58.883    566.815    581.109    566.815    566.815    566.815
 11.770    615.000    589.425     25.575    567.118    589.412    567.118    567.118    567.118
 11.870    669.000    604.427     64.573    567.412    604.406    567.412    567.412    567.412
 11.970    600.253    628.741    -28.488    567.698    628.707    567.698    567.698    567.698
 12.070    620.314    661.486    -41.173    567.975    661.433    567.975    567.975    567.975
 12.170    721.619    694.299     27.320    568.243    694.227    568.243    568.243    568.243
 12.270    672.000    709.238    -37.238    568.503    709.157    568.503    568.503    568.503
 12.370    735.836    694.383     41.453    568.754    694.312    568.754    568.754    568.754
 12.470    617.626    661.928    -44.302    568.996    661.875    568.996    568.996    568.996
 12.570    594.426    629.789    -35.363    569.231    629.755    569.231    569.231    569.231
 12.670    586.000    606.262    -20.262    569.457    606.241    569.457    569.457    569.457
 12.770    554.000    591.970    -37.970    569.674    591.957    569.674    569.674    569.674
 12.870    600.858    584.277     16.581    569.884    584.269    569.884    569.884    569.884
 12.970    578.519    580.298     -1.779    570.085    580.292    570.085    570.085    570.085
 13.070    586.000    578.122      7.878    570.279    578.117    570.279    570.279    570.279
 13.170    610.000    576.794     33.206    570.464    576.790    570.464    570.464    570.464
 13.270    586.601    575.920     10.681    570.642    575.917    570.642    570.642    570.642
 13.370    628.664    575.300     53.364    570.812    575.298    570.812    570.812    570.812
 13.470    614.271    574.845     39.426    570.974    574.843    570.974    570.974    570.974
 13.570    574.000    574.511     -0.511    571.128    574.510    571.128    571.128    571.128
 13.670    551.740    574.267    -22.527    571.275    574.266    571.275    571.275    571.275
 13.770    562.000    574.089    -12.089    571.414    574.087    571.414    571.414    571.414
 13.870    584.726    573.959     10.767    571.546    573.958    571.546    571.546    571.546
 13.970    540.850    573.865    -33.016    571.670    573.865    571.670    571.670    571.670
 14.070    548.000    573.800    -25.800    571.787    573.799    571.787    571.787    571.787
 14.170    586.000    573.755     12.245    571.897    573.754    571.897    571.897    571.897
 14.270    571.595    573.725     -2.130    572.000    573.724    572.000    572.000    572.000
 14.370    547.000    573.707    -26.707    572.095    573.706    572.095    572.095    572.095
 14.470    550.000    573.697    -23.697    572.184    573.697    572.184    572.184    572.184
 14.570    523.665    573.698    -50.032    572.265    573.697    572.265    572.265    572.265
 14.670    549.000    573.699    -24.699    572.339    573.698    572.339    572.339    572.339
 14.770    566.000    573.702     -7.702    572.407    573.701    572.407    572.407    572.407
 14.870    548.000    573.706    -25.706    572.468    573.706    572.468    572.468    572.468
 14.970    549.000    573.709    -24.709    572.522    573.709    572.522    572.522    572.522
 15.070    573.000    573.711     -0.711    572.569    573.711    572.569    572.569    572.569
 15.170    570.790    573.712     -2.922    572.610    573.712    572.610    572.610    572.610
 15.270    551.490    573.710    -22.220    572.644    573.710    572.644    572.644    572.644
 15.370    543.000    573.706    -30.706    572.672    573.706    572.672    572.672    572.672
 15.470    541.464    573.711    -32.247    572.693    573.711    572.693    572.693    572.693
 15.570    577.000    573.771      3.229    572.708    573.771    572.708    572.708    572.708
 15.670    555.482    573.764    -18.282    572.717    573.764    572.717    572.717    572.717
 15.770    576.000    573.747      2.253    572.720    573.747    572.720    572.720    572.720
 15.870    571.695    573.732     -2.037    572.716    573.732    572.716    572.716    572.716
 15.970    542.000    573.707    -31.707    572.706    573.707    572.706    572.706    572.706
 16.070    599.364    573.677     25.687    572.690    573.677    572.690    572.690    572.690
 16.170    570.000    573.642     -3.642    572.668    573.642    572.668    572.668    572.668
 16.270    620.638    573.604     47.034    572.641    573.604    572.641    572.641    572.641
 16.370    525.000    573.564    -48.564    572.607    573.564    572.607    572.607    572.607
 16.470    543.000    573.527    -30.527    572.568    573.526    572.568    572.568    572.568
 16.570    591.000    573.475     17.525    572.522    573.475    572.522    572.522    572.522
 16.670    560.308    573.417    -13.110    572.472    573.417    572.472    572.472    572.472
 16.770    544.211    573.355    -29.144    572.415    573.355    572.415    572.415    572.415
 16.870    556.000    573.289    -17.289    572.353    573.289    572.353    572.353    572.353
 16.970    542.000    573.229    -31.229    572.286    573.229    572.286    572.286    572.286
 17.070    565.261    573.208     -7.947    572.213    573.208    572.213    572.213    572.213
 17.170    545.000    573.135    -28.135    572.134    573.135    572.134    572.134    572.134
 17.270    578.782    573.072      5.710    572.051    573.072    572.051    572.051    572.051
 17.370    546.090    572.991    -26.901    571.962    572.991    571.962    571.962    571.962
 17.470    595.000    572.907     22.093    571.868    572.907    571.868    571.868    571.868
 17.570    583.000    572.813     10.187    571.768    572.813    571.768    571.768    571.768
 17.670    544.000    572.710    -28.710    571.664    572.710    571.664    571.664    571.664
 17.770    548.000    572.603    -24.603    571.554    572.603    571.554    571.554    571.554
 17.870    568.000    572.491     -4.491    571.440    572.491    571.440    571.440    571.440
 17.970    538.000    572.375    -34.375    571.321    572.375    571.321    571.321    571.321
 18.070    567.000    572.254     -5.254    571.196    572.254    571.196    571.196    571.196
 18.170    576.000    572.129      3.871    571.067    572.129    571.067    571.067    571.067
 18.270    557.075    572.002    -14.928    570.933    572.002    570.933    570.933    570.933
 18.370    623.130    571.896     51.234    570.795    571.896    570.795    570.795    570.795
 18.470    551.000    571.767    -20.767    570.652    571.767    570.652    570.652    570.652
 18.570    542.000    571.635    -29.635    570.504    571.635    570.504    570.504    570.504
 18.670    613.000    571.519     41.481    570.352    571.519    570.352    570.352    570.352
 18.770    553.311    571.396    -18.085    570.195    571.396    570.195    570.195    570.195
 18.870    534.977    571.276    -36.299    570.033    571.276    570.033    570.033    570.033
 18.970    588.000    571.160     16.840    569.868    571.160    569.868    569.868    569.868
 19.070    546.000    571.003    -25.003    569.698    571.003    569.698    569.698    569.698
 19.170    543.000    570.839    -27.839    569.524    570.839    569.524    569.524    569.524
 19.270    563.000    570.674     -7.674    569.345    570.674    569.345    569.345    569.345
 19.370    576.000    570.535      5.465    569.163    570.535    569.163    569.163    569.163
 19.470    581.000    570.411     10.589    568.976    570.411    568.976    568.976    568.976
 19.570    543.012    570.243    -27.231    568.785    570.243    568.785    568.785    568.785
 19.670    584.000    570.062     13.938    568.590    570.062    568.590    568.590    568.590
 19.770    606.028    569.877     36.151    568.391    569.877    568.391    568.391    568.391
 19.870    615.469    569.689     45.780    568.189    569.689    568.189    568.189    568.189
 19.970    527.000    569.500    -42.500    567.982    569.500    567.982    567.982    567.982
 20.070    600.000    569.310     30.690    567.772    569.310    567.772    567.772    567.772
 20.170    553.000    569.114    -16.114    567.557    569.114    567.557    567.557    567.557
 20.270    535.000    568.920    -33.920    567.340    568.920    567.340    567.340    567.340
 20.370    562.864    568.721     -5.856    567.118    568.721    567.118    567.118    567.118
 20.470    547.390    568.518    -21.128    566.893    568.518    566.893    566.893    566.893
 20.570    518.740    568.315    -49.576    566.664    568.315    566.664    566.664    566.664
 20.670    551.000    568.107    -17.107    566.432    568.107    566.432    566.432    566.432
 20.770    548.000    567.894    -19.894    566.196    567.894    566.196    566.196    566.196
 20.870    574.913    567.678      7.235    565.957    567.678    565.957    565.957    565.957
 20.970    548.317    567.462    -19.146    565.714    567.463    565.714    565.714    565.714
 21.070    547.000    567.244    -20.244    565.469    567.244    565.469    565.469    565.469
 21.170    548.000    567.024    -19.024    565.220    567.024    565.220    565.220    565.220
 21.270    559.000    566.803     -7.803    564.967    566.803    564.967    564.967    564.967
 21.370    532.000    566.579    -34.579    564.712    566.579    564.712    564.712    564.712
 21.470    588.354    566.354     22.000    564.453    566.354    564.453    564.453    564.453
 21.570    536.000    566.128    -30.128    564.191    566.128    564.191    564.191    564.191
 21.670    565.365    565.901     -0.535    563.926    565.901    563.926    563.926    563.926
 21.770    577.246    565.673     11.573    563.659    565.674    563.659    563.659    563.659
 21.870    601.357    565.446     35.911    563.388    565.446    563.388    563.388    563.388
 21.970    543.000    565.219    -22.219    563.114    565.219    563.114    563.114    563.114
 22.070    573.000    564.993      8.007    562.838    564.993    562.838    562.838    562.838
 22.170    584.000    564.769     19.231    562.558    564.769    562.558    562.558    562.558
 22.270    577.000    564.546     12.454    562.276    564.547    562.276    562.276    562.276
 22.370    572.085    564.326      7.759    561.992    564.326    561.992    561.992    561.992
 22.470    543.000    564.109    -21.109    561.704    564.109    561.704    561.704    561.704
 22.570    610.956    563.897     47.059    561.414    563.897    561.414    561.414    561.414
 22.670    575.567    563.690     11.877    561.121    563.690    561.121    561.121    561.121
 22.770    568.000    563.491      4.509    560.826    563.492    560.826    560.826    560.826
 22.870    556.000    563.301     -7.301    560.528    563.302    560.528    560.528    560.528
 22.970    608.000    563.122     44.878    560.228    563.122    560.228    560.228    560.228
 23.070    596.000    562.956     33.044    559.925    562.957    559.925    559.925    559.925
 23.170    586.000    562.808     23.192    559.620    562.808    559.620    559.620    559.620
 23.270    566.000    562.682      3.318    559.313    562.682    559.313    559.313    559.313
 23.370    551.336    562.584    -11.247    559.003    562.585    559.003    559.003    559.003
 23.470    531.000    562.522    -31.522    558.691    562.523    558.691    558.691    558.691
 23.570    576.000    562.509     13.491    558.377    562.510    558.377    558.377    558.377
 23.670    538.793    562.558    -23.765    558.060    562.560    558.060    558.060    558.060
 23.770    598.000    562.692     35.308    557.742    562.693    557.742    557.742    557.742
 23.870    519.000    562.942    -43.942    557.421    562.945    557.421    557.421    557.421
 23.970    589.000    563.367     25.633    557.099    563.370    557.099    557.099    557.099
 24.070    552.482    564.077    -11.595    556.774    564.081    556.774    556.774    556.774
 24.170    583.523    565.329     18.194    556.447    565.333    556.447    556.447    556.447
 24.270    546.000    567.696    -21.696    556.119    567.703    556.119    556.119    556.119
 24.370    609.000    572.296     36.704    555.788    572.306    555.788    555.788    555.788
 24.470    596.700    580.805     15.895    555.456    580.820    555.456    555.456    555.456
 24.570    637.046    594.826     42.220    555.122    594.852    555.122    555.122    555.122
 24.670    668.696    614.312     54.383    554.786    614.352    554.786    554.786    554.786
 24.770    648.993    635.157     13.836    554.448    635.212    554.448    554.448    554.448
 24.870    647.000    647.750     -0.750    554.109    647.814    554.109    554.109    554.109
 24.970    685.565    643.530     42.035    553.768    643.592    553.768    553.768    553.768
 25.070    647.000    625.609     21.391    553.426    625.658    553.426    553.426    553.426
 25.170    646.000    604.161     41.839    553.081    604.195    553.081    553.081    553.081
 25.270    576.000    586.384    -10.384    552.736    586.405    552.736    552.736    552.736
 25.370    529.053    574.364    -45.311    552.388    574.377    552.388    552.388    552.388
 25.470    595.000    567.231     27.769    552.040    567.239    552.040    552.040    552.040
 25.570    553.000    563.248    -10.248    551.689    563.253    551.689    551.689    551.689
 25.670    601.000    560.968     40.032    551.338    560.971    551.338    551.338    551.338
 25.770    549.508    559.531    -10.023    550.985    559.534    550.985    550.985    550.985
 25.870    609.000    558.523     50.477    550.631    558.525    550.631    550.631    550.631
 25.970    607.000    557.765     49.235    550.275    557.767    550.275    550.275    550.275
 26.070    581.000    557.178     23.822    549.918    557.179    549.918    549.918    549.918
 26.170    616.000    556.720     59.280    549.560    556.721    549.560    549.560    549.560
 26.270    565.000    556.371      8.629    549.201    556.371    549.201    549.201    549.201
 26.370    595.000    556.117     38.883    548.840    556.117    548.840    548.840    548.840
 26.470    598.000    555.954     42.046    548.479    555.954    548.479    548.479    548.479
 26.570    595.000    555.883     39.117    548.116    555.883    548.116    548.116    548.116
 26.670    606.879    555.909     50.970    547.753    555.909    547.753    547.753    547.753
 26.770    554.000    556.045     -2.045    547.388    556.045    547.388    547.388    547.388
 26.870    524.359    556.309    -31.950    547.022    556.308    547.022    547.022    547.022
 26.970    536.000    556.727    -20.727    546.656    556.726    546.656    546.656    546.656
 27.070    525.212    557.339    -32.127    546.288    557.338    546.288    546.288    546.288
 27.170    537.787    558.200    -20.414    545.920    558.199    545.920    545.920    545.920
 27.270    645.000    559.391     85.609    545.551    559.389    545.551    545.551    545.551
 27.370    663.000    561.040    101.960    545.180    561.037    545.180    545.180    545.180
 27.470    621.000    563.379     57.621    544.810    563.376    544.810    544.810    544.810
 27.570    601.799    566.939     34.860    544.438    566.934    544.438    544.438    544.438
 27.670    613.000    573.077     39.923    544.066    573.071    544.066    544.066    544.066
 27.770    626.000    585.062     40.938    543.692    585.051    543.692    543.692    543.692
 27.870    596.326    609.276    -12.949    543.319    609.255    543.319    543.319    543.319
 27.970    653.000    654.556     -1.556    542.944    654.520    542.944    542.944    542.944
 28.070    670.252    726.773    -56.521    542.569    726.716    542.569    542.569    542.569
 28.170    841.700    818.238     23.463    542.194    818.162    542.194    542.194    542.194
 28.270    838.517    898.086    -59.569    541.818    898.005    541.818    541.818    541.818
 28.370    874.007    922.407    -48.400    541.441    922.339    541.441    541.441    541.441
 28.470    917.000    878.654     38.346    541.064    878.606    541.064    541.064    541.064
 28.570    815.000    808.127      6.873    540.687    808.094    540.687    540.687    540.687
 28.670    744.000    758.744    -14.744    540.309    758.718    540.309    540.309    540.309
 28.770    747.000    751.197     -4.197    539.930    751.173    539.930    539.930    539.930
 28.870    773.941    778.250     -4.309    539.552    778.226    539.552    539.552    539.552
 28.970    837.000    811.435     25.565    539.173    811.418    539.173    539.173    539.173
 29.070    814.000    815.359     -1.359    538.793    815.354    538.793    538.793    538.793
 29.170    787.000    776.387     10.613    538.414    776.390    538.414    538.414    538.414
 29.270    758.000    714.771     43.229    538.034    714.777    538.034    538.034    538.034
 29.370    672.000    656.316     15.684    537.654    656.321    537.654    537.654    537.654
 29.470    665.000    613.199     51.801    537.274    613.201    537.274    537.274    537.274
 29.570    650.000    586.224     63.776    536.893    586.224    536.893    536.893    536.893
 29.670    599.000    571.038     27.962    536.513    571.037    536.513    536.513    536.513
 29.770    663.000    562.741    100.259    536.132    562.739    536.132    536.132    536.132
 29.870    596.375    557.955     38.420    535.751    557.953    535.751    535.751    535.751
 29.970    582.000    554.920     27.080    535.370    554.918    535.370    535.370    535.370
 30.070    601.000    552.878     48.122    534.990    552.876    534.990    534.990    534.990
 30.170    584.000    551.560     32.440    534.609    551.557    534.609    534.609    534.609
 30.270    615.000    550.959     64.041    534.228    550.955    534.228    534.228    534.228
 30.370    622.000    551.322     70.678    533.847    551.317    533.847    533.847    533.847
 30.470    555.000    553.237      1.763    533.466    553.230    533.466    533.466    533.466
 30.570    594.000    557.659     36.341    533.086    557.647    533.086    533.086    533.086
 30.670    633.000    565.641     67.359    532.705    565.623    532.705    532.705    532.705
 30.770    633.000    577.614     55.386    532.325    577.587    532.325    532.325    532.325
 30.870    642.000    592.210     49.790    531.945    592.173    531.945    531.945    531.945
 30.970    643.000    605.017     37.983    531.565    604.973    531.565    531.565    531.565
 31.070    683.000    609.216     73.784    531.185    609.172    531.185    531.185    531.185
 31.170    625.118    601.480     23.637    530.806    601.443    530.806    530.806    530.806
 31.270    616.000    586.514     29.486    530.426    586.485    530.426    530.426    530.426
 31.370    556.000    571.079    -15.079    530.047    571.060    530.047    530.047    530.047
 31.470    587.000    558.834     28.166    529.669    558.821    529.669    529.669    529.669
 31.570    534.848    550.563    -15.715    529.291    550.555    529.291    529.291    529.291
 31.670    562.000    545.560     16.440    528.913    545.554    528.913    528.913    528.913
 31.770    522.529    542.700    -20.171    528.535    542.696    528.535    528.535    528.535
 31.870    559.000    541.055     17.945    528.158    541.052    528.158    528.158    528.158
 31.970    515.352    540.060    -24.708    527.781    540.058    527.781    527.781    527.781
 32.070    589.000    539.437     49.563    527.405    539.434    527.405    527.405    527.405
 32.170    552.875    539.064     13.811    527.029    539.062    527.029    527.029    527.029
 32.270    569.386    538.895     30.492    526.654    538.893    526.654    526.654    526.654
 32.370    533.000    538.915     -5.915    526.279    538.913    526.279    526.279    526.279
 32.470    559.000    539.130     19.870    525.905    539.128    525.905    525.905    525.905
 32.570    579.384    539.555     39.829    525.532    539.554    525.532    525.532    525.532
 32.670    559.535    540.224     19.312    525.159    540.222    525.159    525.159    525.159
 32.770    557.000    541.184     15.816    524.786    541.182    524.786    524.786    524.786
 32.870    541.224    542.505     -1.281    524.414    542.503    524.414    524.414    524.414
 32.970    534.000    544.293    -10.293    524.043    544.290    524.043    524.043    524.043
 33.070    588.000    546.709     41.291    523.673    546.706    523.673    523.673    523.673
 33.170    581.000    550.038     30.962    523.303    550.035    523.303    523.303    523.303
 33.270    581.973    554.844     27.130    522.934    554.840    522.934    522.934    522.934
 33.370    570.000    562.314      7.686    522.565    562.309    522.565    522.565    522.565
 33.470    566.000    574.853     -8.853    522.198    574.847    522.198    522.198    522.198
 33.570    618.000    596.730     21.270    521.831    596.719    521.831    521.831    521.831
 33.670    637.000    634.102      2.898    521.465    634.086    521.465    521.465    521.465
 33.770    642.438    693.376    -50.939    521.100    693.351    521.100    521.100    521.100
 33.870    735.000    777.219    -42.219    520.735    777.182    520.735    520.735    520.735
 33.970    939.779    878.367     61.412    520.372    878.319    520.372    520.372    520.372
 34.070   1027.499    972.016     55.484    520.009    971.961    520.009    520.009    520.009
 34.170   1043.000   1016.175     26.825    519.647   1016.128    519.647    519.647    519.647
 34.270    953.000    983.586    -30.586    519.286    983.557    519.286    519.286    519.286
 34.370    945.687    895.072     50.615    518.926    895.060    518.926    518.926    518.926
 34.470    793.518    792.536      0.982    518.567    792.535    518.567    518.567    518.567
 34.570    677.000    704.072    -27.072    518.209    704.074    518.209    518.209    518.209
 34.670    596.896    639.619    -42.723    517.852    639.621    517.852    517.852    517.852
 34.770    571.000    597.873    -26.873    517.495    597.875    517.495    517.495    517.495
 34.870    600.358    572.806     27.553    517.140    572.806    517.140    517.140    517.140
 34.970    559.000    558.074      0.926    516.786    558.073    516.786    516.786    516.786
 35.070    597.258    549.053     48.205    516.433    549.052    516.433    516.433    516.433
 35.170    585.021    543.041     41.981    516.081    543.040    516.081    516.081    516.081
 35.270    584.382    538.667     45.715    515.730    538.666    515.730    515.730    515.730
 35.370    525.000    535.278    -10.278    515.380    535.277    515.380    515.380    515.380
 35.470    543.000    532.547     10.453    515.031    532.547    515.031    515.031    515.031
 35.570    515.000    530.292    -15.292    514.683    530.291    514.683    514.683    514.683
 35.670    510.000    528.395    -18.395    514.337    528.394    514.337    514.337    514.337
 35.770    491.000    526.775    -35.775    513.991    526.775    513.991    513.991    513.991
 35.870    503.000    525.374    -22.374    513.647    525.373    513.647    513.647    513.647
 35.970    485.000    524.147    -39.147    513.304    524.147    513.304    513.304    513.304
 36.070    485.000    523.063    -38.063    512.962    523.062    512.962    512.962    512.962
 36.170    560.294    522.096     38.199    512.621    522.096    512.621    512.621    512.621
 36.270    550.310    521.228     29.082    512.282    521.227    512.282    512.282    512.282
 36.370    499.000    520.444    -21.444    511.944    520.444    511.944    511.944    511.944
 36.470    565.880    519.735     46.145    511.607    519.735    511.607    511.607    511.607
 36.570    500.987    519.093    -18.105    511.271    519.093    511.271    511.271    511.271
 36.670    564.994    518.513     46.481    510.936    518.513    510.936    510.936    510.936
 36.770    513.000    517.997     -4.997    510.603    517.997    510.603    510.603    510.603
 36.870    504.000    517.551    -13.551    510.271    517.551    510.271    510.271    510.271
 36.970    546.842    517.195     29.647    509.941    517.196    509.941    509.941    509.941
 37.070    538.000    516.981     21.019    509.612    516.981    509.612    509.612    509.612
 37.170    501.156    517.010    -15.854    509.284    517.010    509.284    509.284    509.284
 37.270    475.000    517.454    -42.454    508.957    517.454    508.957    508.957    508.957
 37.370    509.275    518.540     -9.265    508.632    518.541    508.632    508.632    508.632
 37.470    469.807    520.466    -50.659    508.308    520.468    508.308    508.308    508.308
 37.570    503.000    523.236    -20.236    507.986    523.239    507.986    507.986    507.986
 37.670    559.000    526.437     32.563    507.665    526.441    507.665    507.665    507.665
 37.770    561.000    529.068     31.932    507.346    529.073    507.346    507.346    507.346
 37.870    535.000    529.828      5.172    507.028    529.834    507.028    507.028    507.028
 37.970    505.000    528.201    -23.201    506.711    528.210    506.711    506.711    506.711
 38.070    500.999    525.027    -24.028    506.396    525.037    506.396    506.396    506.396
 38.170    463.000    521.451    -58.451    506.082    521.462    506.082    506.082    506.082
 38.270    521.061    518.157      2.904    505.770    518.167    505.770    505.770    505.770
 38.370    539.000    515.465     23.535    505.459    515.472    505.459    505.459    505.459
 38.470    537.634    513.449     24.185    505.150    513.455    505.150    505.150    505.150
 38.570    529.000    512.006     16.994    504.842    512.011    504.842    504.842    504.842
 38.670    501.471    510.970     -9.499    504.536    510.973    504.536    504.536    504.536
 38.770    494.980    510.208    -15.227    504.231    510.210    504.231    504.231    504.231
 38.870    499.000    509.614    -10.614    503.928    509.616    503.928    503.928    503.928
 38.970    487.160    509.124    -21.965    503.626    509.125    503.626    503.626    503.626
 39.070    474.999    508.698    -33.699    503.326    508.699    503.326    503.326    503.326
 39.170    482.000    508.314    -26.314    503.028    508.315    503.028    503.028    503.028
 39.270    469.913    507.959    -38.046    502.731    507.960    502.731    502.731    502.731
 39.370    554.000    507.627     46.373    502.436    507.627    502.436    502.436    502.436
 39.470    548.000    507.313     40.687    502.142    507.314    502.142    502.142    502.142
 39.570    538.773    507.016     31.758    501.850    507.016    501.850    501.850    501.850
 39.670    553.136    506.733     46.403    501.559    506.733    501.559    501.559    501.559
 39.770    504.000    506.464     -2.464    501.270    506.464    501.270    501.270    501.270
 39.870    476.421    506.208    -29.787    500.983    506.208    500.983    500.983    500.983
 39.970    519.000    505.965     13.035    500.697    505.965    500.697    500.697    500.697
 40.070    517.000    505.735     11.265    500.414    505.736    500.414    500.414    500.414
 40.170    489.000    505.519    -16.519    500.131    505.519    500.131    500.131    500.131
 40.270    549.000    505.317     43.683    499.851    505.317    499.851    499.851    499.851
 40.370    543.000    505.130     37.870    499.572    505.130    499.572    499.572    499.572
 40.470    487.000    504.959    -17.959    499.294    504.960    499.294    499.294    499.294
 40.570    509.155    504.807      4.348    499.019    504.808    499.019    499.019    499.019
 40.670    487.000    504.676    -17.676    498.745    504.677    498.745    498.745    498.745
 40.770    477.419    504.568    -27.149    498.473    504.568    498.473    498.473    498.473
 40.870    483.000    504.486    -21.486    498.202    504.487    498.202    498.202    498.202
 40.970    463.000    504.436    -41.436    497.933    504.437    497.933    497.933    497.933
 41.070    505.000    504.424      0.576    497.666    504.425    497.666    497.666    497.666
 41.170    470.927    504.456    -33.529    497.401    504.458    497.401    497.401    497.401
 41.270    502.079    504.544     -2.464    497.138    504.545    497.138    497.138    497.138
 41.370    491.000    504.699    -13.699    496.876    504.700    496.876    496.876    496.876
 41.470    466.000    504.941    -38.941    496.616    504.942    496.616    496.616    496.616
 41.570    489.000    505.296    -16.296    496.357    505.298    496.357    496.357    496.357
 41.670    472.194    505.810    -33.616    496.101    505.812    496.101    496.101    496.101
 41.770    521.000    506.564     14.436    495.846    506.567    495.846    495.846    495.846
 41.870    482.000    507.718    -25.718    495.593    507.722    495.593    495.593    495.593
 41.970    523.612    509.575     14.037    495.342    509.579    495.342    495.342    495.342
 42.070    534.000    512.671     21.329    495.092    512.677    495.092    495.092    495.092
 42.170    487.000    517.837    -30.837    494.845    517.845    494.845    494.845    494.845
 42.270    494.000    526.139    -32.139    494.599    526.151    494.599    494.599    494.599
 42.370    498.000    538.597    -40.597    494.355    538.615    494.355    494.355    494.355
 42.470    574.681    555.632     19.049    494.112    555.658    494.112    494.112    494.112
 42.570    554.000    576.278    -22.278    493.872    576.315    493.872    493.872    493.872
 42.670    570.000    597.273    -27.273    493.633    597.322    493.633    493.633    493.633
 42.770    640.000    612.655     27.345    493.396    612.714    493.396    493.396    493.396
 42.870    569.000    615.939    -46.939    493.161    616.002    493.161    493.161    493.161
 42.970    582.000    605.310    -23.310    492.928    605.369    492.928    492.928    492.928
 43.070    630.844    585.645     45.199    492.697    585.695    492.697    492.697    492.697
 43.170    483.000    563.831    -80.831    492.467    563.870    492.467    492.467    492.467
 43.270    522.000    544.492    -22.492    492.239    544.520    492.239    492.239    492.239
 43.370    532.000    529.542      2.458    492.014    529.561    492.014    492.014    492.014
 43.470    480.000    519.084    -39.084    491.790    519.097    491.790    491.790    491.790
 43.570    547.082    512.284     34.798    491.567    512.293    491.567    491.567    491.567
 43.670    507.000    508.036     -1.036    491.347    508.042    491.347    491.347    491.347
 43.770    510.000    505.376      4.624    491.129    505.381    491.129    491.129    491.129
 43.870    500.000    503.632     -3.632    490.912    503.636    490.912    490.912    490.912
 43.970    510.658    502.404      8.253    490.697    502.407    490.697    490.697    490.697
 44.070    491.000    501.478    -10.478    490.484    501.480    490.484    490.484    490.484
 44.170    497.000    500.744     -3.744    490.273    500.746    490.273    490.273    490.273
 44.270    517.000    500.144     16.856    490.064    500.146    490.064    490.064    490.064
 44.370    461.000    499.646    -38.646    489.857    499.647    489.857    489.857    489.857
 44.470    528.000    499.227     28.773    489.651    499.228    489.651    489.651    489.651
 44.570    477.000    498.874    -21.874    489.448    498.875    489.448    489.448    489.448
 44.670    527.501    498.576     28.925    489.246    498.577    489.246    489.246    489.246
 44.770    516.970    498.324     18.646    489.046    498.325    489.046    489.046    489.046
 44.870    497.000    498.112     -1.112    488.848    498.113    488.848    488.848    488.848
 44.970    526.724    497.937     28.787    488.652    497.938    488.652    488.652    488.652
 45.070    492.000    497.795     -5.795    488.458    497.795    488.458    488.458    488.458
 45.170    501.000    497.683      3.317    488.266    497.683    488.266    488.266    488.266
 45.270    484.806    497.600    -12.794    488.076    497.600    488.076    488.076    488.076
 45.370    544.031    497.545     46.487    487.887    497.545    487.887    487.887    487.887
 45.470    500.000    497.517      2.483    487.700    497.518    487.700    487.700    487.700
 45.570    508.000    497.518     10.482    487.516    497.518    487.516    487.516    487.516
 45.670    536.174    497.547     38.627    487.333    497.547    487.333    487.333    487.333
 45.770    449.000    497.606    -48.606    487.152    497.606    487.152    487.152    487.152
 45.870    537.268    497.696     39.572    486.973    497.696    486.973    486.973    486.973
 45.970    494.000    497.820     -3.820    486.795    497.820    486.795    486.795    486.795
 46.070    494.000    497.981     -3.981    486.620    497.981    486.620    486.620    486.620
 46.170    460.482    498.183    -37.701    486.447    498.182    486.447    486.447    486.447
 46.270    535.921    498.431     37.490    486.275    498.430    486.275    486.275    486.275
 46.370    487.201    498.732    -11.531    486.105    498.731    486.105    486.105    486.105
 46.470    437.000    499.093    -62.093    485.938    499.092    485.938    485.938    485.938
 46.570    545.000    499.526     45.474    485.772    499.525    485.772    485.772    485.772
 46.670    512.000    500.048     11.952    485.608    500.046    485.608    485.608    485.608
 46.770    523.000    500.681     22.319    485.446    500.679    485.446    485.446    485.446
 46.870    500.040    501.467     -1.428    485.285    501.465    485.285    485.285    485.285
 46.970    508.000    502.482      5.518    485.127    502.479    485.127    485.127    485.127
 47.070    476.000    503.863    -27.863    484.971    503.860    484.971    484.971    484.971
 47.170    494.000    505.852    -11.852    484.816    505.847    484.816    484.816    484.816
 47.270    534.000    508.832     25.168    484.663    508.825    484.663    484.663    484.663
 47.370    518.759    513.329      5.430    484.512    513.319    484.512    484.512    484.512
 47.470    539.000    519.938     19.062    484.363    519.923    484.363    484.363    484.363
 47.570    546.784    529.131     17.652    484.216    529.110    484.216    484.216    484.216
 47.670    572.000    540.959     31.041    484.071    540.930    484.071    484.071    484.071
 47.770    597.000    554.677     42.323    483.928    554.639    483.928    483.928    483.928
 47.870    560.023    568.350     -8.327    483.786    568.303    483.786    483.786    483.786
 47.970    581.000    578.745      2.255    483.647    578.693    483.647    483.647    483.647
 48.070    608.411    582.432     25.979    483.509    582.379    483.509    483.509    483.509
 48.170    608.710    578.291     30.420    483.373    578.242    483.373    483.373    483.373
 48.270    547.511    568.667    -21.157    483.239    568.627    483.239    483.239    483.239
 48.370    586.000    557.291     28.709    483.107    557.260    483.107    483.107    483.107
 48.470    546.000    547.014     -1.014    482.976    546.991    482.976    482.976    482.976
 48.570    549.080    539.325      9.755    482.848    539.308    482.848    482.848    482.848
 48.670    510.620    534.684    -24.064    482.721    534.673    482.721    482.721    482.721
 48.770    505.000    532.937    -27.937    482.596    532.929    482.596    482.596    482.596
 48.870    553.000    533.672     19.328    482.474    533.665    482.474    482.474    482.474
 48.970    505.000    536.500    -31.500    482.352    536.494    482.352    482.352    482.352
 49.070    513.000    541.256    -28.256    482.233    541.250    482.233    482.233    482.233
 49.170    517.156    548.172    -31.016    482.116    548.167    482.116    482.116    482.116
 49.270    561.000    558.185      2.815    482.000    558.178    482.000    482.000    482.000
 49.370    569.457    573.583     -4.126    481.886    573.573    481.886    481.886    481.886
 49.470    576.000    599.185    -23.185    481.774    599.168    481.774    481.774    481.774
 49.570    689.423    643.926     45.497    481.664    643.896    481.664    481.664    481.664
 49.670    679.000    722.010    -43.010    481.556    721.960    481.556    481.556    481.556
 49.770    821.000    851.869    -30.869    481.449    851.791    481.449    481.449    481.449
 49.870    992.804   1050.893    -58.089    481.345   1050.785    481.345    481.345    481.345
 49.970   1361.000   1325.423     35.577    481.242   1325.291    481.242    481.242    481.242
 50.070   1695.000   1658.403     36.597    481.141   1658.268    481.141    481.141    481.141
 50.170   2019.507   1999.146     20.361    481.042   1999.044    481.042    481.042    481.042
 50.270   2372.000   2262.046    109.954    480.944   2262.018    480.944    480.944    480.944
 50.370   2401.561   2352.064     49.497    480.848   2352.130    480.848    480.848    480.848
 50.470   2187.000   2229.243    -42.243    480.754   2229.380    480.754    480.754    480.754
 50.570   1999.000   1947.748     51.252    480.662   1947.914    480.662    480.662    480.662
 50.670   1539.000   1606.397    -67.397    480.572   1606.555    480.572    480.572    480.572
 50.770   1251.000   1286.513    -35.513    480.483   1286.644    480.483    480.483    480.483
 50.870    919.000   1032.669   -113.669    480.396   1032.768    480.396    480.396    480.396
 50.970    863.525    856.694      6.831    480.311    856.767    480.311    480.311    480.311
 51.070    718.000    748.445    -30.445    480.228    748.501    480.228    480.228    480.228
 51.170    651.000    687.830    -36.830    480.146    687.876    480.146    480.146    480.146
 51.270    616.043    654.276    -38.233    480.066    654.318    480.066    480.066    480.066
 51.370    610.000    632.297    -22.297    479.988    632.335    479.988    479.988    479.988
 51.470    636.000    613.609     22.391    479.912    613.643    479.912    479.912    479.912
 51.570    609.208    595.935     13.273    479.837    595.962    479.837    479.837    479.837
 51.670    579.100    579.845     -0.745    479.764    579.867    479.764    479.764    479.764
 51.770    611.000    566.326     44.674    479.693    566.342    479.693    479.693    479.693
 51.870    573.000    555.903     17.097    479.623    555.915    479.623    479.623    479.623
 51.970    541.000    548.567     -7.567    479.556    548.576    479.556    479.556    479.556
 52.070    602.000    543.957     58.043    479.489    543.964    479.489    479.489    479.489
 52.170    555.000    541.580     13.420    479.425    541.585    479.425    479.425    479.425
 52.270    548.000    541.016      6.984    479.362    541.020    479.362    479.362    479.362
 52.370    616.000    542.050     73.950    479.301    542.054    479.301    479.301    479.301
 52.470    582.354    544.770     37.585    479.242    544.773    479.242    479.242    479.242
 52.570    572.000    549.674     22.326    479.184    549.677    479.184    479.184    479.184
 52.670    541.000    557.852    -16.852    479.128    557.855    479.128    479.128    479.128
 52.770    569.951    571.214     -1.263    479.073    571.216    479.073    479.073    479.073
 52.870    578.797    592.681    -13.884    479.021    592.683    479.021    479.021    479.021
 52.970    607.000    626.059    -19.059    478.969    626.060    478.969    478.969    478.969
 53.070    625.075    675.484    -50.408    478.920    675.485    478.920    478.920    478.920
 53.170    721.756    744.178    -22.422    478.872    744.179    478.872    478.872    478.872
 53.270    804.767    832.636    -27.869    478.826    832.639    478.826    478.826    478.826
 53.370    906.317    936.479    -30.162    478.781    936.485    478.781    478.781    478.781
 53.470   1097.668   1044.175     53.493    478.738   1044.186    478.738    478.738    478.738
 53.570   1099.000   1135.609    -36.609    478.697   1135.629    478.697    478.697    478.697
 53.670   1220.766   1185.637     35.129    478.657   1185.667    478.657    478.657    478.657
 53.770   1173.000   1176.957     -3.957    478.618   1176.997    478.618    478.618    478.618
 53.870   1151.000   1113.153     37.847    478.582   1113.198    478.582    478.582    478.582
 53.970   1029.853   1015.504     14.348    478.546   1015.548    478.546    478.546    478.546
 54.070    972.622    908.331     64.291    478.513    908.370    478.513    478.513    478.513
 54.170    774.000    809.179    -35.179    478.481    809.211    478.481    478.481    478.481
 54.270    711.000    727.288    -16.288    478.450    727.312    478.450    478.450    478.450
 54.370    666.000    665.407      0.593    478.421    665.425    478.421    478.421    478.421
 54.470    606.000    622.058    -16.058    478.394    622.071    478.394    478.394    478.394
 54.570    585.383    593.610     -8.227    478.368    593.619    478.368    478.368    478.368
 54.670    602.000    575.945     26.055    478.343    575.952    478.343    478.343    478.343
 54.770    606.907    565.494     41.413    478.321    565.499    478.321    478.321    478.321
 54.870    582.670    559.652     23.018    478.299    559.656    478.299    478.299    478.299
 54.970    558.000    556.749      1.251    478.279    556.752    478.279    478.279    478.279
 55.070    535.000    555.832    -20.832    478.261    555.835    478.261    478.261    478.261
 55.170    574.000    556.414     17.586    478.244    556.417    478.244    478.244    478.244
 55.270    573.000    558.290     14.710    478.228    558.293    478.228    478.228    478.228
 55.370    598.000    561.428     36.572    478.214    561.431    478.214    478.214    478.214
 55.470    593.000    565.923     27.077    478.202    565.925    478.202    478.202    478.202
 55.570    586.000    572.016     13.984    478.190    572.018    478.190    478.190    478.190
 55.670    593.000    580.183     12.817    478.181    580.185    478.181    478.181    478.181
 55.770    590.000    591.328     -1.328    478.172    591.329    478.172    478.172    478.172
 55.870    606.000    607.130     -1.130    478.165    607.130    478.165    478.165    478.165
 55.970    653.475    630.584     22.891    478.160    630.581    478.160    478.160    478.160
 56.070    699.703    666.676     33.027    478.156    666.668    478.156    478.156    478.156
 56.170    771.489    722.906     48.583    478.153    722.892    478.153    478.153    478.153
 56.270    806.645    809.305     -2.661    478.152    809.282    478.152    478.152    478.152
 56.370    917.000    937.249    -20.249    478.152    937.217    478.152    478.152    478.152
 56.470   1048.692   1116.681    -67.989    478.153   1116.642    478.153    478.153    478.153
 56.570   1287.000   1351.813    -64.813    478.156   1351.774    478.156    478.156    478.156
 56.670   1566.000   1636.009    -70.009    478.160   1635.984    478.160    478.160    478.160
 56.770   1781.000   1946.673   -165.673    478.165   1946.679    478.165    478.165    478.165
 56.870   2194.000   2241.034    -47.034    478.172   2241.096    478.172    478.172    478.172
 56.970   2418.000   2457.167    -39.167    478.180   2457.302    478.180    478.180    478.180
 57.070   2447.000   2532.125    -85.125    478.189   2532.334    478.189    478.189    478.189
 57.170   2510.000   2439.860     70.140    478.199   2440.117    478.199    478.199    478.199
 57.270   2188.000   2212.494    -24.494    478.211   2212.760    478.211    478.211    478.211
 57.370   1975.000   1915.046     59.954    478.224   1915.292    478.224    478.224    478.224
 57.470   1628.000   1608.018     19.982    478.239   1608.225    478.239    478.239    478.239
 57.570   1355.799   1331.730     24.069    478.254   1331.891    478.254    478.254    478.254
 57.670   1168.747   1106.691     62.055    478.271   1106.810    478.271    478.271    478.271
 57.770    965.000    938.206     26.794    478.289    938.288    478.289    478.289    478.289
 57.870    807.367    821.627    -14.260    478.309    821.681    478.309    478.309    478.309
 57.970    750.673    747.559      3.113    478.329    747.593    478.329    478.329    478.329
 58.070    707.163    706.134      1.029    478.351    706.153    478.351    478.351    478.351
 58.170    731.000    689.642     41.358    478.374    689.649    478.374    478.374    478.374
 58.270    720.730    693.408     27.322    478.398    693.405    478.398    478.398    478.398
 58.370    670.080    715.325    -45.245    478.423    715.312    478.423    478.423    478.423
 58.470    817.033    754.609     62.425    478.450    754.587    478.450    478.450    478.450
 58.570    788.000    810.285    -22.285    478.477    810.255    478.477    478.477    478.477
 58.670    897.000    879.676     17.324    478.506    879.640    478.506    478.506    478.506
 58.770    999.000    957.263     41.737    478.536    957.225    478.536    478.536    478.536
 58.870   1113.000   1034.983     78.017    478.567   1034.949    478.567    478.567    478.567
 58.970   1135.694   1104.811     30.883    478.599   1104.786    478.599    478.599    478.599
 59.070   1132.817   1160.936    -28.120    478.632   1160.923    478.632    478.632    478.632
 59.170   1193.775   1198.394     -4.618    478.667   1198.392    478.667    478.667    478.667
 59.270   1251.729   1212.103     39.626    478.702   1212.112    478.702    478.702    478.702
 59.370   1294.000   1201.219     92.781    478.739   1201.233    478.739    478.739    478.739
 59.470   1251.000   1173.565     77.435    478.776   1173.574    478.776    478.776    478.776
 59.570   1266.000   1142.555    123.445    478.815   1142.546    478.815    478.815    478.815
 59.670   1187.000   1120.570     66.430    478.854   1120.532    478.854    478.854    478.854
 59.770   1107.000   1116.134     -9.134    478.895   1116.059    478.895    478.895    478.895
 59.870   1080.555   1135.117    -54.563    478.936   1135.000    478.936    478.936    478.936
 59.970   1240.000   1181.321     58.679    478.979   1181.159    478.979    478.979    478.979
 60.070   1318.000   1253.736     64.264    479.022   1253.533    479.022    479.022    479.022
 60.170   1452.000   1343.068    108.932    479.067   1342.833    479.067    479.067    479.067
 60.270   1448.846   1430.441     18.405    479.113   1430.192    479.113    479.113    479.113
 60.370   1545.330   1489.611     55.718    479.159   1489.371    479.159    479.159    479.159
 60.470   1556.000   1495.508     60.492    479.207   1495.298    479.207    479.207    479.207
 60.570   1552.000   1438.151    113.849    479.255   1437.982    479.255    479.255    479.255
 60.670   1372.000   1329.324     42.676    479.304   1329.196    479.304    479.304    479.304
 60.770   1194.000   1193.465      0.535    479.354   1193.374    479.354    479.354    479.354
 60.870   1020.000   1054.414    -34.414    479.406   1054.351    479.406    479.406    479.406
 60.970    911.000    929.196    -18.196    479.458    929.153    479.458    479.458    479.458
 61.070    783.426    827.486    -44.060    479.511    827.455    479.511    479.511    479.511
 61.170    762.748    753.004      9.744    479.564    752.978    479.564    479.564    479.564
 61.270    697.112    705.540     -8.428    479.619    705.515    479.619    479.619    479.619
 61.370    699.000    683.166     15.834    479.674    683.137    479.674    479.674    479.674
 61.470    672.296    684.099    -11.803    479.731    684.063    479.731    479.731    479.731
 61.570    719.000    707.721     11.279    479.788    707.674    479.788    479.788    479.788
 61.670    794.000    754.508     39.492    479.846    754.445    479.846    479.846    479.846
 61.770    807.057    824.982    -17.925    479.904    824.898    479.904    479.904    479.904
 61.870    912.000    918.048     -6.048    479.964    917.941    479.964    479.964    479.964
 61.970   1018.000   1029.177    -11.177    480.024   1029.047    480.024    480.024    480.024
 62.070   1148.000   1148.804     -0.804    480.085   1148.653    480.085    480.085    480.085
 62.170   1212.000   1261.252    -49.252    480.147   1261.090    480.147    480.147    480.147
 62.270   1348.496   1345.385      3.112    480.210   1345.227    480.210    480.210    480.210
 62.370   1284.000   1380.009    -96.009    480.273   1379.873    480.273    480.273    480.273
 62.470   1319.866   1354.597    -34.731    480.337   1354.496    480.337    480.337    480.337
 62.570   1258.000   1276.362    -18.362    480.402   1276.297    480.402    480.402    480.402
 62.670   1127.000   1165.070    -38.070    480.467   1165.037    480.467    480.467    480.467
 62.770    974.000   1042.228    -68.228    480.533   1042.216    480.533    480.533    480.533
 62.870    908.860    924.523    -15.662    480.600    924.523    480.600    480.600    480.600
 62.970    736.000    822.346    -86.346    480.667    822.352    480.667    480.667    480.667
 63.070    769.495    740.465     29.029    480.735    740.473    480.735    480.735    480.735
 63.170    633.000    679.324    -46.324    480.804    679.329    480.804    480.804    480.804
 63.270    638.825    636.576      2.249    480.873    636.577    480.873    480.873    480.873
 63.370    619.822    608.609     11.213    480.943    608.607    480.943    480.943    480.943
 63.470    636.000    591.786     44.214    481.014    591.781    481.014    481.014    481.014
 63.570    613.325    583.227     30.098    481.085    583.219    481.085    481.085    481.085
 63.670    570.153    581.165    -11.012    481.157    581.154    481.157    481.157    481.157
 63.770    624.622    584.976     39.646    481.229    584.961    481.229    481.229    481.229
 63.870    633.000    595.017     37.983    481.302    594.996    481.302    481.302    481.302
 63.970    573.894    612.333    -38.440    481.375    612.305    481.375    481.375    481.375
 64.070    677.000    638.269     38.731    481.449    638.231    481.449    481.449    481.449
 64.170    687.129    673.965     13.165    481.523    673.914    481.523    481.523    481.523
 64.270    778.959    719.778     59.180    481.598    719.713    481.598    481.598    481.598
 64.370    796.000    774.668     21.332    481.674    774.586    481.674    481.674    481.674
 64.470    822.982    835.578    -12.596    481.750    835.482    481.750    481.750    481.750
 64.570    921.000    896.947     24.053    481.826    896.838    481.826    481.826    481.826
 64.670    921.000    950.730    -29.730    481.903    950.615    481.903    481.903    481.903
 64.770   1029.821    987.892     41.929    481.980    987.780    481.980    481.980    481.980
 64.870    999.000   1001.665     -2.665    482.058   1001.565    482.058    482.058    482.058
 64.970   1007.000    990.522     16.478    482.136    990.442    482.136    482.136    482.136
 65.070    936.409    958.386    -21.978    482.214    958.329    482.214    482.214    482.214
 65.170    933.000    912.496     20.504    482.293    912.462    482.293    482.293    482.293
 65.270    830.817    860.763    -29.946    482.372    860.750    482.372    482.372    482.372
 65.370    774.000    809.710    -35.710    482.452    809.714    482.452    482.452    482.452
 65.470    705.000    763.269    -58.269    482.532    763.286    482.532    482.532    482.532
 65.570    726.000    722.899      3.101    482.612    722.924    482.612    482.612    482.612
 65.670    650.763    688.490    -37.726    482.693    688.519    482.693    482.693    482.693
 65.770    678.000    659.481     18.519    482.774    659.509    482.774    482.774    482.774
 65.870    636.066    635.464      0.602    482.855    635.489    482.855    482.855    482.855
 65.970    614.000    616.153     -2.153    482.937    616.173    482.937    482.937    482.937
 66.070    566.600    601.203    -34.603    483.019    601.218    483.019    483.019    483.019
 66.170    608.000    590.179     17.821    483.101    590.190    483.101    483.101    483.101
 66.270    535.939    582.625    -46.686    483.183    582.632    483.183    483.183    483.183
 66.370    543.000    578.124    -35.124    483.266    578.129    483.266    483.266    483.266
 66.470    545.000    576.337    -31.337    483.349    576.341    483.349    483.349    483.349
 66.570    581.550    577.037      4.513    483.432    577.040    483.432    483.432    483.432
 66.670    575.000    580.178     -5.178    483.515    580.182    483.515    483.515    483.515
 66.770    543.000    586.006    -43.006    483.599    586.010    483.599    483.599    483.599
 66.870    585.000    595.208    -10.208    483.682    595.213    483.682    483.682    483.682
 66.970    584.000    609.122    -25.122    483.766    609.127    483.766    483.766    483.766
 67.070    662.036    629.966     32.070    483.850    629.971    483.850    483.850    483.850
 67.170    715.221    661.059     54.162    483.935    661.064    483.935    483.935    483.935
 67.270    639.000    706.923    -67.923    484.019    706.926    484.019    484.019    484.019
 67.370    751.475    773.113    -21.638    484.103    773.117    484.103    484.103    484.103
 67.470    813.000    865.638    -52.638    484.188    865.643    484.188    484.188    484.188
 67.570    896.000    989.862    -93.862    484.273    989.871    484.273    484.273    484.273
 67.670   1074.000   1148.944    -74.944    484.357   1148.962    484.357    484.357    484.357
 67.770   1302.466   1341.999    -39.532    484.442   1342.034    484.442    484.442    484.442
 67.870   1462.000   1562.267   -100.267    484.527   1562.329    484.527    484.527    484.527
 67.970   1713.000   1795.495    -82.495    484.612   1795.595    484.612    484.612    484.612
 68.070   2001.000   2018.851    -17.851    484.697   2019.001    484.697    484.697    484.697
 68.170   2109.710   2201.613    -91.904    484.782   2201.823    484.782    484.782    484.782
 68.270   2253.000   2310.524    -57.524    484.867   2310.797    484.867    484.867    484.867
 68.370   2374.000   2321.506     52.494    484.952   2321.832    484.952    484.952    484.952
 68.470   2294.291   2231.880     62.410    485.037   2232.236    485.037    485.037    485.037
 68.570   2121.000   2062.007     58.993    485.122   2062.365    485.122    485.122    485.122
 68.670   1917.573   1844.489     73.083    485.207   1844.824    485.207    485.207    485.207
 68.770   1743.000   1611.342    131.658    485.292   1611.637    485.292    485.292    485.292
 68.870   1325.654   1387.217    -61.563    485.377   1387.465    485.377    485.377    485.377
 68.970   1168.000   1188.074    -20.074    485.462   1188.274    485.462    485.462    485.462
 69.070    967.898   1022.087    -54.189    485.546   1022.241    485.546    485.546    485.546
 69.170    853.000    891.194    -38.194    485.631    891.310    485.631    485.631    485.631
 69.270    780.228    792.906    -12.678    485.716    792.990    485.716    485.716    485.716
 69.370    767.907    722.153     45.754    485.800    722.214    485.800    485.800    485.800
 69.470    725.024    672.931     52.093    485.884    672.975    485.884    485.884    485.884
 69.570    637.000    639.498     -2.498    485.968    639.529    485.968    485.968    485.968
 69.670    615.774    617.052     -1.278    486.052    617.075    486.052    486.052    486.052
 69.770    612.539    601.969     10.570    486.136    601.986    486.136    486.136    486.136
 69.870    607.000    591.725     15.275    486.220    591.739    486.220    486.220    486.220
 69.970    646.000    584.687     61.313    486.303    584.698    486.303    486.303    486.303
 70.070    554.512    579.855    -25.344    486.386    579.864    486.386    486.386    486.386
 70.170    621.000    576.656     44.344    486.469    576.663    486.469    486.469    486.469
 70.270    583.000    574.787      8.213    486.552    574.792    486.552    486.552    486.552
 70.370    600.000    574.129     25.871    486.635    574.133    486.635    486.635    486.635
 70.470    582.000    574.706      7.294    486.717    574.708    486.717    486.717    486.717
 70.570    573.000    576.692     -3.692    486.799    576.693    486.799    486.799    486.799
 70.670    595.661    580.464     15.197    486.881    580.462    486.881    486.881    486.881
 70.770    608.000    586.681     21.319    486.962    586.677    486.962    486.962    486.962
 70.870    632.936    596.406     36.530    487.043    596.399    487.043    487.043    487.043
 70.970    606.000    611.235     -5.235    487.124    611.224    487.124    487.124    487.124
 71.070    618.000    633.400    -15.400    487.205    633.383    487.205    487.205    487.205
 71.170    653.000    665.790    -12.790    487.285    665.764    487.285    487.285    487.285
 71.270    707.271    711.815     -4.544    487.365    711.778    487.365    487.365    487.365
 71.370    767.000    775.044     -8.044    487.444    774.993    487.444    487.444    487.444
 71.470    854.697    858.584     -3.887    487.523    858.515    487.523    487.523    487.523
 71.570    932.000    964.241    -32.241    487.602    964.152    487.602    487.602    487.602
 71.670   1011.000   1091.564    -80.564    487.680   1091.453    487.680    487.680    487.680
 71.770   1309.906   1236.900     73.006    487.758   1236.767    487.758    487.758    487.758
 71.870   1352.000   1392.568    -40.568    487.836   1392.416    487.836    487.836    487.836
 71.970   1538.000   1546.226     -8.226    487.913   1546.061    487.913    487.913    487.913
 72.070   1766.417   1680.791     85.627    487.990   1680.623    487.990    487.990    487.990
 72.170   1854.247   1776.161     78.086    488.066   1776.004    488.066    488.066    488.066
 72.270   1831.000   1814.384     16.616    488.142   1814.252    488.142    488.142    488.142
 72.370   1794.715   1787.244      7.471    488.217   1787.146    488.217    488.217    488.217
 72.470   1705.051   1700.600      4.451    488.292   1700.538    488.292    488.292    488.292
 72.570   1655.000   1571.157     83.843    488.366   1571.126    488.366    488.366    488.366
 72.670   1472.000   1419.020     52.980    488.440   1419.013    488.440    488.440    488.440
 72.770   1197.454   1261.970    -64.516    488.513   1261.978    488.513    488.513    488.513
 72.870   1236.000   1113.218    122.782    488.586   1113.235    488.586    488.586    488.586
 72.970   1052.000    981.251     70.749    488.658    981.271    488.658    488.658    488.658
 73.070    889.800    870.395     19.405    488.730    870.415    488.730    488.730    488.730
 73.170    836.000    781.625     54.375    488.801    781.643    488.801    488.801    488.801
 73.270    815.000    713.493    101.507    488.872    713.508    488.872    488.872    488.872
 73.370    723.989    663.095     60.894    488.942    663.106    488.942    488.942    488.942
 73.470    633.000    626.931      6.069    489.011    626.939    489.011    489.011    489.011
 73.570    686.000    601.568     84.432    489.080    601.575    489.080    489.080    489.080
 73.670    604.000    584.049     19.951    489.148    584.055    489.148    489.148    489.148
 73.770    611.980    572.061     39.919    489.215    572.066    489.215    489.215    489.215
 73.870    574.000    563.936     10.064    489.282    563.942    489.282    489.282    489.282
 73.970    587.790    558.548     29.242    489.348    558.557    489.348    489.348    489.348
 74.070    551.635    555.172     -3.537    489.414    555.183    489.414    489.414    489.414
 74.170    584.934    553.339     31.596    489.479    553.354    489.479    489.479    489.479
 74.270    534.750    552.720    -17.970    489.543    552.739    489.543    489.543    489.543
 74.370    617.000    553.039     63.961    489.606    553.063    489.606    489.606    489.606
 74.470    574.829    554.008     20.820    489.669    554.038    489.669    489.669    489.669
 74.570    599.000    555.292     43.708    489.731    555.328    489.731    489.731    489.731
 74.670    592.000    556.490     35.510    489.793    556.530    489.793    489.793    489.793
 74.770    628.000    557.162     70.838    489.853    557.205    489.853    489.853    489.853
 74.870    514.715    556.927    -42.212    489.913    556.973    489.913    489.913    489.913
 74.970    639.000    555.604     83.396    489.972    555.649    489.972    489.972    489.972
 75.070    614.000    553.301     60.699    490.031    553.344    490.031    490.031    490.031
 75.170    634.000    550.383     83.617    490.088    550.421    490.088    490.088    490.088
 75.270    534.809    547.347    -12.539    490.145    547.380    490.145    490.145    490.145
 75.370    580.000    544.716     35.284    490.201    544.742    490.201    490.201    490.201
 75.470    555.000    542.993     12.007    490.256    543.013    490.256    490.256    490.256
 75.570    506.500    542.663    -36.163    490.311    542.676    490.311    490.311    490.311
 75.670    607.000    544.187     62.813    490.364    544.194    490.364    490.364    490.364
 75.770    571.000    548.004     22.996    490.417    548.003    490.417    490.417    490.417
 75.870    590.000    554.496     35.504    490.469    554.488    490.469    490.469    490.469
 75.970    587.000    563.946     23.054    490.520    563.931    490.520    490.520    490.520
 76.070    570.887    576.469     -5.582    490.570    576.447    490.570    490.570    490.570
 76.170    581.000    591.932    -10.932    490.619    591.903    490.619    490.619    490.619
 76.270    639.000    609.873     29.127    490.668    609.836    490.668    490.668    490.668
 76.370    625.000    629.429     -4.429    490.715    629.385    490.715    490.715    490.715
 76.470    641.000    649.274     -8.274    490.762    649.224    490.762    490.762    490.762
 76.570    710.362    667.605     42.757    490.808    667.550    490.808    490.808    490.808
 76.670    710.000    682.238     27.762    490.852    682.181    490.852    490.852    490.852
 76.770    690.000    690.971     -0.971    490.896    690.913    490.896    490.896    490.896
 76.870    676.000    692.223    -16.223    490.939    692.169    490.939    490.939    490.939
 76.970    689.000    685.687      3.313    490.981    685.638    490.981    490.981    490.981
 77.070    701.000    672.465     28.535    491.022    672.423    491.022    491.022    491.022
 77.170    634.000    654.587    -20.587    491.062    654.552    491.062    491.062    491.062
 77.270    668.000    634.292     33.708    491.101    634.263    491.101    491.101    491.101
 77.370    651.000    613.531     37.469    491.139    613.509    491.139    491.139    491.139
 77.470    581.361    593.782    -12.421    491.176    593.764    491.176    491.176    491.176
 77.570    582.000    576.028      5.972    491.212    576.015    491.212    491.212    491.212
 77.670    583.101    560.816     22.285    491.247    560.806    491.247    491.247    491.247
 77.770    557.000    548.322      8.678    491.281    548.315    491.281    491.281    491.281
 77.870    516.000    538.445    -22.445    491.314    538.440    491.314    491.314    491.314
 77.970    493.115    530.896    -37.781    491.346    530.892    491.346    491.346    491.346
 78.070    529.000    525.298      3.702    491.377    525.295    491.377    491.377    491.377
 78.170    516.000    521.243     -5.243    491.406    521.241    491.406    491.406    491.406
 78.270    568.000    518.354     49.646    491.435    518.353    491.435    491.435    491.435
 78.370    479.076    516.318    -37.242    491.463    516.316    491.463    491.463    491.463
 78.470    507.000    514.887     -7.887    491.489    514.886    491.489    491.489    491.489
 78.570    558.407    513.885     44.522    491.515    513.884    491.515    491.515    491.515
 78.670    538.000    513.189     24.811    491.539    513.189    491.539    491.539    491.539
 78.770    550.379    512.723     37.656    491.562    512.722    491.562    491.562    491.562
 78.870    484.000    512.442    -28.442    491.584    512.441    491.584    491.584    491.584
 78.970    535.000    512.326     22.674    491.605    512.325    491.605    491.605    491.605
 79.070    503.713    512.372     -8.659    491.625    512.371    491.625    491.625    491.625
 79.170    447.000    512.591    -65.591    491.644    512.590    491.644    491.644    491.644
 79.270    517.842    513.003      4.838    491.662    513.003    491.662    491.662    491.662
 79.370    502.000    513.638    -11.638    491.678    513.637    491.678    491.678    491.678
 79.470    502.000    514.534    -12.534    491.693    514.533    491.693    491.693    491.693
 79.570    493.000    515.737    -22.737    491.707    515.735    491.707    491.707    491.707
 79.670    471.522    517.308    -45.787    491.720    517.306    491.720    491.720    491.720
 79.770    526.292    519.326      6.966    491.732    519.323    491.732    491.732    491.732
 79.870    498.558    521.891    -23.333    491.742    521.888    491.742    491.742    491.742
 79.970    558.000    525.137     32.863    491.752    525.133    491.752    491.752    491.752
 80.070    523.000    529.231     -6.231    491.760    529.228    491.760    491.760    491.760
 80.170    585.077    534.379     50.698    491.767    534.375    491.767    491.767    491.767
 80.270    553.000    540.821     12.179    491.772    540.817    491.772    491.772    491.772
 80.370    591.446    548.836     42.610    491.777    548.834    491.777    491.777    491.777
 80.470    511.000    558.732    -47.732    491.780    558.732    491.780    491.780    491.780
 80.570    571.147    570.804      0.342    491.782    570.806    491.782    491.782    491.782
 80.670    621.214    585.259     35.955    491.782    585.264    491.782    491.782    491.782
 80.770    646.139    602.121     44.018    491.782    602.130    491.782    491.782    491.782
 80.870    627.000    621.146      5.854    491.780    621.160    491.780    491.780    491.780
 80.970    615.000    641.765    -26.765    491.777    641.785    491.777    491.777    491.777
 81.070    626.000    663.082    -37.082    491.773    663.108    491.773    491.773    491.773
 81.170    687.000    683.946      3.054    491.767    683.979    491.767    491.767    491.767
 81.270    679.187    703.113    -23.926    491.760    703.152    491.760    491.760    491.760
 81.370    714.047    719.429     -5.382    491.752    719.475    491.752    491.752    491.752
 81.470    675.027    731.962    -56.935    491.742    732.014    491.742    491.742    491.742
 81.570    716.000    740.068    -24.068    491.731    740.125    491.731    491.731    491.731
 81.670    694.000    743.444    -49.444    491.719    743.507    491.719    491.719    491.719
 81.770    761.142    742.137     19.005    491.705    742.204    491.705    491.705    491.705
 81.870    695.931    736.452    -40.521    491.691    736.522    491.691    491.691    491.691
 81.970    740.912    726.859     14.052    491.674    726.932    491.674    491.674    491.674
 82.070    728.000    713.998     14.002    491.657    714.072    491.657    491.657    491.657
 82.170    705.000    698.713      6.287    491.638    698.785    491.638    491.638    491.638
 82.270    673.000    681.972     -8.972    491.618    682.042    491.618    491.618    491.618
 82.370    713.570    664.679     48.891    491.596    664.746    491.596    491.596    491.596
 82.470    679.000    647.507     31.493    491.573    647.571    491.573    491.573    491.573
 82.570    681.959    630.881     51.078    491.549    630.940    491.549    491.549    491.549
 82.670    588.000    615.075    -27.075    491.523    615.128    491.523    491.523    491.523
 82.770    579.000    600.342    -21.342    491.496    600.389    491.496    491.496    491.496
 82.870    594.528    586.963      7.565    491.468    587.004    491.468    491.468    491.468
 82.970    617.506    575.229     42.278    491.438    575.262    491.438    491.438    491.438
 83.070    560.000    565.381     -5.381    491.407    565.407    491.407    491.407    491.407
 83.170    575.000    557.586     17.414    491.374    557.603    491.374    491.374    491.374
 83.270    506.000    551.920    -45.920    491.340    551.930    491.340    491.340    491.340
 83.370    542.000    548.377     -6.377    491.305    548.379    491.305    491.305    491.305
 83.470    571.000    546.860     24.140    491.268    546.854    491.268    491.268    491.268
 83.570    503.376    547.185    -43.809    491.230    547.171    491.230    491.230    491.230
 83.670    541.000    549.066     -8.066    491.190    549.044    491.190    491.190    491.190
 83.770    552.584    552.100      0.484    491.149    552.071    491.149    491.149    491.149
 83.870    605.153    555.925     49.228    491.107    555.889    491.107    491.107    491.107
 83.970    512.273    559.956    -47.683    491.063    559.915    491.063    491.063    491.063
 84.070    517.812    563.589    -45.776    491.017    563.543    491.017    491.017    491.017
 84.170    480.000    566.216    -86.216    490.971    566.168    490.971    490.971    490.971
 84.270    521.000    567.318    -46.318    490.922    567.270    490.922    490.922    490.922
 84.370    520.000    566.586    -46.586    490.873    566.539    490.873    490.873    490.873
 84.470    578.927    564.002     14.925    490.822    563.958    490.822    490.822    490.822
 84.570    529.000    559.831    -30.831    490.769    559.791    490.769    490.769    490.769
 84.670    530.027    554.514    -24.487    490.715    554.479    490.715    490.715    490.715
 84.770    602.000    548.545     53.455    490.659    548.515    490.659    490.659    490.659
 84.870    533.327    542.382     -9.055    490.603    542.356    490.603    490.603    490.603
 84.970    523.000    536.400    -13.400    490.544    536.379    490.544    490.544    490.544
 85.070    492.639    530.881    -38.242    490.484    530.863    490.484    490.484    490.484
 85.170    514.203    526.010    -11.807    490.423    525.995    490.423    490.423    490.423
 85.270    521.000    521.887     -0.887    490.360    521.875    490.360    490.360    490.360
 85.370    551.000    518.540     32.460    490.296    518.531    490.296    490.296    490.296
 85.470    494.000    515.943    -21.943    490.230    515.935    490.230    490.230    490.230
 85.570    512.000    514.032     -2.032    490.163    514.025    490.163    490.163    490.163
 85.670    545.000    512.737     32.263    490.094    512.730    490.094    490.094    490.094
 85.770    495.000    511.980    -16.980    490.024    511.973    490.024    490.024    490.024
 85.870    509.000    511.702     -2.702    489.952    511.694    489.952    489.952    489.952
 85.970    488.000    511.869    -23.869    489.879    511.861    489.879    489.879    489.879
 86.070    538.000    512.477     25.523    489.804    512.467    489.804    489.804    489.804
 86.170    561.000    513.555     47.445    489.728    513.544    489.728    489.728    489.728
 86.270    485.000    515.164    -30.164    489.651    515.151    489.651    489.651    489.651
 86.370    525.000    517.394      7.606    489.572    517.378    489.572    489.572    489.572
 86.470    529.000    520.355      8.645    489.491    520.335    489.491    489.491    489.491
 86.570    557.000    524.166     32.834    489.409    524.142    489.409    489.409    489.409
 86.670    558.031    528.944     29.086    489.325    528.914    489.325    489.325    489.325
 86.770    544.000    534.783      9.217    489.240    534.746    489.240    489.240    489.240
 86.870    515.000    541.734    -26.734    489.154    541.689    489.154    489.154    489.154
 86.970    596.289    549.780     46.510    489.065    549.725    489.065    489.065    489.065
 87.070    548.000    558.813    -10.813    488.976    558.749    488.976    488.976    488.976
 87.170    561.000    568.614     -7.614    488.885    568.539    488.885    488.885    488.885
 87.270    559.000    578.833    -19.833    488.792    578.748    488.792    488.792    488.792
 87.370    590.000    588.981      1.019    488.698    588.887    488.698    488.698    488.698
 87.470    617.000    598.436     18.564    488.602    598.334    488.602    488.602    488.602
 87.570    641.000    606.475     34.525    488.505    606.367    488.505    488.505    488.505
 87.670    585.000    612.368    -27.368    488.407    612.257    488.407    488.407    488.407
 87.770    634.000    615.534     18.466    488.307    615.425    488.307    488.307    488.307
 87.870    627.000    615.708     11.292    488.205    615.604    488.205    488.205    488.205
 87.970    604.383    613.028     -8.645    488.102    612.932    488.102    488.102    488.102
 88.070    635.725    607.985     27.740    487.997    607.900    487.997    487.997    487.997
 88.170    644.000    601.283     42.717    487.891    601.210    487.891    487.891    487.891
 88.270    566.726    593.696    -26.971    487.784    593.636    487.784    487.784    487.784
 88.370    587.000    585.979      1.021    487.675    585.931    487.675    487.675    487.675
 88.470    603.000    578.804     24.196    487.564    578.769    487.564    487.564    487.564
 88.570    551.000    572.733    -21.733    487.452    572.708    487.452    487.452    487.452
 88.670    545.000    568.183    -23.183    487.339    568.169    487.339    487.339    487.339
 88.770    596.787    565.416     31.371    487.224    565.412    487.224    487.224    487.224
 88.870    533.000    564.530    -31.530    487.107    564.535    487.107    487.107    487.107
 88.970    573.000    565.463      7.537    486.989    565.477    486.989    486.989    486.989
 89.070    605.976    568.005     37.972    486.870    568.027    486.870    486.870    486.870
 89.170    579.000    571.806      7.194    486.749    571.836    486.749    486.749    486.749
 89.270    605.000    576.399     28.601    486.626    576.436    486.626    486.626    486.626
 89.370    591.000    581.216      9.784    486.502    581.261    486.502    486.502    486.502
 89.470    609.000    585.622     23.378    486.377    585.674    486.377    486.377    486.377
 89.570    569.992    588.970    -18.978    486.250    589.027    486.250    486.250    486.250
 89.670    597.000    590.690      6.310    486.121    590.751    486.121    486.121    486.121
 89.770    640.000    590.401     49.599    485.992    590.464    485.992    485.992    485.992
 89.870    614.592    587.998     26.594    485.860    588.062    485.860    485.860    485.860
 89.970    543.000    583.664    -40.664    485.728    583.726    485.728    485.728    485.728
 90.070    563.447    577.796    -14.349    485.593    577.855    485.593    485.593    485.593
 90.170    592.000    570.892     21.108    485.458    570.946    485.458    485.458    485.458
 90.270    518.000    563.455    -45.455    485.321    563.504    485.321    485.321    485.321
 90.370    518.607    555.933    -37.326    485.182    555.975    485.182    485.182    485.182
 90.470    547.000    548.688     -1.688    485.042    548.724    485.042    485.042    485.042
 90.570    523.000    541.996    -18.996    484.901    542.026    484.901    484.901    484.901
 90.670    506.000    536.043    -30.043    484.758    536.067    484.758    484.758    484.758
 90.770    561.127    530.938     30.189    484.613    530.957    484.613    484.613    484.613
 90.870    549.000    526.721     22.279    484.468    526.736    484.468    484.468    484.468
 90.970    499.662    523.378    -23.716    484.320    523.389    484.320    484.320    484.320
 91.070    528.154    520.859      7.294    484.172    520.867    484.172    484.172    484.172
 91.170    523.695    519.096      4.599    484.022    519.102    484.022    484.022    484.022
 91.270    494.000    518.016    -24.016    483.870    518.020    483.870    483.870    483.870
 91.370    510.000    517.557     -7.557    483.718    517.558    483.718    483.718    483.718
 91.470    542.380    517.677     24.703    483.563    517.677    483.563    483.563    483.563
 91.570    540.000    518.365     21.635    483.408    518.363    483.408    483.408    483.408
 91.670    475.400    519.641    -44.241    483.251    519.638    483.251    483.251    483.251
 91.770    507.000    521.562    -14.562    483.092    521.557    483.092    483.092    483.092
 91.870    471.000    524.217    -53.217    482.932    524.210    482.932    482.932    482.932
 91.970    520.000    527.728     -7.728    482.771    527.719    482.771    482.771    482.771
 92.070    576.913    532.240     44.673    482.609    532.228    482.609    482.609    482.609
 92.170    538.000    537.912      0.088    482.445    537.897    482.445    482.445    482.445
 92.270    569.000    544.904     24.096    482.280    544.885    482.280    482.280    482.280
 92.370    545.000    553.364     -8.364    482.113    553.341    482.113    482.113    482.113
 92.470    547.000    563.413    -16.413    481.945    563.385    481.945    481.945    481.945
 92.570    597.906    575.122     22.784    481.776    575.089    481.776    481.776    481.776
 92.670    567.000    588.502    -21.502    481.605    588.463    481.605    481.605    481.605
 92.770    617.000    603.483     13.517    481.433    603.438    481.433    481.433    481.433
 92.870    590.659    619.903    -29.244    481.260    619.851    481.260    481.260    481.260
 92.970    628.000    637.493     -9.493    481.086    637.435    481.086    481.086    481.086
 93.070    681.000    655.871     25.129    480.910    655.808    480.910    480.910    480.910
 93.170    658.000    674.552    -16.552    480.733    674.485    480.733    480.733    480.733
 93.270    676.000    692.986    -16.986    480.554    692.915    480.554    480.554    480.554
 93.370    706.000    710.635     -4.635    480.375    710.561    480.375    480.375    480.375
 93.470    748.000    727.092     20.908    480.194    727.017    480.194    480.194    480.194
 93.570    734.000    742.174     -8.174    480.011    742.099    480.011    480.011    480.011
 93.670    749.195    755.951     -6.756    479.828    755.876    479.828    479.828    479.828
 93.770    788.000    768.672     19.328    479.643    768.598    479.643    479.643    479.643
 93.870    754.893    780.640    -25.747    479.457    780.567    479.457    479.457    479.457
 93.970    735.663    792.098    -56.435    479.270    792.028    479.270    479.270    479.270
 94.070    830.000    803.185     26.815    479.082    803.117    479.082    479.082    479.082
 94.170    875.000    813.955     61.045    478.892    813.889    478.892    478.892    478.892
 94.270    806.395    824.507    -18.112    478.701    824.443    478.701    478.701    478.701
 94.370    862.000    834.963     27.037    478.509    834.902    478.509    478.509    478.509
 94.470    875.000    845.442     29.558    478.316    845.384    478.316    478.316    478.316
 94.570    814.406    855.969    -41.564    478.122    855.915    478.122    478.122    478.122
 94.670    879.000    866.342     12.658    477.926    866.292    477.926    477.926    477.926
 94.770    858.000    876.041    -18.041    477.730    875.996    477.730    477.730    477.730
 94.870    916.024    884.219     31.806    477.532    884.179    477.532    477.532    477.532
 94.970    879.000    889.774    -10.774    477.333    889.741    477.333    477.333    477.333
 95.070    946.000    891.523     54.477    477.133    891.497    477.133    477.133    477.133
 95.170    862.000    888.446    -26.446    476.932    888.429    476.932    476.932    476.932
 95.270    905.000    879.976     25.024    476.729    879.966    476.729    476.729    476.729
 95.370    887.000    866.190     20.810    476.526    866.188    476.526    476.526    476.526
 95.470    909.000    847.844     61.156    476.322    847.848    476.322    476.322    476.322
 95.570    818.000    826.217     -8.217    476.116    826.226    476.116    476.116    476.116
 95.670    814.102    802.889     11.213    475.910    802.901    475.910    475.910    475.910
 95.770    769.000    779.530    -10.530    475.702    779.543    475.702    475.702    475.702
 95.870    775.000    757.768     17.232    475.493    757.781    475.493    475.493    475.493
 95.970    714.000    739.114    -25.114    475.284    739.124    475.284    475.284    475.284
 96.070    740.000    724.931     15.069    475.073    724.938    475.073    475.073    475.073
 96.170    711.598    716.418     -4.820    474.862    716.421    474.862    474.862    474.862
 96.270    746.215    714.597     31.618    474.649    714.595    474.649    474.649    474.649
 96.370    685.000    720.306    -35.306    474.435    720.296    474.435    474.435    474.435
 96.470    696.000    734.182    -38.182    474.221    734.166    474.221    474.221    474.221
 96.570    745.000    756.652    -11.652    474.005    756.628    474.005    474.005    474.005
 96.670    772.445    787.906    -15.461    473.789    787.875    473.789    473.789    473.789
 96.770    863.000    827.866     35.134    473.572    827.827    473.572    473.572    473.572
 96.870    879.281    876.142      3.139    473.353    876.095    473.353    473.353    473.353
 96.970    919.620    931.984    -12.364    473.134    931.930    473.134    473.134    473.134
 97.070   1017.000    994.231     22.769    472.914    994.171    472.914    472.914    472.914
 97.170   1117.232   1061.264     55.968    472.694   1061.200    472.694    472.694    472.694
 97.270   1088.000   1130.967    -42.967    472.472   1130.901    472.472    472.472    472.472
 97.370   1267.947   1200.722     67.225    472.249   1200.656    472.249    472.249    472.249
 97.470   1248.000   1267.410    -19.410    472.026   1267.348    472.026    472.026    472.026
 97.570   1368.000   1327.512     40.488    471.802   1327.457    471.802    471.802    471.802
 97.670   1403.000   1377.347     25.653    471.577   1377.303    471.577    471.577    471.577
 97.770   1419.000   1413.485      5.515    471.351   1413.456    471.351    471.351    471.351
 97.870   1440.276   1433.302      6.974    471.125   1433.290    471.125    471.125    471.125
 97.970   1492.681   1435.510     57.171    470.898   1435.516    470.898    470.898    470.898
 98.070   1422.000   1420.422      1.578    470.670   1420.447    470.670    470.670    470.670
 98.170   1408.363   1389.838     18.525    470.441   1389.879    470.441    470.441    470.441
 98.270   1418.000   1346.619     71.381    470.212   1346.673    470.212    470.212    470.212
 98.370   1266.000   1294.178    -28.178    469.982   1294.243    469.982    469.982    469.982
 98.470   1169.000   1236.053    -67.053    469.751   1236.124    469.751    469.751    469.751
 98.570   1215.000   1175.618     39.382    469.520   1175.691    469.520    469.520    469.520
 98.670   1142.000   1115.904     26.096    469.288   1115.976    469.288    469.288    469.288
 98.770   1072.000   1059.738     12.262    469.055   1059.807    469.055    469.055    469.055
 98.870    917.000   1009.386    -92.386    468.822   1009.449    468.822    468.822    468.822
 98.970    936.000    966.795    -30.795    468.588    966.852    468.588    468.588    468.588
 99.070    891.000    933.575    -42.575    468.354    933.624    468.354    468.354    468.354
 99.170    891.000    911.011    -20.011    468.119    911.051    468.119    468.119    468.119
 99.270    894.000    900.069     -6.069    467.884    900.102    467.884    467.884    467.884
 99.370    880.000    901.447    -21.447    467.648    901.473    467.648    467.648    467.648
 99.470    946.000    915.531     30.469    467.411    915.551    467.411    467.411    467.411
 99.570    925.000    942.427    -17.427    467.175    942.442    467.175    467.175    467.175
 99.670    919.000    981.962    -62.962    466.937    981.975    466.937    466.937    466.937
 99.770   1007.000   1033.665    -26.665    466.700   1033.678    466.700    466.700    466.700
 99.870   1144.920   1096.742     48.178    466.461   1096.756    466.461    466.461    466.461
 99.970   1144.000   1170.030    -26.030    466.223   1170.049    466.223    466.223    466.223
100.070   1316.169   1251.958     64.210    465.984   1251.986    465.984    465.984    465.984
100.170   1297.000   1340.501    -43.501    465.745   1340.540    465.745    465.745    465.745
100.270   1407.155   1433.152    -25.996    465.505   1433.205    465.505    465.505    465.505
100.370   1507.000   1526.954    -19.954    465.265   1527.025    465.265    465.265    465.265
100.470   1692.000   1618.609     73.391    465.025   1618.702    465.025    465.025    465.025
100.570   1709.000   1704.711      4.289    464.784   1704.827    464.784    464.784    464.784
100.670   1855.736   1782.051     73.685    464.544   1782.193    464.544    464.544    464.544
100.770   1914.042   1847.925     66.117    464.303   1848.092    464.303    464.303    464.303
100.870   1976.714   1900.287     76.428    464.062   1900.479    464.062    464.062    464.062
100.970   1986.000   1937.717     48.283    463.820   1937.933    463.820    463.820    463.820
101.070   1962.000   1959.250      2.750    463.579   1959.486    463.579    463.579    463.579
101.170   1880.627   1964.236    -83.609    463.337   1964.488    463.337    463.337    463.337
101.270   1994.000   1952.391     41.609    463.095   1952.655    463.095    463.095    463.095
101.370   1978.000   1924.038     53.962    462.853   1924.311    462.853    462.853    462.853
101.470   1889.000   1880.411      8.589    462.611   1880.687    462.611    462.611    462.611
101.570   1863.759   1823.800     39.959    462.369   1824.074    462.369    462.369    462.369
101.670   1819.000   1757.421     61.579    462.127   1757.689    462.127    462.127    462.127
101.770   1770.000   1685.025     84.975    461.885   1685.284    461.885    461.885    461.885
101.870   1691.106   1610.414     80.692    461.642   1610.660    461.642    461.642    461.642
101.970   1567.000   1537.017     29.983    461.400   1537.248    461.400    461.400    461.400
102.070   1445.000   1467.624    -22.624    461.158   1467.839    461.158    461.158    461.158
102.170   1447.229   1404.256     42.972    460.916   1404.455    460.916    460.916    460.916
102.270   1359.663   1348.138     11.525    460.674   1348.321    460.674    460.674    460.674
102.370   1332.000   1299.722     32.278    460.432   1299.890    460.432    460.432    460.432
102.470   1247.527   1258.815    -11.289    460.191   1258.971    460.191    460.191    460.191
102.570   1275.918   1224.533     51.384    459.949   1224.679    459.949    459.949    459.949
102.670   1205.000   1195.486      9.514    459.708   1195.624    459.708    459.708    459.708
102.770   1183.183   1169.907     13.276    459.467   1170.040    459.467    459.467    459.467
102.870   1217.131   1145.854     71.276    459.226   1145.983    459.226    459.226    459.226
102.970   1153.060   1121.454     31.607    458.986   1121.579    458.986    458.986    458.986
103.070   1039.000   1095.168    -56.168    458.745   1095.291    458.745    458.745    458.745
103.170   1077.000   1066.003     10.997    458.505   1066.124    458.505    458.505    458.505
103.270   1105.831   1033.592     72.239    458.266   1033.710    458.266    458.266    458.266
103.370    978.697    998.143    -19.446    458.027    998.257    458.027    458.027    458.027
103.470    924.000    960.283    -36.283    457.788    960.392    457.788    457.788    457.788
103.570    954.421    920.870     33.552    457.549    920.972    457.549    457.549    457.549
103.670    916.594    880.838     35.756    457.311    880.933    457.311    457.311    457.311
103.770    822.000    841.088    -19.088    457.074    841.176    457.074    457.074    457.074
103.870    800.000    802.449     -2.449    456.837    802.529    456.837    456.837    456.837
103.970    722.290    765.609    -43.319    456.600    765.682    456.600    456.600    456.600
104.070    751.671    731.129     20.542    456.365    731.193    456.365    456.365    456.365
104.170    697.000    699.425     -2.425    456.129    699.481    456.129    456.129    456.129
104.270    733.000    670.770     62.230    455.895    670.820    455.895    455.895    455.895
104.370    685.920    645.304     40.616    455.661    645.347    455.661    455.661    455.661
104.470    608.000    623.042    -15.042    455.427    623.078    455.427    455.427    455.427
104.570    574.987    603.893    -28.907    455.194    603.924    455.194    455.194    455.194
104.670    591.676    587.689      3.987    454.963    587.714    454.963    454.963    454.963
104.770    542.000    574.199    -32.199    454.731    574.220    454.731    454.731    454.731
104.870    522.663    563.164    -40.502    454.501    563.181    454.501    454.501    454.501
104.970    570.000    554.311     15.689    454.271    554.324    454.271    454.271    454.271
105.070    518.551    547.373    -28.822    454.043    547.383    454.043    454.043    454.043
105.170    592.000    542.106     49.894    453.815    542.114    453.815    453.815    453.815
105.270    537.000    538.296     -1.296    453.588    538.302    453.588    453.588    453.588
105.370    530.000    535.769     -5.769    453.362    535.772    453.362    453.362    453.362
105.470    551.048    534.385     16.662    453.137    534.387    453.137    453.137    453.137
105.570    532.373    534.049     -1.676    452.912    534.048    452.912    452.912    452.912
105.670    509.000    534.698    -25.698    452.689    534.695    452.689    452.689    452.689
105.770    551.000    536.301     14.699    452.467    536.296    452.467    452.467    452.467
105.870    536.000    538.854     -2.854    452.246    538.847    452.246    452.246    452.246
105.970    546.106    542.375      3.731    452.027    542.365    452.027    452.027    452.027
106.070    575.000    546.890     28.110    451.808    546.878    451.808    451.808    451.808
106.170    511.000    552.436    -41.436    451.590    552.421    451.590    451.590    451.590
106.270    542.000    559.039    -17.039    451.374    559.021    451.374    451.374    451.374
106.370    539.179    566.710    -27.531    451.159    566.690    451.159    451.159    451.159
106.470    559.000    575.415    -16.415    450.945    575.392    450.945    450.945    450.945
106.570    580.000    585.150     -5.150    450.733    585.123    450.733    450.733    450.733
106.670    565.000    595.808    -30.808    450.522    595.778    450.522    450.522    450.522
106.770    566.000    607.246    -41.246    450.312    607.213    450.312    450.312    450.312
106.870    616.000    619.276     -3.276    450.104    619.240    450.104    450.104    450.104
106.970    591.907    631.657    -39.750    449.897    631.618    449.897    449.897    449.897
107.070    642.000    644.101     -2.101    449.692    644.061    449.692    449.692    449.692
107.170    599.691    656.276    -56.585    449.488    656.233    449.488    449.488    449.488
107.270    630.000    667.812    -37.812    449.286    667.769    449.286    449.286    449.286
107.370    690.880    678.329     12.551    449.085    678.285    449.085    449.085    449.085
107.470    685.308    687.462     -2.154    448.886    687.419    448.886    448.886    448.886
107.570    682.312    694.909    -12.597    448.688    694.868    448.688    448.688    448.688
107.670    647.929    700.477    -52.548    448.493    700.439    448.493    448.493    448.493
107.770    651.000    704.126    -53.126    448.299    704.092    448.299    448.299    448.299
107.870    737.000    705.978     31.022    448.106    705.947    448.106    448.106    448.106
107.970    680.035    706.301    -26.266    447.916    706.274    447.916    447.916    447.916
108.070    741.943    705.467     36.476    447.727    705.446    447.727    447.727    447.727
108.170    679.134    703.895    -24.761    447.541    703.878    447.541    447.541    447.541
108.270    635.000    701.994    -66.994    447.356    701.981    447.356    447.356    447.356
108.370    706.000    700.120      5.880    447.173    700.112    447.173    447.173    447.173
108.470    693.000    698.555     -5.555    446.992    698.551    446.992    446.992    446.992
108.570    680.179    697.483    -17.304    446.813    697.483    446.813    446.813    446.813
108.670    664.706    696.988    -32.282    446.636    696.993    446.636    446.636    446.636
108.770    718.528    697.049     21.480    446.461    697.057    446.461    446.461    446.461
108.870    689.000    697.540     -8.540    446.289    697.552    446.289    446.289    446.289
108.970    690.000    698.241     -8.241    446.118    698.257    446.118    446.118    446.118
109.070    645.142    698.849    -53.708    445.950    698.869    445.950    445.950    445.950
109.170    646.703    699.005    -52.302    445.784    699.027    445.784    445.784    445.784
109.270    717.293    698.324     18.970    445.620    698.349    445.620    445.620    445.620
109.370    709.000    696.449     12.551    445.459    696.477    445.459    445.459    445.459
109.470    679.508    693.100    -13.592    445.300    693.130    445.300    445.300    445.300
109.570    690.000    688.114      1.886    445.143    688.145    445.143    445.143    445.143
109.670    653.836    681.471    -27.634    444.989    681.503    444.989    444.989    444.989
109.770    701.000    673.289     27.711    444.837    673.321    444.837    444.837    444.837
109.870    717.255    663.794     53.461    444.688    663.827    444.688    444.688    444.688
109.970    644.000    653.284     -9.284    444.542    653.316    444.542    444.542    444.542
110.070    684.931    642.086     42.846    444.398    642.116    444.398    444.398    444.398
110.170    585.000    630.525    -45.525    444.256    630.554    444.256    444.256    444.256
110.270    608.000    618.908    -10.908    444.118    618.935    444.118    444.118    444.118
110.370    640.000    607.508     32.492    443.982    607.533    443.982    443.982    443.982
110.470    621.000    596.560     24.440    443.849    596.582    443.849    443.849    443.849
110.570    624.450    586.256     38.194    443.718    586.276    443.718    443.718    443.718
110.670    560.000    576.751    -16.751    443.591    576.768    443.591    443.591    443.591
110.770    539.602    568.154    -28.552    443.466    568.169    443.466    443.466    443.466
110.870    545.000    560.538    -15.538    443.345    560.550    443.345    443.345    443.345
110.970    556.000    553.939      2.061    443.226    553.949    443.226    443.226    443.226
111.070    575.151    548.361     26.790    443.111    548.369    443.111    443.111    443.111
111.170    577.000    543.781     33.219    442.998    543.787    442.998    442.998    442.998
111.270    583.000    540.151     42.849    442.889    540.155    442.889    442.889    442.889
111.370    545.776    537.410      8.366    442.783    537.412    442.783    442.783    442.783
111.470    546.537    535.483     11.053    442.680    535.484    442.680    442.680    442.680
111.570    547.000    534.289     12.711    442.580    534.289    442.580    442.580    442.580
111.670    547.000    533.749     13.251    442.483    533.747    442.483    442.483    442.483
111.770    575.000    533.785     41.215    442.390    533.782    442.390    442.390    442.390
111.870    486.929    534.320    -47.391    442.301    534.317    442.301    442.301    442.301
111.970    550.000    535.287     14.713    442.214    535.282    442.214    442.214    442.214
112.070    518.067    536.624    -18.557    442.132    536.619    442.132    442.132    442.132
112.170    540.000    538.274      1.726    442.052    538.269    442.052    442.052    442.052
112.270    576.425    540.214     36.211    441.977    540.208    441.977    441.977    441.977
112.370    558.000    542.415     15.585    441.905    542.408    441.905    441.905    441.905
112.470    558.000    544.860     13.140    441.837    544.853    441.837    441.837    441.837
112.570    563.000    547.549     15.451    441.772    547.542    441.772    441.772    441.772
112.670    520.000    550.495    -30.495    441.711    550.488    441.711    441.711    441.711
112.770    556.000    553.724      2.276    441.654    553.717    441.654    441.654    441.654
112.870    558.000    557.276      0.724    441.601    557.268    441.601    441.601    441.601
112.970    597.000    561.204     35.796    441.552    561.196    441.552    441.552    441.552
113.070    584.000    565.579     18.421    441.506    565.571    441.506    441.506    441.506
113.170    587.615    570.493     17.121    441.465    570.485    441.465    441.465    441.465
113.270    550.000    576.064    -26.064    441.428    576.055    441.428    441.428    441.428
113.370    522.000    582.442    -60.442    441.395    582.432    441.395    441.395    441.395
113.470    595.101    589.819      5.282    441.366    589.808    441.366    441.366    441.366
113.570    601.000    598.441      2.559    441.341    598.428    441.341    441.341    441.341
113.670    627.000    608.617     18.383    441.321    608.602    441.321    441.321    441.321
113.770    615.000    620.740     -5.740    441.304    620.722    441.304    441.304    441.304
113.870    586.851    635.298    -48.447    441.293    635.277    441.293    441.293    441.293
113.970    681.000    652.897     28.103    441.285    652.871    441.285    441.285    441.285
114.070    631.014    674.274    -43.260    441.282    674.242    441.282    441.282    441.282
114.170    736.494    700.320     36.174    441.284    700.282    441.284    441.284    441.284
114.270    799.000    732.095     66.905    441.290    732.048    441.290    441.290    441.290
114.370    720.079    770.839    -50.760    441.301    770.781    441.301    441.301    441.301
114.470    855.053    817.979     37.073    441.316    817.909    441.316    441.316    441.316
114.570    914.000    875.130     38.870    441.337    875.045    441.337    441.337    441.337
114.670    954.000    944.080      9.920    441.361    943.977    441.361    441.361    441.361
114.770   1065.854   1026.765     39.090    441.391   1026.641    441.391    441.391    441.391
114.870   1078.846   1125.228    -46.382    441.426   1125.081    441.426    441.426    441.426
114.970   1162.458   1241.564    -79.105    441.466   1241.390    441.466    441.466    441.466
115.070   1495.000   1377.839    117.161    441.510   1377.637    441.510    441.510    441.510
115.170   1582.000   1536.003     45.997    441.560   1535.770    441.560    441.560    441.560
115.270   1803.164   1717.777     85.387    441.615   1717.510    441.615    441.615    441.615
115.370   1951.000   1924.533     26.467    441.675   1924.231    441.675    441.675    441.675
115.470   2341.000   2157.165    183.835    441.740   2156.829    441.740    441.740    441.740
115.570   2535.000   2415.961    119.039    441.810   2415.590    441.810    441.810    441.810
115.670   2768.217   2700.471     67.747    441.886   2700.067    441.886    441.886    441.886
115.770   3061.000   3009.400     51.600    441.967   3008.967    441.967    441.967    441.967
115.870   3420.000   3340.509     79.491    442.054   3340.051    442.054    442.054    442.054
115.970   3780.000   3690.549     89.451    442.146   3690.071    442.146    442.146    442.146
116.070   3937.481   4055.212   -117.731    442.243   4054.722    442.243    442.243    442.243
116.170   4464.000   4429.129     34.871    442.347   4428.636    442.347    442.347    442.347
116.270   4752.000   4805.883    -53.883    442.456   4805.398    442.456    442.456    442.456
116.370   5061.000   5178.073   -117.073    442.570   5177.608    442.570    442.570    442.570
116.470   5507.348   5537.413    -30.065    442.691   5536.980    442.691    442.691    442.691
116.570   5905.000   5874.896     30.104    442.817   5874.509    442.817    442.817    442.817
116.670   6390.000   6181.054    208.946    442.949   6180.727    442.949    442.949    442.949
116.770   6486.328   6446.334     39.994    443.087   6446.080    443.087    443.087    443.087
116.870   6587.000   6661.624    -74.624    443.231   6661.454    443.231    443.231    443.231
116.970   6840.132   6818.910     21.222    443.382   6818.834    443.382    443.382    443.382
117.070   6996.000   6912.001     83.999    443.538   6912.025    443.538    443.538    443.538
117.170   6960.000   6937.187     22.813    443.701   6937.312    443.701    443.701    443.701
117.270   6720.678   6893.679   -173.001    443.869   6893.901    443.869    443.869    443.869
117.370   6710.113   6783.696    -73.583    444.045   6784.009    444.045    444.045    444.045
117.470   6469.000   6612.193   -143.193    444.226   6612.585    444.226    444.226    444.226
117.570   6229.784   6386.284   -156.500    444.414   6386.740    444.414    444.414    444.414
117.670   5969.000   6114.526   -145.526    444.609   6115.033    444.609    444.609    444.609
117.770   5680.000   5806.196   -126.196    444.810   5806.737    444.810    444.810    444.810
117.870   5298.000   5470.746   -172.746    445.017   5471.308    445.017    445.017    445.017
117.970   5011.000   5117.356   -106.356    445.232   5117.924    445.232    445.232    445.232
118.070   4616.000   4754.501   -138.501    445.453   4755.063    445.453    445.453    445.453
118.170   4258.000   4389.860   -131.860    445.681   4390.406    445.681    445.681    445.681
118.270   4118.186   4030.163     88.023    445.916   4030.683    445.916    445.916    445.916
118.370   3666.000   3681.113    -15.113    446.157   3681.600    446.157    446.157    446.157
118.470   3467.311   3347.363    119.947    446.406   3347.813    446.406    446.406    446.406
118.570   3138.000   3032.525    105.475    446.662   3032.933    446.662    446.662    446.662
118.670   2702.000   2739.210    -37.210    446.925   2739.575    446.925    446.925    446.925
118.770   2316.000   2469.109   -153.109    447.195   2469.430    447.195    447.195    447.195
118.870   2192.971   2223.083    -30.112    447.472   2223.362    447.472    447.472    447.472
118.970   1858.000   2001.273   -143.273    447.757   2001.511    447.757    447.757    447.757
119.070   1788.000   1803.217    -15.217    448.049   1803.417    448.049    448.049    448.049
119.170   1593.000   1627.962    -34.962    448.349   1628.128    448.349    448.349    448.349
119.270   1511.506   1474.182     37.325    448.656   1474.317    448.656    448.656    448.656
119.370   1339.000   1340.281     -1.281    448.971   1340.390    448.971    448.971    448.971
119.470   1263.000   1224.498     38.502    449.293   1224.584    449.293    449.293    449.293
119.570   1094.000   1124.991    -30.991    449.624   1125.058    449.624    449.624    449.624
119.670   1060.000   1039.917     20.083    449.962   1039.968    449.962    449.962    449.962
119.770    935.785    967.492    -31.707    450.307    967.530    450.307    450.307    450.307
119.870    965.663    906.039     59.624    450.661    906.067    450.661    450.661    450.661
119.970    855.000    854.018      0.982    451.023    854.039    451.023    451.023    451.023
120.070    829.000    810.049     18.951    451.393    810.064    451.393    451.393    451.393
120.170    810.395    772.911     37.484    451.771    772.923    451.771    451.771    451.771
120.270    764.385    741.549     22.836    452.157    741.559    452.157    452.157    452.157
120.370    757.967    715.060     42.907    452.551    715.068    452.551    452.551    452.551
120.470    649.601    692.683    -43.081    452.954    692.689    452.954    452.954    452.954
120.570    682.000    673.780      8.220    453.366    673.787    453.366    453.366    453.366
120.670    672.855    657.827     15.028    453.785    657.834    453.785    453.785    453.785
120.770    641.000    644.391     -3.391    454.214    644.399    454.214    454.214    454.214
120.870    647.000    633.121     13.879    454.650    633.128    454.650    454.650    454.650
120.970    618.000    623.727     -5.727    455.096    623.735    455.096    455.096    455.096
121.070    578.000    615.976    -37.976    455.551    615.985    455.551    455.551    455.551
121.170    607.000    609.675     -2.675    456.014    609.685    456.014    456.014    456.014
121.270    584.557    604.667    -20.110    456.486    604.678    456.486    456.486    456.486
121.370    576.000    600.821    -24.821    456.967    600.832    456.967    456.967    456.967
121.470    584.000    598.024    -14.024    457.457    598.037    457.457    457.457    457.457
121.570    647.679    596.181     51.498    457.957    596.195    457.957    457.957    457.957
121.670    589.000    595.205     -6.205    458.465    595.221    458.465    458.465    458.465
121.770    570.000    595.018    -25.018    458.983    595.035    458.983    458.983    458.983
121.870    579.000    595.544    -16.544    459.510    595.563    459.510    459.510    459.510
121.970    575.000    596.710    -21.710    460.047    596.731    460.047    460.047    460.047
122.070    570.000    598.441    -28.441    460.593    598.464    460.593    460.593    460.593
122.170    559.000    600.660    -41.660    461.149    600.686    461.149    461.149    461.149
122.270    614.000    603.287     10.713    461.715    603.315    461.715    461.715    461.715
122.370    597.000    606.234     -9.234    462.290    606.265    462.290    462.290    462.290
122.470    607.000    609.412     -2.412    462.875    609.446    462.875    462.875    462.875
122.570    578.000    612.723    -34.723    463.470    612.760    463.470    463.470    463.470
122.670    624.427    616.065      8.362    464.075    616.104    464.075    464.075    464.075
122.770    655.000    619.330     35.670    464.689    619.372    464.689    464.689    464.689
122.870    607.893    622.407    -14.514    465.314    622.452    465.314    465.314    465.314
122.970    650.000    625.185     24.815    465.950    625.232    465.950    465.950    465.950
123.070    658.000    627.554     30.446    466.595    627.604    466.595    466.595    466.595
123.170    649.000    629.414     19.586    467.251    629.467    467.251    467.251    467.251
123.270    664.000    630.676     33.324    467.917    630.730    467.917    467.917    467.917
123.370    614.000    631.269    -17.269    468.594    631.326    468.594    468.594    468.594
123.470    643.493    631.148     12.344    469.282    631.206    469.282    469.282    469.282
123.570    658.000    630.291     27.709    469.980    630.350    469.980    469.980    469.980
123.670    574.041    628.704    -54.663    470.689    628.763    470.689    470.689    470.689
123.770    672.140    626.416     45.723    471.408    626.475    471.408    471.408    471.408
123.870    614.593    623.478     -8.885    472.139    623.537    472.139    472.139    472.139
123.970    586.578    619.956    -33.378    472.880    620.013    472.880    472.880    472.880
124.070    653.000    615.926     37.074    473.633    615.981    473.633    473.633    473.633
124.170    614.326    611.469      2.857    474.397    611.523    474.397    474.397    474.397
124.270    591.000    606.673    -15.673    475.172    606.725    475.172    475.172    475.172
124.370    613.000    601.620     11.380    475.958    601.670    475.958    475.958    475.958
124.470    595.000    596.396     -1.396    476.756    596.443    476.756    476.756    476.756
124.570    616.000    591.078     24.922    477.565    591.123    477.565    477.565    477.565
124.670    548.519    585.743    -37.224    478.386    585.784    478.386    478.386    478.386
124.770    610.728    580.459     30.269    479.219    580.498    479.219    479.219    479.219
124.870    561.400    575.289    -13.889    480.063    575.324    480.063    480.063    480.063
124.970    533.911    570.287    -36.376    480.919    570.320    480.919    480.919    480.919
