neutron_powder_diffraction_0039
R_wp: 3.916
Temperature (K): 588.243
Counts: 84074.00
Wavelength (Ã…): 2.52098
COMMENTS
Test file for demonstrating the .xyy file format in Reel1.0
END OF HEADER
   tth       Y_obs     Y_calc      Y_res    Background    Phase_1_Nuc    Phase_1_Mag    Phase_2_Nuc    Phase_2_Mag
  9.970    661.384    697.966    -36.582    696.481    697.502    696.945    696.481    696.481
 10.070    724.000    697.055     26.945    695.483    696.587    695.951    695.483    695.483
 10.170    661.954    696.161    -34.206    694.489    695.687    694.962    694.489    694.489
 10.270    680.000    695.284    -15.284    693.500    694.805    693.978    693.500    693.500
 10.370    711.000    694.429     16.571    692.515    693.945    692.999    692.515    692.515
 10.470    686.000    693.598     -7.598    691.535    693.109    692.024    691.535    691.535
 10.570    733.000    692.797     40.203    690.559    692.302    691.053    690.559    690.559
 10.670    696.000    692.030      3.970    689.588    691.530    690.088    689.588    689.588
 10.770    726.000    691.307     34.693    688.622    690.801    689.127    688.622    688.622
 10.870    721.000    690.636     30.364    687.660    690.124    688.170    687.660    687.660
 10.970    686.567    690.033     -3.466    686.702    689.515    687.219    686.702    686.702
 11.070    741.569    689.516     52.053    685.750    688.993    686.272    685.750    685.750
 11.170    719.000    689.114     29.886    684.801    688.584    685.329    684.801    684.801
 11.270    749.000    688.867     60.133    683.857    688.331    684.391    683.857    683.857
 11.370    743.000    688.843     54.157    682.918    688.300    683.458    682.918    682.918
 11.470    699.000    689.170      9.830    681.983    688.620    682.530    681.983    681.983
 11.570    736.000    690.127     45.873    681.053    689.570    681.606    681.053    681.053
 11.670    758.000    692.347     65.653    680.127    691.782    680.686    680.127    680.127
 11.770    756.000    697.102     58.898    679.206    696.528    679.771    679.206    679.206
 11.870    760.279    706.447     53.832    678.289    705.860    678.861    678.289    678.289
 11.970    787.000    722.677     64.323    677.377    722.073    677.956    677.377    677.377
 12.070    745.321    746.583     -1.262    676.469    745.959    677.055    676.469    676.469
 12.170    864.000    774.399     89.601    675.566    773.751    676.159    675.566    675.566
 12.270    804.000    795.046      8.954    674.667    794.379    675.267    674.667    674.667
 12.370    752.165    795.344    -43.178    673.773    794.669    674.380    673.773    673.773
 12.470    760.000    774.350    -14.350    672.883    773.679    673.498    672.883    672.883
 12.570    773.377    744.775     28.601    671.997    744.113    672.620    671.997    671.997
 12.670    728.000    718.439      9.561    671.116    717.783    671.746    671.116    671.116
 12.770    660.000    699.708    -39.708    670.240    699.054    670.877    670.240    670.240
 12.870    685.550    688.052     -2.502    669.368    687.396    670.013    669.368    669.368
 12.970    631.380    681.210    -49.830    668.500    680.550    669.154    668.500    668.500
 13.070    640.000    677.072    -37.072    667.636    676.405    668.299    667.636    667.636
 13.170    613.000    674.392    -61.392    666.778    673.717    667.448    666.778    666.778
 13.270    644.000    672.271    -28.271    665.923    671.589    666.602    665.923    665.923
 13.370    710.087    670.500     39.587    665.073    669.810    665.761    665.073    665.073
 13.470    646.862    668.959    -22.097    664.227    668.261    664.924    664.227    664.227
 13.570    624.000    667.579    -43.579    663.386    666.871    664.092    663.386    663.386
 13.670    688.167    666.315     21.852    662.549    665.599    663.264    662.549    662.549
 13.770    611.000    665.141    -54.141    661.717    664.415    662.441    661.717    661.717
 13.870    679.000    664.037     14.963    660.888    663.301    661.623    660.888    660.888
 13.970    681.000    662.989     18.011    660.065    662.243    660.809    660.065    660.065
 14.070    673.000    661.981     11.019    659.245    661.226    659.999    659.245    659.245
 14.170    673.263    661.008     12.254    658.430    660.243    659.194    658.430    658.430
 14.270    642.701    660.065    -17.364    657.619    659.289    658.394    657.619    657.619
 14.370    637.000    659.147    -22.147    656.813    658.361    657.598    656.813    656.813
 14.470    611.695    658.252    -46.558    656.011    657.455    656.807    656.011    656.011
 14.570    654.000    657.375     -3.375    655.213    656.567    656.021    655.213    655.213
 14.670    643.706    656.522    -12.816    654.419    655.702    655.239    654.419    654.419
 14.770    613.976    655.695    -41.718    653.630    654.863    654.462    653.630    653.630
 14.870    616.438    654.862    -38.424    652.845    654.018    653.689    652.845    652.845
 14.970    661.000    654.039      6.961    652.065    653.183    652.920    652.065    652.065
 15.070    600.000    653.227    -53.227    651.289    652.359    652.156    651.289    651.289
 15.170    634.000    652.425    -18.425    650.517    651.544    651.397    650.517    650.517
 15.270    637.000    651.631    -14.631    649.749    650.738    650.642    649.749    649.749
 15.370    656.574    650.847      5.728    648.986    649.940    649.892    648.986    648.986
 15.470    641.000    650.070     -9.070    648.226    649.150    649.146    648.226    648.226
 15.570    639.000    649.302    -10.302    647.471    648.367    648.405    647.471    647.471
 15.670    617.000    648.540    -31.540    646.721    647.592    647.669    646.721    646.721
 15.770    603.000    647.786    -44.786    645.974    646.823    646.937    645.974    645.974
 15.870    680.719    647.038     33.680    645.232    646.061    646.209    645.232    645.232
 15.970    641.000    646.299     -5.299    644.494    645.306    645.487    644.494    644.494
 16.070    616.821    645.568    -28.747    643.760    644.560    644.768    643.760    643.760
 16.170    675.206    644.840     30.366    643.031    643.816    644.055    643.031    643.031
 16.270    620.000    644.118    -24.118    642.305    643.077    643.346    642.305    642.305
 16.370    622.000    643.401    -21.401    641.584    642.344    642.641    641.584    641.584
 16.470    621.000    642.690    -21.690    640.867    641.616    641.941    640.867    640.867
 16.570    598.000    641.985    -43.985    640.154    640.893    641.246    640.154    640.154
 16.670    604.000    641.286    -37.286    639.445    640.176    640.555    639.445    639.445
 16.770    604.000    640.592    -36.592    638.741    639.464    639.869    638.741    638.741
 16.870    654.385    639.904     14.481    638.041    638.757    639.187    638.041    638.041
 16.970    626.000    639.221    -13.221    637.344    638.055    638.511    637.344    637.344
 17.070    661.000    638.546     22.454    636.652    637.360    637.838    636.652    636.652
 17.170    662.042    637.879     24.162    635.964    636.673    637.171    635.964    635.964
 17.270    641.000    637.213      3.787    635.280    635.985    636.508    635.280    635.280
 17.370    637.000    636.552      0.448    634.601    635.303    635.849    634.601    634.601
 17.470    589.311    635.895    -46.585    633.925    634.624    635.196    633.925    633.925
 17.570    604.807    635.244    -30.438    633.253    633.951    634.547    633.253    633.253
 17.670    637.000    634.605      2.395    632.586    633.288    633.903    632.586    632.586
 17.770    639.000    634.024      4.976    631.923    632.682    633.265    631.923    631.923
 17.870    608.787    633.408    -24.621    631.263    632.041    632.630    631.263    631.263
 17.970    671.000    632.791     38.209    630.608    631.399    632.001    630.608    630.608
 18.070    659.000    632.170     26.830    629.957    630.751    631.375    629.957    629.957
 18.170    611.266    631.551    -20.285    629.310    630.106    630.755    629.310    629.310
 18.270    616.311    630.937    -14.626    628.667    629.465    630.139    628.667    628.667
 18.370    634.000    630.329      3.671    628.028    628.828    629.528    628.028    628.028
 18.470    618.164    629.726    -11.561    627.393    628.196    628.922    627.393    627.393
 18.570    646.000    629.135     16.865    626.761    627.575    628.321    626.761    626.761
 18.670    623.000    628.566     -5.566    626.134    626.975    627.725    626.134    626.134
 18.770    595.000    627.981    -32.981    625.511    626.359    627.133    625.511    625.511
 18.870    666.000    627.399     38.601    624.892    625.744    626.547    624.892    624.892
 18.970    657.000    626.823     30.177    624.277    625.134    625.965    624.277    624.277
 19.070    575.000    626.252    -51.252    623.666    624.529    625.389    623.666    623.666
 19.170    667.000    625.686     41.314    623.059    623.927    624.818    623.059    623.059
 19.270    581.570    625.127    -43.557    622.456    623.332    624.251    622.456    622.456
 19.370    619.000    624.585     -5.585    621.856    622.751    623.690    621.856    621.856
 19.470    616.000    624.037     -8.037    621.261    622.164    623.134    621.261    621.261
 19.570    611.000    623.496    -12.496    620.670    621.582    622.584    620.670    620.670
 19.670    627.098    622.982      4.116    620.082    621.020    622.044    620.082    620.082
 19.770    603.000    622.498    -19.498    619.498    620.481    621.516    619.498    619.498
 19.870    622.000    621.978      0.022    618.919    619.914    620.982    618.919    618.919
 19.970    600.683    621.459    -20.776    618.343    619.349    620.453    618.343    618.343
 20.070    659.907    620.946     38.961    617.771    618.788    619.929    617.771    617.771
 20.170    637.000    620.440     16.560    617.203    618.232    619.411    617.203    617.203
 20.270    568.000    619.946    -51.946    616.639    617.686    618.898    616.639    616.639
 20.370    658.346    619.474     38.872    616.078    617.160    618.392    616.078    616.078
 20.470    598.000    618.989    -20.989    615.522    616.620    617.891    615.522    615.522
 20.570    639.000    618.511     20.489    614.969    616.083    617.397    614.969    614.969
 20.670    635.054    618.068     16.986    614.420    615.568    616.920    614.420    614.420
 20.770    603.000    617.625    -14.625    613.875    615.059    616.441    613.875    613.875
 20.870    598.799    617.210    -18.412    613.334    614.579    615.966    613.334    613.334
 20.970    596.000    616.806    -20.806    612.796    614.107    615.496    612.796    612.796
 21.070    614.000    616.389     -2.389    612.263    613.621    615.031    612.263    612.263
 21.170    600.243    615.960    -15.717    611.733    613.119    614.574    611.733    611.733
 21.270    594.550    615.536    -20.986    611.206    612.620    614.123    611.206    611.206
 21.370    559.000    615.152    -56.152    610.684    612.157    613.680    610.684    610.684
 21.470    615.000    614.752      0.248    610.165    611.675    613.243    610.165    610.165
 21.570    600.943    614.350    -13.407    609.650    611.188    612.813    609.650    609.650
 21.670    637.720    613.958     23.762    609.139    610.707    612.390    609.139    609.139
 21.770    568.621    613.585    -44.964    608.632    610.238    611.979    608.632    608.632
 21.870    570.000    613.224    -43.224    608.128    609.780    611.573    608.128    608.128
 21.970    633.000    612.872     20.128    607.628    609.326    611.174    607.628    607.628
 22.070    577.000    612.526    -35.526    607.132    608.875    610.783    607.132    607.132
 22.170    594.273    612.187    -17.914    606.639    608.426    610.400    606.639    606.639
 22.270    565.000    611.860    -46.860    606.150    607.984    610.026    606.150    606.150
 22.370    646.000    611.547     34.453    605.664    607.550    609.661    605.664    605.664
 22.470    642.000    611.248     30.752    605.183    607.124    609.306    605.183    605.183
 22.570    658.694    610.964     47.730    604.705    606.708    608.961    604.705    604.705
 22.670    619.530    610.698      8.831    604.230    606.303    608.626    604.230    604.230
 22.770    607.000    610.451     -3.451    603.759    605.909    608.301    603.759    603.759
 22.870    580.866    610.223    -29.357    603.292    605.527    607.988    603.292    603.292
 22.970    623.000    610.018     12.982    602.828    605.160    607.687    602.828    602.828
 23.070    600.175    609.843     -9.668    602.368    604.813    607.399    602.368    602.368
 23.170    634.000    609.694     24.306    601.912    604.483    607.123    601.912    601.912
 23.270    621.982    609.573     12.409    601.459    604.172    606.861    601.459    601.459
 23.370    635.000    609.490     25.510    601.009    603.887    606.612    601.009    601.009
 23.470    655.082    609.450     45.632    600.564    603.635    606.379    600.564    600.564
 23.570    601.000    609.462     -8.462    600.121    603.422    606.162    600.121    600.121
 23.670    615.000    609.538      5.462    599.683    603.259    605.962    599.683    599.683
 23.770    598.000    609.693    -11.693    599.247    603.161    605.780    599.247    599.247
 23.870    610.000    609.948      0.052    598.816    603.147    605.618    598.816    598.816
 23.970    630.000    610.337     19.663    598.387    603.248    605.478    598.387    598.387
 24.070    642.702    610.911     31.791    597.963    603.517    605.359    597.963    597.963
 24.170    580.000    611.775    -31.775    597.541    604.056    605.263    597.541    597.541
 24.270    649.488    613.161     36.327    597.123    605.094    605.194    597.123    597.123
 24.370    600.000    615.567    -15.567    596.709    607.129    605.153    596.709    596.709
 24.470    632.000    619.944     12.056    596.298    611.110    605.142    596.298    596.298
 24.570    609.000    627.708    -18.708    595.891    618.449    605.164    595.891    595.891
 24.670    654.000    640.246     13.754    595.486    630.534    605.222    595.486    595.486
 24.770    693.000    657.675     35.325    595.086    647.477    605.320    595.086    595.086
 24.870    678.000    676.834      1.166    594.689    666.110    605.461    594.689    594.689
 24.970    720.388    689.871     30.517    594.295    678.574    605.650    594.295    594.295
 25.070    731.839    688.828     43.011    593.904    676.898    605.891    593.904    593.904
 25.170    687.000    674.747     12.253    593.517    662.120    606.191    593.517    593.517
 25.270    703.000    656.153     46.847    593.133    642.764    606.556    593.133    593.133
 25.370    678.148    640.109     38.039    592.753    625.890    606.994    592.753    592.753
 25.470    675.250    629.113     46.137    592.376    613.988    607.514    592.376    592.376
 25.570    665.758    622.755     43.003    592.002    606.639    608.126    592.002    592.002
 25.670    631.000    619.608     11.392    591.631    602.401    608.843    591.631    591.631
 25.770    682.000    618.340     63.660    591.264    599.928    609.679    591.264    591.264
 25.870    640.000    618.108     21.892    590.900    598.359    610.652    590.900    590.900
 25.970    625.000    618.490      6.510    590.540    597.250    611.781    590.540    590.540
 26.070    663.401    619.311     44.090    590.183    596.402    613.092    590.183    590.183
 26.170    597.000    620.512    -23.512    589.828    595.726    614.615    589.828    589.828
 26.270    623.133    622.085      1.048    589.478    595.176    616.386    589.478    589.478
 26.370    628.000    624.049      3.951    589.130    594.727    618.451    589.130    589.130
 26.470    640.000    626.446     13.554    588.786    594.365    620.865    588.786    588.786
 26.570    596.000    629.338    -33.338    588.445    594.080    623.700    588.445    588.445
 26.670    665.000    632.815     32.185    588.107    593.871    627.047    588.107    588.107
 26.770    672.000    636.992     35.008    587.772    593.741    631.020    587.772    587.772
 26.870    669.894    642.022     27.872    587.440    593.692    635.767    587.440    587.440
 26.970    637.000    648.112    -11.112    587.112    593.731    641.488    587.112    587.112
 27.070    632.000    655.549    -23.549    586.787    593.876    648.454    586.787    586.787
 27.170    654.000    664.728    -10.728    586.465    594.153    657.033    586.465    586.465
 27.270    702.000    676.202     25.798    586.146    594.595    667.744    586.146    586.146
 27.370    679.000    690.772    -11.772    585.830    595.253    681.338    585.830    585.830
 27.470    718.000    709.667      8.333    585.517    596.208    698.963    585.517    585.517
 27.570    770.000    735.066     34.934    585.208    597.598    722.659    585.208    585.208
 27.670    788.053    772.133     15.920    584.901    599.753    757.256    584.901    584.901
 27.770    870.000    836.343     33.657    584.598    603.661    817.239    584.598    584.598
 27.870    966.000    973.340     -7.340    584.297    612.221    945.333    584.297    584.297
 27.970   1263.000   1291.624    -28.624    584.000    632.321   1243.122    584.000    584.000
 28.070   1880.000   1971.295    -91.295    583.706    675.396   1879.245    583.706    583.706
 28.170   2942.000   3164.611   -222.611    583.415    751.126   2996.302    583.415    583.415
 28.270   4896.103   4753.859    142.244    583.126    852.098   4484.117    583.126    583.126
 28.370   6118.000   6140.441    -22.441    582.841    940.467   5782.106    582.841    582.841
 28.470   6643.000   6487.098    155.902    582.559    963.416   6105.833    582.559    582.559
 28.570   5794.000   5573.213    220.787    582.280    907.634   5247.733    582.280    582.280
 28.670   4128.122   4162.119    -33.997    582.004    822.890   3921.222    582.004    582.004
 28.770   3236.000   3128.399    107.601    581.730    766.539   2943.560    581.730    581.730
 28.870   2729.000   2831.907   -102.907    581.460    762.615   2650.666    581.460    581.460
 28.970   3083.000   3128.223    -45.223    581.193    800.219   2909.107    581.193    581.193
 29.070   3608.000   3568.103     39.897    580.928    844.219   3304.817    580.928    580.928
 29.170   3596.628   3648.490    -51.862    580.667    853.312   3375.997    580.667    580.667
 29.270   3210.000   3179.105     30.895    580.408    812.199   2947.542    580.408    580.408
 29.370   2395.000   2426.234    -31.234    580.153    745.331   2261.264    580.153    580.153
 29.470   1649.646   1730.442    -80.796    579.900    683.393   1627.092    579.900    579.900
 29.570   1208.000   1246.944    -38.944    579.650    640.359   1186.315    579.650    579.650
 29.670   1038.000    971.106     66.894    579.403    615.855    934.693    579.403    579.403
 29.770    835.000    832.096      2.904    579.159    603.569    807.703    579.159    579.159
 29.870    833.000    763.115     69.885    578.917    597.541    744.499    578.917    578.917
 29.970    668.873    724.970    -56.097    578.679    594.282    709.370    578.679    578.679
 30.070    798.000    700.338     97.662    578.443    592.263    686.519    578.443    578.443
 30.170    717.000    682.652     34.348    578.210    590.922    669.940    578.210    578.210
 30.270    651.902    669.390    -17.488    577.980    590.075    657.293    577.980    577.980
 30.370    664.000    659.476      4.524    577.752    589.717    647.508    577.752    577.752
 30.470    687.000    652.621     34.379    577.528    590.040    640.104    577.528    577.528
 30.570    645.000    649.392     -4.392    577.306    591.582    635.109    577.306    577.306
 30.670    680.000    651.432     28.568    577.087    595.392    633.115    577.087    577.087
 30.770    639.000    661.177    -22.177    576.871    602.898    635.128    576.871    576.871
 30.870    729.742    680.344     49.398    576.657    615.112    641.851    576.657    576.657
 30.970    754.816    707.135     47.681    576.446    631.139    652.386    576.446    576.446
 31.070    824.000    733.107     90.893    576.238    646.500    662.774    576.238    576.238
 31.170    689.284    743.172    -53.887    576.032    653.137    665.993    576.032    576.032
 31.270    760.453    727.932     32.521    575.829    646.037    657.662    575.829    575.829
 31.370    659.000    696.558    -37.558    575.629    630.147    641.997    575.629    575.629
 31.470    683.853    664.014     19.839    575.431    613.521    625.899    575.431    575.431
 31.570    590.999    638.649    -47.650    575.236    600.658    613.213    575.236    575.236
 31.670    639.000    622.128     16.872    575.044    592.468    604.696    575.044    575.044
 31.770    655.438    612.532     42.906    574.854    587.933    599.448    574.854    574.854
 31.870    656.000    607.143     48.857    574.667    585.606    596.200    574.667    574.667
 31.970    654.781    603.931     50.850    574.483    584.406    594.004    574.483    574.483
 32.070    616.000    601.797     14.203    574.301    583.751    592.343    574.301    574.301
 32.170    615.000    600.254     14.746    574.121    583.389    590.984    574.121    574.121
 32.270    585.000    599.105    -14.105    573.945    583.221    589.826    573.945    573.945
 32.370    660.000    598.270     61.730    573.770    583.212    588.826    573.770    573.770
 32.470    644.982    597.712     47.271    573.599    583.351    587.957    573.599    573.599
 32.570    566.000    597.418    -31.418    573.429    583.640    587.205    573.429    573.429
 32.670    568.000    597.393    -29.393    573.263    584.092    586.561    573.263    573.263
 32.770    620.000    597.655     22.345    573.098    584.730    586.022    573.098    573.098
 32.870    643.000    598.244     44.756    572.936    585.590    585.588    572.936    572.936
 32.970    610.000    599.217     10.783    572.777    586.725    585.267    572.777    572.777
 33.070    588.000    600.665    -12.665    572.620    588.211    585.072    572.620    572.620
 33.170    574.305    602.726    -28.421    572.466    590.163    585.026    572.466    572.466
 33.270    638.000    605.634     32.366    572.314    592.771    585.174    572.314    572.314
 33.370    610.000    609.845      0.155    572.164    596.405    585.601    572.164    572.164
 33.470    599.000    616.369    -17.369    572.017    601.878    586.504    572.017    572.017
 33.570    610.207    627.465    -17.258    571.872    611.008    588.323    571.872    571.872
 33.670    662.000    647.698     14.302    571.730    627.466    591.952    571.730    571.730
 33.770    698.000    684.716     13.284    571.590    657.399    598.889    571.590    571.590
 33.870    768.000    748.138     19.862    571.452    708.543    611.020    571.452    571.452
 33.970    815.000    844.847    -29.847    571.317    786.430    629.692    571.317    571.317
 34.070    940.469    970.487    -30.018    571.184    887.563    654.051    571.184    571.184
 34.170   1082.000   1099.090    -17.090    571.053    991.073    679.006    571.053    571.053
 34.270   1183.000   1180.044      2.956    570.925   1056.280    694.632    570.925    570.925
 34.370   1154.000   1168.180    -14.180    570.799   1046.871    692.072    570.799    570.799
 34.470   1138.611   1071.202     67.410    570.675    969.030    672.833    570.675    570.675
 34.570    948.000    939.544      8.456    570.554    863.295    646.802    570.554    570.554
 34.670    772.000    818.649    -46.649    570.434    766.196    622.891    570.434    570.434
 34.770    780.000    728.900     51.100    570.317    694.125    605.096    570.317    570.317
 34.870    665.000    671.384     -6.384    570.203    647.957    593.631    570.203    570.203
 34.970    647.000    638.083      8.917    570.090    621.249    586.925    570.090    570.090
 35.070    687.000    619.621     67.379    569.980    606.462    583.138    569.980    569.980
 35.170    586.711    609.056    -22.345    569.872    598.018    580.909    569.872    569.872
 35.270    670.000    602.420     67.580    569.766    592.725    579.459    569.766    569.766
 35.370    651.000    597.793     53.207    569.662    589.040    578.414    569.662    569.662
 35.470    529.000    594.319    -65.319    569.560    586.274    577.604    569.560    569.560
 35.570    585.000    591.597     -6.597    569.461    584.106    576.952    569.461    569.461
 35.670    630.762    589.416     41.346    569.363    582.363    576.416    569.363    569.363
 35.770    626.357    587.642     38.715    569.268    580.939    575.971    569.268    569.268
 35.870    582.000    586.184     -4.184    569.175    579.759    575.599    569.175    569.175
 35.970    584.933    584.977     -0.044    569.084    578.771    575.290    569.084    569.084
 36.070    581.000    583.975     -2.975    568.995    577.936    575.034    568.995    568.995
 36.170    592.000    583.144      8.856    568.908    577.224    574.828    568.908    568.908
 36.270    621.690    582.458     39.232    568.823    576.614    574.667    568.823    568.823
 36.370    603.000    581.900     21.100    568.741    576.089    574.551    568.741    568.741
 36.470    574.057    581.460     -7.403    568.660    575.637    574.482    568.660    568.660
 36.570    598.151    581.129     17.022    568.581    575.249    574.461    568.581    568.581
 36.670    543.000    580.908    -37.908    568.504    574.918    574.494    568.504    568.504
 36.770    598.053    580.799     17.254    568.430    574.640    574.589    568.430    568.430
 36.870    630.943    580.814     50.130    568.357    574.414    574.756    568.357    568.357
 36.970    592.000    580.970     11.030    568.286    574.243    575.013    568.286    568.286
 37.070    546.239    581.302    -35.063    568.218    574.138    575.381    568.218    568.218
 37.170    589.000    581.875      7.125    568.151    574.126    575.899    568.151    568.151
 37.270    567.000    582.814    -15.814    568.086    574.268    576.631    568.086    568.086
 37.370    609.506    584.361     25.146    568.023    574.677    577.706    568.023    568.023
 37.470    630.148    586.966     43.182    567.962    575.527    579.400    567.962    567.962
 37.570    578.000    591.400    -13.400    567.903    577.022    582.280    567.903    567.903
 37.670    555.507    598.829    -43.322    567.845    579.304    587.369    567.845    567.845
 37.770    621.000    610.712     10.288    567.790    582.288    596.211    567.790    567.790
 37.870    644.352    628.278     16.075    567.736    585.464    610.546    567.736    567.736
 37.970    644.000    651.554     -7.554    567.685    587.798    631.435    567.685    567.685
 38.070    640.525    678.428    -37.902    567.635    588.232    657.824    567.635    567.635
 38.170    693.000    703.926    -10.926    567.587    586.627    684.878    567.587    567.587
 38.270    721.691    719.729      1.962    567.540    583.830    703.434    567.540    567.540
 38.370    700.000    717.682    -17.682    567.496    580.767    704.410    567.496    567.496
 38.470    655.000    697.710    -42.710    567.453    578.007    687.158    567.453    567.453
 38.570    617.396    668.679    -51.282    567.412    575.830    660.264    567.412    567.412
 38.670    592.000    640.190    -48.190    567.373    574.283    633.283    567.373    567.373
 38.770    662.000    617.447     44.553    567.336    573.259    611.526    567.336    567.336
 38.870    586.170    601.658    -15.487    567.300    572.608    596.351    567.300    567.300
 38.970    559.000    591.766    -32.766    567.266    572.195    586.838    567.266    567.266
 39.070    634.080    585.948     48.132    567.234    571.926    581.257    567.234    567.234
 39.170    600.000    582.555     17.445    567.204    571.742    578.017    567.204    567.204
 39.270    609.000    580.473     28.527    567.175    571.610    576.038    567.175    567.175
 39.370    615.965    579.078     36.888    567.148    571.511    574.714    567.148    567.148
 39.470    573.000    578.060     -5.060    567.122    571.434    573.747    567.122    567.122
 39.570    547.112    577.276    -30.164    567.098    571.376    572.998    567.098    567.098
 39.670    614.742    576.658     38.085    567.076    571.337    572.396    567.076    567.076
 39.770    582.000    576.160      5.840    567.055    571.313    571.903    567.055    567.055
 39.870    584.000    575.757      8.243    567.036    571.301    571.493    567.036    567.036
 39.970    561.331    575.429    -14.099    567.019    571.301    571.147    567.019    567.019
 40.070    583.000    575.163      7.837    567.003    571.313    570.853    567.003    567.003
 40.170    541.702    574.949    -33.246    566.989    571.336    570.601    566.989    566.989
 40.270    535.000    574.779    -39.779    566.976    571.371    570.384    566.976    566.976
 40.370    554.854    574.647    -19.794    566.965    571.418    570.195    566.965    566.965
 40.470    591.000    574.551     16.449    566.955    571.477    570.030    566.955    566.955
 40.570    559.000    574.487    -15.487    566.947    571.550    569.885    566.947    566.947
 40.670    582.278    574.454      7.825    566.941    571.637    569.758    566.941    566.941
 40.770    626.233    574.450     51.783    566.936    571.740    569.646    566.936    566.936
 40.870    550.000    574.477    -24.477    566.932    571.862    569.548    566.932    566.932
 40.970    559.000    574.535    -15.535    566.930    572.004    569.461    566.930    566.930
 41.070    578.000    574.626      3.374    566.929    572.170    569.386    566.929    566.929
 41.170    605.395    574.754     30.641    566.930    572.365    569.320    566.930    566.930
 41.270    553.000    574.924    -21.924    566.932    572.593    569.264    566.932    566.932
 41.370    575.000    575.141     -0.141    566.936    572.862    569.216    566.936    566.936
 41.470    618.000    575.415     42.585    566.941    573.181    569.176    566.941    566.941
 41.570    553.000    575.759    -22.759    566.947    573.562    569.145    566.947    566.947
 41.670    596.000    576.188     19.812    566.955    574.022    569.123    566.955    566.955
 41.770    564.000    576.731    -12.731    566.964    574.587    569.110    566.964    566.964
 41.870    575.647    577.430     -1.784    566.975    575.300    569.107    566.975    566.975
 41.970    541.173    578.371    -37.198    566.987    576.243    569.117    566.987    566.987
 42.070    576.000    579.724     -3.724    567.000    577.580    569.147    567.000    567.000
 42.170    553.000    581.830    -28.830    567.014    579.639    569.210    567.014    567.014
 42.270    575.026    585.308    -10.281    567.030    583.016    569.327    567.030    567.030
 42.370    567.482    591.134    -23.651    567.047    588.651    569.537    567.047    567.047
 42.470    648.158    600.560     47.598    567.066    597.750    569.887    567.066    567.066
 42.570    625.000    614.734     10.266    567.086    611.418    570.419    567.086    567.086
 42.670    582.679    633.975    -51.296    567.107    629.961    571.146    567.107    567.107
 42.770    662.090    656.796      5.293    567.129    651.950    572.012    567.129    567.129
 42.870    624.000    678.902    -54.902    567.152    673.249    572.853    567.152    567.152
 42.970    675.000    693.215    -18.215    567.177    687.047    573.402    567.177    567.177
 43.070    667.328    693.401    -26.073    567.203    687.246    573.418    567.203    567.203
 43.170    723.073    679.394     43.679    567.230    673.780    572.900    567.230    567.230
 43.270    626.013    657.472    -31.459    567.258    652.691    572.084    567.258    567.258
 43.370    621.000    634.744    -13.744    567.287    630.825    571.240    567.287    567.287
 43.470    595.000    615.557    -20.557    567.318    612.366    570.533    567.318    567.318
 43.570    633.326    601.432     31.894    567.350    598.778    570.019    567.350    567.350
 43.670    596.000    592.068      3.932    567.383    589.773    569.688    567.383    567.383
 43.770    613.000    586.326     26.674    567.417    584.253    569.496    567.417    567.417
 43.870    576.582    582.949     -6.367    567.452    581.009    569.396    567.452    567.452
 43.970    599.823    580.957     18.866    567.488    579.097    569.351    567.488    567.488
 44.070    531.000    579.724    -48.724    567.525    577.915    569.336    567.525    567.525
 44.170    617.901    578.906     38.995    567.564    577.132    569.340    567.564    567.564
 44.270    609.577    578.332     31.245    567.603    576.582    569.355    567.603    567.603
 44.370    536.100    577.916    -41.816    567.643    576.183    569.378    567.643    567.643
 44.470    629.000    577.613     51.387    567.685    575.892    569.407    567.685    567.685
 44.570    536.981    577.397    -40.416    567.727    575.683    569.442    567.727    567.727
 44.670    638.000    577.250     60.750    567.771    575.540    569.482    567.771    567.771
 44.770    600.000    577.160     22.840    567.815    575.450    569.526    567.815    567.815
 44.870    560.696    577.117    -16.421    567.861    575.404    569.575    567.861    567.861
 44.970    529.859    577.114    -47.255    567.908    575.395    569.627    567.908    567.908
 45.070    577.654    577.147      0.507    567.955    575.420    569.683    567.955    567.955
 45.170    581.000    577.212      3.788    568.003    575.473    569.742    568.003    568.003
 45.270    577.000    577.305     -0.305    568.053    575.553    569.805    568.053    568.053
 45.370    524.000    577.426    -53.426    568.103    575.656    569.872    568.103    568.103
 45.470    574.000    577.572     -3.572    568.154    575.783    569.943    568.154    568.154
 45.570    552.000    577.743    -25.743    568.206    575.931    570.017    568.206    568.206
 45.670    546.594    577.938    -31.344    568.259    576.102    570.095    568.259    568.259
 45.770    548.000    578.159    -30.159    568.313    576.294    570.178    568.313    568.313
 45.870    612.473    578.405     34.068    568.368    576.508    570.264    568.368    568.368
 45.970    590.000    578.678     11.322    568.423    576.745    570.356    568.423    568.423
 46.070    607.174    578.980     28.194    568.480    577.007    570.452    568.480    568.480
 46.170    587.000    579.313      7.687    568.537    577.296    570.553    568.537    568.537
 46.270    595.000    579.680     15.320    568.595    577.614    570.660    568.595    568.595
 46.370    574.000    580.085     -6.085    568.654    577.964    570.773    568.654    568.654
 46.470    579.000    580.532     -1.532    568.714    578.351    570.894    568.714    568.714
 46.570    611.000    581.029     29.971    568.774    578.780    571.022    568.774    568.774
 46.670    607.000    581.582     25.418    568.835    579.258    571.159    568.835    568.835
 46.770    560.137    582.204    -22.067    568.897    579.794    571.306    568.897    568.897
 46.870    571.000    582.908    -11.908    568.960    580.401    571.464    568.960    568.960
 46.970    616.000    583.717     32.283    569.023    581.100    571.638    569.023    569.023
 47.070    575.588    584.668     -9.080    569.088    581.923    571.829    569.088    569.088
 47.170    590.639    585.832      4.807    569.152    582.934    572.047    569.152    569.152
 47.270    620.000    587.344     32.656    569.218    584.253    572.304    569.218    569.218
 47.370    572.000    589.449    -17.449    569.284    586.102    572.626    569.284    569.284
 47.470    641.000    592.562     48.438    569.351    588.853    573.053    569.351    569.351
 47.570    546.473    597.286    -50.813    569.419    593.048    573.647    569.419    569.419
 47.670    600.000    604.349     -4.349    569.487    599.343    574.478    569.487    569.487
 47.770    657.000    614.384     42.616    569.556    608.307    575.611    569.556    569.556
 47.870    595.000    627.567    -32.567    569.625    620.098    577.064    569.625    569.625
 47.970    664.000    643.155     20.845    569.695    634.044    578.766    569.695    569.695
 48.070    622.895    659.016    -36.121    569.766    648.223    580.509    569.766    569.766
 48.170    631.000    671.446    -40.446    569.837    659.294    581.933    569.837    569.837
 48.270    665.000    676.286    -11.286    569.909    663.506    582.632    569.909    569.909
 48.370    655.462    671.913    -16.450    569.982    659.392    582.450    569.982    569.982
 48.470    647.000    660.914    -13.914    570.055    649.280    581.645    570.055    570.055
 48.570    645.000    647.687     -2.687    570.128    637.127    580.655    570.128    570.128
 48.670    634.000    635.652     -1.652    570.202    626.008    579.822    570.202    570.202
 48.770    658.864    626.603     32.261    570.277    617.532    579.331    570.277    570.277
 48.870    606.000    621.072    -15.072    570.352    612.166    579.246    570.352    570.352
 48.970    599.000    618.823    -19.823    570.428    609.684    579.557    570.428    570.428
 49.070    575.000    619.303    -44.303    570.504    609.567    580.232    570.504    570.504
 49.170    587.264    622.001    -34.738    570.580    611.326    581.249    570.580    570.580
 49.270    601.000    626.691    -25.691    570.657    614.708    582.634    570.657    570.657
 49.370    663.117    633.655     29.462    570.735    619.869    584.513    570.735    570.735
 49.470    668.435    644.125     24.310    570.813    627.706    587.223    570.813    570.813
 49.570    695.730    661.285     34.445    570.891    640.592    591.571    570.891    570.891
 49.670    697.000    692.090      4.910    570.970    663.775    599.262    570.970    570.970
 49.770    708.000    749.925    -41.925    571.049    707.296    613.636    571.049    571.049
 49.870    881.223    856.549     24.673    571.128    787.359    640.246    571.128    571.128
 49.970   1070.267   1039.665     30.602    571.208    924.825    685.930    571.208    571.208
 50.070   1310.000   1324.105    -14.105    571.289   1138.343    756.878    571.289    571.289
 50.170   1704.572   1714.888    -10.317    571.369   1431.693    854.343    571.369    571.369
 50.270   2037.000   2178.056   -141.056    571.450   1779.407    969.857    571.450    571.450
 50.370   2558.000   2629.361    -71.361    571.532   2118.279   1082.402    571.532    571.532
 50.470   2855.000   2944.355    -89.355    571.613   2354.928   1160.921    571.613    571.613
 50.570   3115.721   3008.053    107.669    571.695   2403.056   1176.698    571.695    571.695
 50.670   2761.000   2793.277    -32.277    571.778   2242.266   1122.901    571.778    571.778
 50.770   2419.000   2385.670     33.330    571.860   1936.875   1020.821    571.860    571.860
 50.870   1883.000   1916.637    -33.637    571.943   1585.601    903.148    571.943    571.943
 50.970   1489.000   1492.078     -3.078    572.026   1268.049    796.198    572.026    572.026
 51.070   1164.000   1167.533     -3.533    572.109   1026.007    713.740    572.109    572.109
 51.170    975.713    952.572     23.141    572.193    866.686    658.152    572.193    572.193
 51.270    946.000    827.787    118.213    572.277    775.387    624.728    572.277    572.277
 51.370    777.000    763.540     13.460    572.361    729.508    606.432    572.361    572.361
 51.470    775.962    732.706     43.256    572.445    708.063    597.123    572.445    572.445
 51.570    733.000    715.947     17.053    572.530    695.765    592.744    572.530    572.530
 51.670    734.000    702.719     31.281    572.614    684.233    591.128    572.614    572.614
 51.770    744.171    689.879     54.292    572.699    671.303    591.297    572.699    572.699
 51.870    707.000    678.091     28.909    572.784    658.097    592.793    572.784    572.784
 51.970    660.000    668.564     -8.564    572.869    646.222    595.218    572.869    572.869
 52.070    709.000    661.718     47.282    572.954    636.690    597.984    572.954    572.954
 52.170    706.590    657.030     49.560    573.040    629.842    600.225    573.040    573.040
 52.270    674.000    653.382     20.618    573.125    625.529    600.973    573.125    573.125
 52.370    680.000    649.840     30.160    573.211    623.355    599.690    573.211    573.211
 52.470    693.830    646.299     47.532    573.297    622.904    596.687    573.297    573.297
 52.570    650.000    643.340      6.660    573.383    623.891    592.829    573.383    573.383
 52.670    684.000    641.776     42.224    573.469    626.273    588.970    573.469    573.469
 52.770    683.000    642.471     40.529    573.555    630.344    585.680    573.555    573.555
 52.870    623.000    646.476    -23.476    573.641    636.894    583.221    573.641    573.641
 52.970    691.000    655.343     35.657    573.727    647.448    581.620    573.727    573.727
 53.070    678.000    671.462      6.538    573.813    664.517    580.755    573.813    573.813
 53.170    744.591    698.332     46.260    573.899    691.728    580.498    573.899    573.899
 53.270    755.000    740.418     14.582    573.985    733.512    580.884    573.985    573.985
 53.370    806.000    801.837      4.163    574.071    794.079    581.820    574.071    574.071
 53.470    914.000    884.804     29.196    574.158    875.677    583.272    574.158    574.158
 53.570    925.835    987.244    -61.409    574.244    976.313    585.162    574.244    574.244
 53.670   1128.000   1100.310     27.690    574.330   1087.332    587.295    574.330    574.330
 53.770   1242.000   1206.355     35.645    574.416   1191.449    589.316    574.416    574.416
 53.870   1315.790   1279.882     35.909    574.502   1263.671    590.715    574.502    574.502
 53.970   1363.364   1296.768     66.597    574.588   1280.353    591.016    574.588    574.588
 54.070   1286.000   1250.479     35.521    574.674   1235.088    590.087    574.674    574.674
 54.170   1153.781   1157.921     -4.140    574.760   1144.446    588.259    574.760    574.760
 54.270    983.198   1046.122    -62.923    574.845   1034.929    586.061    574.845    574.845
 54.370    927.000    937.406    -10.406    574.931    928.424    583.933    574.931    574.931
 54.470    828.000    844.854    -16.854    575.017    837.756    582.129    575.017    575.017
 54.570    717.000    773.568    -56.568    575.102    767.930    580.751    575.102    575.102
 54.670    734.000    723.091     10.909    575.187    718.498    579.787    575.187    575.187
 54.770    699.000    689.842      9.158    575.272    685.951    579.168    575.272    575.272
 54.870    657.000    669.219    -12.219    575.357    665.778    578.801    575.357    575.357
 54.970    631.333    657.029    -25.696    575.442    653.869    578.604    575.442    575.442
 55.070    675.855    650.130     25.725    575.527    647.142    578.515    575.527    575.527
 55.170    693.342    646.485     46.857    575.611    643.604    578.492    575.611    575.611
 55.270    593.000    644.923    -51.923    575.695    642.106    578.513    575.695    575.695
 55.370    565.000    644.839    -79.839    575.780    642.053    578.565    575.780    575.780
 55.470    626.000    645.959    -19.959    575.863    643.180    578.642    575.863    575.863
 55.570    620.556    648.201    -27.645    575.947    645.405    578.742    575.947    575.947
 55.670    642.000    651.606     -9.606    576.030    648.770    578.865    576.030    576.030
 55.770    684.000    656.339     27.661    576.113    653.438    579.014    576.113    576.113
 55.870    688.000    662.752     25.248    576.196    659.754    579.193    576.196    576.196
 55.970    675.834    671.545      4.289    576.279    668.407    579.415    576.279    576.279
 56.070    687.000    684.088      2.912    576.361    680.745    579.701    576.361    576.361
 56.170    653.000    702.956    -49.956    576.443    699.303    580.091    576.443    576.443
 56.270    729.453    732.675     -3.222    576.525    728.532    580.659    576.525    576.525
 56.370    763.000    780.492    -17.492    576.606    775.564    581.520    576.606    576.606
 56.470    851.040    856.699     -5.659    576.688    850.525    582.838    576.688    576.688
 56.570    956.000    973.809    -17.809    576.768    965.725    584.815    576.768    576.768
 56.670   1085.553   1143.884    -58.332    576.849   1133.038    587.643    576.849    576.849
 56.770   1391.880   1373.907     17.973    576.929   1359.335    591.433    576.929    576.929
 56.870   1680.000   1659.930     20.070    577.009   1640.733    596.125    577.009    577.009
 56.970   2061.000   1981.384     79.616    577.088   1957.001    601.390    577.088    577.088
 57.070   2264.287   2296.863    -32.576    577.167   2267.397    606.569    577.167    577.167
 57.170   2646.000   2544.557    101.443    577.246   2511.103    610.676    577.246    577.246
 57.270   2678.000   2657.364     20.636    577.324   2622.084    612.642    577.324    577.324
 57.370   2650.000   2598.667     51.333    577.402   2564.292    611.884    577.402    577.402
 57.470   2312.057   2389.252    -77.194    577.479   2358.151    608.738    577.479    577.479
 57.570   2093.904   2090.705      3.198    577.556   2064.249    604.191    577.556    577.556
 57.670   1752.323   1768.556    -16.232    577.633   1747.063    599.298    577.633    577.633
 57.770   1427.000   1471.057    -44.057    577.709   1454.065    594.850    577.709    577.709
 57.870   1126.000   1225.264    -99.264    577.785   1211.850    591.315    577.785    577.785
 57.970   1033.904   1040.228     -6.324    577.860   1029.260    588.912    577.860    577.860
 58.070    926.000    912.498     13.502    577.935    902.756    587.733    577.935    577.935
 58.170    826.000    832.257     -6.257    578.009    822.426    587.873    578.009    578.009
 58.270    796.000    788.646      7.354    578.083    777.189    589.556    578.083    578.083
 58.370    784.000    773.146     10.854    578.156    758.133    593.170    578.156    578.156
 58.470    764.000    780.745    -16.745    578.229    759.756    599.206    578.229    578.229
 58.570    796.000    809.324    -13.324    578.302    779.559    608.041    578.302    578.302
 58.670    857.000    858.005     -1.005    578.373    816.698    619.643    578.373    578.373
 58.770    956.013    925.186     30.827    578.445    870.320    633.262    578.445    578.445
 58.870    961.000   1006.802    -45.802    578.515    938.014    647.248    578.515    578.515
 58.970   1134.898   1095.282     39.617    578.586   1014.692    659.120    578.586    578.586
 59.070   1204.000   1180.170     23.830    578.655   1092.660    666.119    578.655    578.655
 59.170   1251.000   1251.279     -0.279    578.724   1163.577    666.396    578.724    578.724
 59.270   1273.000   1302.038    -29.038    578.793   1220.709    660.112    578.793    578.793
 59.370   1336.000   1329.119      6.881    578.861   1258.740    649.250    578.861    578.861
 59.470   1287.000   1330.553    -43.553    578.928   1273.098    636.411    578.928    578.928
 59.570   1275.000   1307.713    -32.713    578.995   1262.921    623.824    578.995    578.995
 59.670   1257.000   1268.935    -11.935    579.061   1235.065    612.965    579.061    579.061
 59.770   1297.000   1228.053     68.947    579.126   1202.680    604.515    579.126    579.126
 59.870   1251.000   1198.726     52.274    579.191   1179.420    598.480    579.191    579.191
 59.970   1277.000   1190.426     86.574    579.255   1175.191    594.432    579.255    579.255
 60.070   1204.838   1208.157     -3.319    579.319   1195.577    591.793    579.319    579.319
 60.170   1214.794   1253.808    -39.014    579.382   1242.974    590.058    579.382    579.382
 60.270   1365.000   1325.760     39.240    579.444   1316.106    588.889    579.444    579.444
 60.370   1422.000   1415.994      6.006    579.506   1407.150    588.094    579.506    579.506
 60.470   1474.118   1507.699    -33.582    579.567   1499.406    587.573    579.567    579.567
 60.570   1640.619   1576.250     64.369    579.627   1568.316    587.265    579.627    579.627
 60.670   1518.000   1595.959    -77.959    579.686   1588.234    587.135    579.686    579.686
 60.770   1508.000   1552.871    -44.871    579.745   1545.225    587.159    579.745    579.745
 60.870   1409.836   1453.653    -43.817    579.803   1445.953    587.327    579.803    579.803
 60.970   1321.000   1320.191      0.809    579.861   1312.289    587.639    579.861    579.861
 61.070   1202.346   1177.233     25.113    579.917   1168.958    588.112    579.917    579.917
 61.170   1016.000   1044.477    -28.477    579.973   1035.612    588.787    579.973    579.973
 61.270    865.000    934.294    -69.294    580.028    924.536    589.754    580.028    580.028
 61.370    882.000    852.284     29.716    580.083    841.163    591.179    580.083    580.083
 61.470    766.711    799.161    -32.450    580.136    785.915    593.359    580.136    580.136
 61.570    804.000    773.264     30.736    580.189    756.655    596.767    580.189    580.189
 61.670    794.000    772.895     21.105    580.242    750.995    602.100    580.242    580.242
 61.770    790.000    797.789     -7.789    580.293    767.767    610.255    580.293    580.293
 61.870    871.134    849.292     21.842    580.343    807.322    622.230    580.343    580.343
 61.970    904.000    929.250    -25.250    580.393    870.651    638.877    580.393    580.393
 62.070   1023.692   1037.955    -14.262    580.442    957.682    660.564    580.442    580.442
 62.170   1140.000   1171.744    -31.744    580.490   1065.274    686.770    580.490    580.490
 62.270   1291.000   1320.881    -29.881    580.538   1185.451    715.744    580.538    580.538
 62.370   1450.659   1468.285    -17.626    580.584   1304.325    744.296    580.584    580.584
 62.470   1490.000   1589.989    -99.989    580.630   1402.461    767.905    580.630    580.630
 62.570   1587.000   1659.680    -72.680    580.675   1458.525    781.595    580.675    580.675
 62.670   1622.000   1658.974    -36.974    580.718   1457.608    781.889    580.718    580.718
 62.770   1500.000   1587.806    -87.806    580.762   1399.638    768.781    580.762    580.762
 62.870   1484.786   1464.446     20.340    580.804   1299.403    745.744    580.804    580.804
 62.970   1309.962   1315.119     -5.157    580.845   1178.136    717.762    580.845    580.845
 63.070   1230.275   1163.671     66.604    580.886   1055.151    689.366    580.886    580.886
 63.170    954.000   1026.949    -72.949    580.925    944.091    663.761    580.925    580.925
 63.270    909.822    914.263     -4.440    580.964    852.494    642.719    580.964    580.964
 63.370    856.000    828.421     27.579    581.002    782.633    626.780    581.002    581.002
 63.470    748.573    767.574    -19.002    581.039    733.006    615.597    581.039    581.039
 63.570    717.000    727.354    -10.354    581.075    700.070    608.348    581.075    581.075
 63.670    692.000    702.742    -10.742    581.110    679.755    604.084    581.110    581.110
 63.770    694.000    689.391      4.609    581.144    668.529    601.991    581.144    581.144
 63.870    691.000    684.311      6.689    581.177    663.947    601.523    581.177    581.177
 63.970    718.000    686.078     31.922    581.209    664.800    602.467    581.209    581.209
 64.070    692.000    694.769     -2.769    581.240    671.025    604.958    581.240    581.240
 64.170    724.000    711.750     12.250    581.271    683.489    609.497    581.271    581.271
 64.270    745.400    739.354      6.046    581.300    703.666    616.941    581.300    581.300
 64.370    810.000    780.384     29.616    581.328    733.200    628.449    581.328    581.328
 64.470    838.000    837.386      0.614    581.356    773.328    645.330    581.356    581.356
 64.570    916.189    911.680      4.508    581.382    824.201    668.753    581.382    581.382
 64.670   1063.000   1002.255     60.745    581.408    884.195    699.330    581.408    581.408
 64.770   1094.000   1104.661    -10.661    581.432    949.293    736.637    581.432    581.432
 64.870   1150.483   1210.173    -59.690    581.455   1012.682    778.759    581.455    581.455
 64.970   1376.000   1305.810     70.190    581.478   1065.096    821.992    581.478    581.478
 65.070   1348.060   1376.398    -28.337    581.499   1096.909    860.787    581.499    581.499
 65.170   1403.731   1409.041     -5.310    581.520   1102.045    888.327    581.520    581.520
 65.270   1439.000   1397.841     41.159    581.539   1080.845    898.374    581.539    581.539
 65.370   1394.000   1346.167     47.833    581.557   1039.353    888.244    581.557    581.557
 65.470   1289.000   1265.403     23.597    581.574    986.373    860.515    581.574    581.574
 65.570   1131.391   1170.404    -39.014    581.591    930.505    821.435    581.591    581.591
 65.670   1068.000   1074.475     -6.475    581.606    878.167    777.888    581.606    581.606
 65.770    974.000    986.684    -12.684    581.620    832.845    735.455    581.620    581.620
 65.870    834.000    911.543    -77.543    581.633    795.345    697.841    581.633    581.633
 65.970    840.000    850.017    -10.017    581.645    764.727    666.952    581.645    581.645
 66.070    841.000    801.099     39.901    581.656    739.569    643.205    581.656    581.656
 66.170    677.000    763.122    -86.122    581.665    718.834    625.971    581.665    581.665
 66.270    738.066    734.332      3.734    581.674    701.963    614.058    581.674    581.674
 66.370    685.000    713.026    -28.026    581.682    688.600    606.118    581.682    581.682
 66.470    745.494    697.673     47.820    581.688    678.434    600.933    581.688    581.688
 66.570    659.932    687.030    -27.098    581.694    671.179    597.546    581.694    581.694
 66.670    669.000    680.172    -11.172    581.698    666.586    595.283    581.698    581.698
 66.770    649.000    676.464    -27.464    581.701    664.454    593.709    581.701    581.701
 66.870    639.597    675.521    -35.924    581.703    664.659    592.563    581.703    581.703
 66.970    691.000    677.224     13.776    581.704    667.225    591.700    581.704    581.704
 67.070    710.157    681.802     28.355    581.704    672.457    591.046    581.704    581.704
 67.170    679.000    689.997    -10.997    581.702    681.126    590.571    581.702    581.702
 67.270    753.983    703.293     50.690    581.700    694.711    590.279    581.700    581.700
 67.370    725.514    724.184      1.330    581.696    715.674    590.200    581.696    581.696
 67.470    744.000    756.425    -12.425    581.691    747.713    590.396    581.691    581.691
 67.570    798.000    805.134     -7.134    581.685    795.853    590.954    581.685    581.685
 67.670    832.000    876.552    -44.552    581.678    866.226    591.987    581.678    581.678
 67.770    965.250    977.308    -12.057    581.670    965.338    593.616    581.670    581.670
 67.870   1071.000   1113.064    -42.064    581.660   1098.752    595.945    581.660    581.660
 67.970   1252.085   1286.650    -34.565    581.650   1269.248    599.023    581.650    581.650
 68.070   1542.549   1495.953     46.596    581.638   1474.759    602.806    581.638    581.638
 68.170   1765.000   1731.960     33.040    581.625   1706.452    607.119    581.625    581.625
 68.270   1968.000   1977.289     -9.289    581.611   1947.281    611.628    581.611    581.611
 68.370   2230.000   2205.631     24.369    581.595   2171.444    615.827    581.595    581.595
 68.470   2386.000   2383.551      2.449    581.578   2346.147    619.076    581.578    581.578
 68.570   2484.000   2477.536      6.464    581.561   2438.514    620.732    581.561    581.561
 68.670   2425.584   2466.776    -41.192    581.542   2428.123    620.396    581.542    581.542
 68.770   2427.000   2353.854     73.146    581.521   2317.498    618.117    581.521    581.521
 68.870   2224.033   2163.215     60.819    581.500   2130.608    614.359    581.500    581.500
 68.970   1898.082   1929.114    -31.032    581.477   1901.058    609.777    581.477    581.477
 69.070   1728.000   1683.838     44.162    581.453   1660.524    604.988    581.453    581.453
 69.170   1413.000   1451.949    -38.949    581.428   1433.103    600.461    581.428    581.428
 69.270   1287.000   1249.098     37.902    581.401   1234.158    596.494    581.401    581.401
 69.370   1094.000   1082.806     11.194    581.374   1071.069    593.229    581.374    581.374
 69.470    997.000    954.049     42.951    581.345    944.795    590.684    581.345    581.345
 69.570    908.000    859.276     48.724    581.314    851.855    588.797    581.314    581.314
 69.670    851.000    792.491     58.509    581.283    786.367    587.449    581.283    581.283
 69.770    753.662    747.039      6.623    581.250    741.804    586.513    581.250    581.250
 69.870    776.000    716.823     59.177    581.216    712.186    585.872    581.216    581.216
 69.970    769.000    696.931     72.069    581.181    692.694    585.431    581.181    581.181
 70.070    727.000    683.776     43.224    581.145    679.806    585.122    581.145    581.145
 70.170    759.000    674.942     84.058    581.107    671.154    584.900    581.107    581.107
 70.270    687.097    668.909     18.188    581.068    665.246    584.734    581.068    581.068
 70.370    704.000    664.781     39.219    581.027    661.201    584.608    581.027    581.027
 70.470    700.000    662.055     37.945    580.986    658.528    584.512    580.986    580.986
 70.570    619.150    660.478    -41.328    580.943    656.977    584.442    580.943    580.943
 70.670    650.000    659.958     -9.958    580.899    656.456    584.397    580.899    580.899
 70.770    711.000    660.530     50.470    580.853    657.000    584.378    580.853    580.853
 70.870    666.000    662.373      3.627    580.806    658.782    584.391    580.806    580.806
 70.970    657.000    665.861     -8.861    580.758    662.165    584.446    580.758    580.758
 71.070    709.162    671.657     37.505    580.709    667.795    584.560    580.709    580.709
 71.170    714.000    680.844     33.156    580.658    676.726    584.761    580.658    580.658
 71.270    689.000    695.074     -6.074    580.606    690.566    585.093    580.606    580.606
 71.370    697.109    716.699    -19.591    580.553    711.607    585.616    580.553    580.553
 71.470    772.000    748.820     23.180    580.498    742.866    586.412    580.498    580.498
 71.570    820.000    795.159     24.841    580.442    787.969    587.576    580.442    580.442
 71.670    825.472    859.689    -34.217    580.385    850.784    589.212    580.385    580.385
 71.770    995.000    945.957     49.043    580.326    934.765    591.413    580.326    580.326
 71.870   1093.000   1056.142     36.858    580.266   1042.036    594.235    580.266    580.266
 71.970   1245.000   1189.969     55.031    580.205   1172.327    597.673    580.205    580.205
 72.070   1349.000   1343.649      5.351    580.142   1321.950    601.630    580.142    580.142
 72.170   1553.000   1509.022     43.978    580.078   1482.957    605.896    580.078    580.078
 72.270   1650.000   1673.008    -23.008    580.013   1642.609    610.136    580.013    580.013
 72.370   1768.389   1817.702    -49.313    579.946   1783.466    613.890    579.946    579.946
 72.470   1960.000   1922.183     37.817    579.878   1885.152    616.619    579.878    579.878
 72.570   1950.429   1967.574    -17.145    579.809   1929.274    617.839    579.809    579.809
 72.670   1846.000   1944.530    -98.530    579.738   1906.727    617.310    579.738    579.738
 72.770   1786.000   1857.915    -71.915    579.666   1822.236    615.160    579.666    579.666
 72.870   1660.000   1724.184    -64.184    579.593   1691.826    611.811    579.593    579.593
 72.970   1607.000   1564.181     42.819    579.518   1535.800    607.800    579.518    579.518
 73.070   1390.000   1397.081     -7.081    579.442   1372.844    603.612    579.442    579.442
 73.170   1247.000   1237.636      9.364    579.364   1217.339    599.618    579.364    579.364
 73.270   1031.476   1095.619    -64.143    579.286   1078.826    596.053    579.286    579.286
 73.370    990.000    976.202     13.798    579.205    962.358    593.034    579.205    579.205
 73.470    849.000    880.736    -31.736    579.124    869.265    590.585    579.124    579.124
 73.570    813.858    807.771      6.087    579.041    798.132    588.673    579.041    579.041
 73.670    784.515    754.157     30.359    578.957    745.875    587.233    578.957    578.957
 73.770    736.000    716.047     19.953    578.871    708.722    586.191    578.871    578.871
 73.870    717.129    689.657     27.473    578.784    682.955    585.481    578.784    578.784
 73.970    689.000    671.733     17.267    578.696    665.375    585.050    578.696    578.696
 74.070    725.000    659.753     65.247    578.606    653.492    584.865    578.606    578.606
 74.170    684.260    651.923     32.337    578.515    645.526    584.910    578.515    578.515
 74.270    656.000    647.057      8.943    578.422    640.296    585.184    578.422    578.422
 74.370    605.558    644.416    -38.858    578.328    637.056    585.692    578.328    578.328
 74.470    624.000    643.540    -19.540    578.233    635.345    586.436    578.233    578.233
 74.570    666.000    644.115     21.885    578.136    634.855    587.409    578.136    578.136
 74.670    716.000    645.862     70.138    578.038    635.338    588.580    578.038    578.038
 74.770    681.130    648.466     32.664    577.939    636.532    589.896    577.939    577.939
 74.870    654.000    651.531      2.469    577.838    638.128    591.271    577.838    577.838
 74.970    672.000    654.558     17.442    577.736    639.741    592.587    577.736    577.736
 75.070    687.192    656.965     30.228    577.632    640.932    593.704    577.632    577.632
 75.170    623.000    658.185    -35.185    577.527    641.270    594.485    577.527    577.527
 75.270    636.723    657.845    -21.121    577.421    640.466    594.843    577.421    577.421
 75.370    682.000    655.938     26.062    577.313    638.499    594.794    577.313    577.313
 75.470    694.000    652.868     41.132    577.204    635.643    594.467    577.204    577.204
 75.570    664.000    649.321     14.679    577.094    632.373    594.074    577.094    577.094
 75.670    674.420    646.106     28.315    576.982    629.237    593.876    576.982    576.982
 75.770    705.000    644.056     60.944    576.869    626.786    594.158    576.869    576.869
 75.870    653.000    644.012      8.988    576.754    625.549    595.227    576.754    576.754
 75.970    643.998    646.818     -2.820    576.638    626.038    597.420    576.638    576.638
 76.070    644.281    653.321     -9.040    576.521    628.747    601.089    576.521    576.521
 76.170    644.037    664.328    -20.291    576.402    634.128    606.586    576.402    576.402
 76.270    677.850    680.518     -2.668    576.282    642.552    614.221    576.282    576.282
 76.370    707.000    702.315      4.685    576.160    654.241    624.196    576.160    576.160
 76.470    769.000    729.728     39.272    576.037    669.177    636.536    576.037    576.037
 76.570    757.000    762.190     -5.190    575.913    687.024    651.014    575.913    575.913
 76.670    721.000    798.406    -77.406    575.787    707.037    667.077    575.787    575.787
 76.770    800.000    836.232    -36.232    575.660    727.995    683.805    575.660    575.660
 76.870    869.000    872.627     -3.627    575.532    748.179    699.877    575.532    575.532
 76.970    910.195    903.742      6.453    575.402    765.415    713.618    575.402    575.402
 77.070    931.000    925.354      5.646    575.271    777.326    723.186    575.271    575.271
 77.170    893.221    933.878    -40.656    575.138    781.890    727.016    575.138    575.138
 77.270    963.939    927.685     36.254    575.004    778.189    724.400    575.004    575.004
 77.370    942.000    907.840     34.160    574.869    766.818    715.803    574.869    574.869
 77.470    903.903    877.585     26.318    574.732    749.599    702.644    574.732    574.732
 77.570    839.084    841.065     -1.981    574.594    728.862    686.737    574.594    574.594
 77.670    788.000    802.221    -14.221    574.454    706.822    669.807    574.454    574.454
 77.770    787.215    764.231     22.984    574.314    685.265    653.243    574.314    574.314
 77.870    723.000    729.362     -6.362    574.171    665.466    638.040    574.171    574.171
 77.970    713.000    699.004     13.996    574.028    648.206    624.806    574.028    574.028
 78.070    650.326    673.773    -23.447    573.883    633.831    613.810    573.883    573.883
 78.170    635.000    653.661    -18.661    573.736    622.335    605.051    573.736    573.736
 78.270    641.000    638.223      2.777    573.589    613.469    598.335    573.589    573.589
 78.370    623.000    626.761     -3.761    573.439    606.837    593.357    573.439    573.439
 78.470    600.539    618.485    -17.945    573.289    601.996    589.772    573.289    573.289
 78.570    642.000    612.637     29.363    573.137    598.519    587.250    573.137    573.137
 78.670    635.794    608.564     27.230    572.984    596.038    585.506    572.984    572.984
 78.770    612.699    605.749      6.951    572.829    594.259    584.315    572.829    572.829
 78.870    601.000    603.809     -2.809    572.674    592.968    583.510    572.674    572.674
 78.970    621.000    602.480     18.520    572.516    592.015    582.978    572.516    572.516
 79.070    561.000    601.592    -40.592    572.358    591.303    582.644    572.358    572.358
 79.170    624.763    601.044     23.719    572.198    590.773    582.465    572.198    572.198
 79.270    577.441    600.784    -23.343    572.037    590.395    582.422    572.037    572.037
 79.370    579.000    600.799    -21.799    571.874    590.158    582.511    571.874    571.874
 79.470    645.586    601.107     44.479    571.710    590.067    582.746    571.710    571.710
 79.570    555.000    601.754    -46.754    571.545    590.139    583.155    571.545    571.545
 79.670    589.000    602.821    -13.821    571.378    590.401    583.794    571.378    571.378
 79.770    623.000    604.436     18.564    571.210    590.891    584.749    571.210    571.210
 79.870    604.000    606.785     -2.785    571.041    591.662    586.158    571.041    571.041
 79.970    609.445    610.144     -0.699    570.870    592.781    588.226    570.870    570.870
 80.070    600.000    614.902    -14.902    570.698    594.334    591.258    570.698    570.698
 80.170    569.000    621.598    -52.598    570.525    596.434    595.678    570.525    570.525
 80.270    639.000    630.944      8.056    570.350    599.226    602.054    570.350    570.350
 80.370    623.000    643.833    -20.833    570.174    602.893    611.096    570.174    570.174
 80.470    628.000    661.308    -33.308    569.997    607.652    623.630    569.997    569.997
 80.570    723.528    684.490     39.038    569.818    613.746    640.533    569.818    569.818
 80.670    712.000    714.449     -2.449    569.638    621.438    662.614    569.638    569.638
 80.770    772.000    752.041     19.959    569.457    630.990    690.466    569.457    569.457
 80.870    812.000    797.709     14.291    569.275    642.644    724.290    569.275    569.275
 80.970    886.000    851.252     34.748    569.091    656.581    763.706    569.091    569.091
 81.070    934.000    911.590     22.410    568.906    672.841    807.592    568.906    568.906
 81.170   1034.752    976.567     58.186    568.719    691.245    853.975    568.719    568.719
 81.270   1057.676   1042.872     14.804    568.532    711.320    900.017    568.532    568.532
 81.370   1151.239   1106.140     45.099    568.343    732.269    942.151    568.343    568.343
 81.470   1160.894   1161.417     -0.522    568.152    753.046    976.469    568.152    568.152
 81.570   1251.000   1204.033     46.967    567.961    772.528    999.424    567.961    567.961
 81.670   1332.000   1230.424    101.576    567.768    789.571   1008.596    567.768    567.768
 81.770   1342.000   1238.931    103.069    567.574    803.259   1003.239    567.574    567.574
 81.870   1226.939   1229.809     -2.870    567.379    812.960    984.239    567.379    567.379
 81.970   1193.772   1204.902    -11.130    567.182    818.351    953.763    567.182    567.182
 82.070   1223.110   1167.241     55.869    566.984    819.409    914.862    566.984    566.984
 82.170   1172.406   1120.530     51.876    566.785    816.328    871.045    566.785    566.785
 82.270   1075.000   1068.510      6.490    566.585    809.393    825.768    566.585    566.585
 82.370    977.292   1014.475    -37.183    566.384    798.946    781.985    566.384    566.384
 82.470   1003.000    961.100     41.900    566.181    785.483    741.872    566.181    566.181
 82.570    957.000    910.449     46.551    565.977    769.733    706.767    565.977    565.977
 82.670    909.566    863.962     45.603    565.771    752.566    677.239    565.771    565.771
 82.770    838.000    822.409     15.591    565.565    734.800    653.241    565.565    565.565
 82.870    815.489    785.942     29.547    565.357    717.066    634.296    565.357    565.357
 82.970    718.000    754.296    -36.296    565.148    699.817    619.684    565.148    565.148
 83.070    673.000    727.046    -54.046    564.938    683.425    608.609    564.938    564.938
 83.170    688.991    703.803    -14.813    564.727    668.249    600.323    564.727    564.727
 83.270    662.000    684.292    -22.292    564.515    654.649    594.192    564.515    564.515
 83.370    666.192    668.325     -2.132    564.301    642.938    589.714    564.301    564.301
 83.470    624.000    655.761    -31.761    564.086    633.348    586.517    564.086    564.086
 83.570    580.000    646.475    -66.475    563.870    626.015    584.340    563.870    563.870
 83.670    622.000    640.325    -18.325    563.653    620.976    583.003    563.653    563.653
 83.770    591.542    637.125    -45.582    563.434    618.173    582.379    563.434    563.434
 83.870    637.000    636.615      0.385    563.215    617.448    582.366    563.215    563.215
 83.970    614.000    638.441    -24.441    562.994    618.546    582.865    562.994    562.994
 84.070    607.000    642.136    -35.136    562.772    621.111    583.764    562.772    562.772
 84.170    688.303    647.115     41.187    562.549    624.697    584.928    562.549    562.549
 84.270    664.733    652.687     12.046    562.325    628.771    586.195    562.325    562.325
 84.370    680.804    658.068     22.736    562.100    632.739    587.379    562.100    562.100
 84.470    632.000    662.434    -30.434    561.874    635.974    588.280    561.874    561.874
 84.570    604.000    665.014    -61.014    561.646    637.896    588.709    561.646    561.646
 84.670    635.000    665.230    -30.230    561.418    638.067    588.526    561.418    561.418
 84.770    678.144    662.844     15.300    561.188    636.304    587.677    561.188    561.188
 84.870    694.801    658.024     36.776    560.957    632.725    586.209    560.957    560.957
 84.970    636.000    651.260    -15.260    560.725    627.687    584.256    560.725    560.725
 85.070    650.420    643.210      7.210    560.492    621.671    581.994    560.492    560.492
 85.170    581.000    634.553    -53.553    560.258    615.170    579.610    560.258    560.258
 85.270    639.094    625.899     13.195    560.023    608.621    577.273    560.023    560.023
 85.370    606.000    617.750    -11.750    559.787    602.379    575.135    559.787    559.787
 85.470    574.855    610.487    -35.632    559.550    596.702    573.316    559.550    559.550
 85.570    611.864    604.371      7.492    559.312    591.749    571.917    559.312    559.312
 85.670    573.071    599.554    -26.483    559.072    587.598    571.014    559.072    559.072
 85.770    586.000    596.097    -10.097    558.832    584.251    570.664    558.832    558.832
 85.870    592.883    593.992     -1.108    558.591    581.661    570.907    558.591    558.591
 85.970    637.269    593.185     44.085    558.348    579.751    571.767    558.348    558.348
 86.070    604.000    593.592     10.408    558.105    578.433    573.248    558.105    558.105
 86.170    625.520    595.111     30.409    557.860    577.625    575.329    557.860    557.860
 86.270    589.000    597.628     -8.628    557.615    577.263    577.959    557.615    557.615
 86.370    569.204    601.018    -31.814    557.369    577.313    581.050    557.369    557.369
 86.470    609.841    605.143      4.698    557.121    577.770    584.467    557.121    557.121
 86.570    613.250    609.853      3.397    556.873    578.665    588.030    556.873    556.873
 86.670    615.823    614.982      0.842    556.624    580.062    591.508    556.624    556.624
 86.770    630.000    620.353      9.647    556.373    582.056    594.631    556.373    556.373
 86.870    653.000    625.789     27.211    556.122    584.763    597.104    556.122    556.122
 86.970    611.551    631.145    -19.594    555.870    588.318    598.648    555.870    555.870
 87.070    704.000    636.348     67.652    555.617    592.852    599.058    555.617    555.617
 87.170    683.000    641.438     41.562    555.363    598.480    598.259    555.363    555.363
 87.270    647.000    646.565      0.435    555.108    605.276    596.328    555.108    555.108
 87.370    667.000    651.936     15.064    554.852    613.248    593.463    554.852    554.852
 87.470    701.443    657.724     43.718    554.596    622.308    589.925    554.596    554.596
 87.570    691.000    663.996     27.004    554.338    632.255    585.982    554.338    554.338
 87.670    719.299    670.658     48.641    554.080    642.753    581.877    554.080    554.080
 87.770    715.180    677.437     37.743    553.821    653.327    577.813    553.821    553.821
 87.870    666.970    683.877    -16.907    553.560    663.360    573.951    553.560    553.560
 87.970    673.530    689.370    -15.839    553.299    672.129    570.407    553.299    553.299
 88.070    725.000    693.233     31.767    553.038    678.881    567.253    553.038    553.038
 88.170    694.000    694.855     -0.855    552.775    682.974    564.521    552.775    552.775
 88.270    742.000    693.869     48.131    552.512    684.044    562.207    552.512    552.512
 88.370    676.000    690.272    -14.272    552.247    682.117    560.283    552.247    552.247
 88.470    714.818    684.428     30.390    551.982    677.596    558.707    551.982    551.982
 88.570    677.000    676.952      0.048    551.716    671.144    557.430    551.716    551.716
 88.670    678.000    668.572      9.428    551.450    663.538    556.405    551.450    551.450
 88.770    679.000    660.026     18.974    551.182    655.560    555.585    551.182    551.182
 88.870    647.000    652.008     -5.008    550.914    647.939    554.934    550.914    550.914
 88.970    664.732    645.110     19.622    550.645    641.300    554.420    550.645    550.645
 89.070    660.000    639.795     20.205    550.376    636.131    554.017    550.376    550.376
 89.170    616.000    636.366    -20.366    550.105    632.754    553.706    550.105    550.105
 89.270    615.453    634.950    -19.497    549.834    631.314    553.470    549.834    549.834
 89.370    654.000    635.496     18.504    549.562    631.774    553.294    549.562    549.562
 89.470    683.538    637.781     45.756    549.290    633.928    553.163    549.290    549.290
 89.570    630.000    641.432    -11.432    549.017    637.417    553.061    549.017    549.017
 89.670    626.000    645.942    -19.942    548.743    641.752    552.970    548.743    548.743
 89.770    580.000    650.699    -70.699    548.468    646.339    552.873    548.468    548.468
 89.870    626.000    655.028    -29.028    548.193    650.524    552.749    548.193    548.193
 89.970    558.000    658.245   -100.245    547.917    653.642    552.578    547.917    547.917
 90.070    691.000    659.757     31.243    547.641    655.117    552.343    547.641    547.641
 90.170    644.837    659.166    -14.329    547.364    654.563    552.032    547.364    547.364
 90.270    683.000    656.355     26.645    547.086    651.862    551.644    547.086    547.086
 90.370    672.000    651.497     20.503    546.808    647.183    551.186    546.808    546.808
 90.470    614.000    644.990    -30.990    546.529    640.908    550.671    546.529    546.529
 90.570    670.932    637.342     33.590    546.250    633.529    550.119    546.250    546.250
 90.670    615.000    629.081    -14.081    545.970    625.555    549.546    545.970    545.970
 90.770    609.000    620.683    -11.683    545.690    617.448    548.969    545.690    545.690
 90.870    610.000    612.549     -2.549    545.409    609.593    548.401    545.409    545.409
 90.970    619.000    604.984     14.016    545.127    602.289    547.852    545.127    545.127
 91.070    641.727    598.206     43.521    544.845    595.744    547.331    544.845    544.845
 91.170    594.000    592.341      1.659    544.562    590.082    546.841    544.562    544.562
 91.270    582.000    587.440     -5.440    544.279    585.351    546.383    544.279    544.279
 91.370    567.000    583.495    -16.495    543.996    581.543    545.958    543.996    543.996
 91.470    542.016    580.452    -38.435    543.712    578.606    545.564    543.712    543.712
 91.570    586.000    578.234      7.766    543.428    576.467    545.198    543.428    543.428
 91.670    647.000    576.759     70.241    543.143    575.046    544.858    543.143    543.143
 91.770    624.548    575.955     48.593    542.858    574.271    544.541    542.858    542.858
 91.870    571.000    575.768     -4.768    542.572    574.094    544.245    542.572    542.572
 91.970    610.000    576.179     33.821    542.286    574.492    543.970    542.286    542.286
 92.070    554.243    577.202    -22.958    541.999    575.480    543.716    541.999    541.999
 92.170    544.704    578.887    -34.183    541.713    577.107    543.486    541.713    541.713
 92.270    583.000    581.325      1.675    541.426    579.460    543.282    541.426    541.426
 92.370    549.797    584.637    -34.841    541.138    582.656    543.108    541.138    541.138
 92.470    613.000    588.972     24.028    540.850    586.840    542.969    540.850    540.850
 92.570    581.000    594.494    -13.494    540.562    592.169    542.869    540.562    540.562
 92.670    582.000    601.371    -19.371    540.274    598.809    542.814    540.274    540.274
 92.770    585.000    609.758    -24.758    539.985    606.910    542.806    539.985    539.985
 92.870    624.000    619.783      4.217    539.696    616.598    542.849    539.696    539.696
 92.970    669.149    631.525     37.624    539.407    627.951    542.942    539.407    539.407
 93.070    629.000    645.003    -16.003    539.117    640.992    543.083    539.117    539.117
 93.170    643.000    660.149    -17.149    538.828    655.657    543.267    538.828    538.828
 93.270    705.519    676.814     28.704    538.538    671.804    543.487    538.538    538.538
 93.370    695.000    694.784      0.216    538.248    689.229    543.734    538.248    538.248
 93.470    657.000    713.698    -56.698    537.957    707.580    543.999    537.957    537.957
 93.570    692.000    733.116    -41.116    537.667    726.429    544.271    537.667    537.667
 93.670    713.673    752.542    -38.869    537.376    745.284    544.546    537.376    537.376
 93.770    730.798    771.484    -40.686    537.086    763.653    544.823    537.086    537.086
 93.870    786.000    789.558     -3.558    536.795    781.140    545.116    536.795    536.795
 93.970    789.000    806.590    -17.590    536.504    797.543    545.452    536.504    536.504
 94.070    815.000    822.662     -7.662    536.213    812.896    545.878    536.213    536.213
 94.170    828.000    838.063    -10.063    535.922    827.430    546.454    535.922    535.922
 94.270    804.023    853.174    -49.151    535.630    841.454    547.250    535.630    535.630
 94.370    809.069    868.323    -59.254    535.339    855.230    548.332    535.339    535.339
 94.470    905.652    883.689     21.963    535.048    868.878    549.759    535.048    535.048
 94.570    936.000    899.281     36.719    534.756    882.367    551.572    534.756    534.756
 94.670    867.520    914.985    -47.464    534.465    895.568    553.784    534.465    534.465
 94.770    926.000    930.639     -4.639    534.174    908.339    556.378    534.174    534.174
 94.870    954.000    946.078      7.922    533.883    920.568    559.299    533.883    533.883
 94.970    946.000    961.092    -15.092    533.591    932.140    562.453    533.591    533.591
 95.070    953.000    975.330    -22.330    533.300    942.835    565.708    533.300    533.300
 95.170    912.000    988.192    -76.192    533.009    952.223    568.896    533.009    533.009
 95.270    972.917    998.803    -25.886    532.718    959.622    571.822    532.718    532.718
 95.370   1013.000   1006.046      6.954    532.427    964.129    574.275    532.427    532.427
 95.470    986.000   1008.713    -22.713    532.137    964.742    576.047    532.137    532.137
 95.570    989.782   1005.743    -15.961    531.846    960.575    576.963    531.846    531.846
 95.670    989.348    996.494     -7.146    531.556    951.096    576.913    531.556    531.556
 95.770    927.094    980.963    -53.870    531.265    936.321    575.876    531.265    531.265
 95.870    954.790    959.847     -5.057    530.975    916.874    573.925    530.975    530.975
 95.970    896.361    934.432    -38.072    530.686    893.893    571.210    530.686    530.686
 96.070    931.000    906.384     24.616    530.396    868.845    567.925    530.396    530.396
 96.170    868.000    877.525     -9.525    530.107    843.341    564.283    530.107    530.107
 96.270    891.000    849.680     41.320    529.818    819.001    560.490    529.818    529.818
 96.370    862.153    824.576     37.577    529.529    797.369    556.730    529.529    529.529
 96.470    840.000    803.793     36.207    529.240    779.868    553.157    529.240    529.240
 96.570    808.000    788.727     19.273    528.952    767.778    549.888    528.952    528.952
 96.670    764.000    780.578    -16.578    528.664    762.216    547.007    528.664    528.664
 96.770    787.616    780.335      7.281    528.377    764.122    544.563    528.377    528.377
 96.870    843.456    788.728     54.728    528.090    774.210    542.572    528.090    528.090
 96.970    818.000    806.409     11.591    527.803    793.136    541.029    527.803    527.803
 97.070    860.000    833.664     26.336    527.517    821.212    539.912    527.517    527.517
 97.170    846.231    870.521    -24.291    527.231    858.500    539.182    527.231    527.231
 97.270    971.916    916.737     55.179    526.946    904.800    538.800    526.946    526.946
 97.370    999.000    971.708     27.292    526.661    959.556    538.718    526.661    526.661
 97.470   1031.000   1034.427     -3.427    526.376   1021.809    538.889    526.376    526.376
 97.570   1109.082   1103.437      5.645    526.092   1090.153    539.260    526.092    526.092
 97.670   1156.000   1176.788    -20.788    525.809   1162.696    539.777    525.809    525.809
 97.770   1207.000   1252.016    -45.016    525.526   1237.031    540.380    525.526    525.526
 97.870   1378.161   1326.138     52.023    525.244   1310.244    541.005    525.244    525.244
 97.970   1341.302   1395.712    -54.409    524.962   1378.961    541.582    524.962    524.962
 98.070   1449.000   1456.976     -7.976    524.681   1439.494    542.039    524.681    524.681
 98.170   1546.000   1506.137     39.863    524.400   1488.119    542.305    524.400    524.400
 98.270   1526.000   1539.824    -13.824    524.121   1521.528    542.318    524.121    524.121
 98.370   1638.730   1555.648     83.082    523.841   1537.374    542.034    523.841    523.841
 98.470   1486.577   1552.684    -66.106    523.563   1534.748    541.438    523.563    523.563
 98.570   1563.036   1531.657     31.379    523.285   1514.357    540.543    523.285    523.285
 98.670   1533.329   1494.753     38.577    523.008   1478.347    539.390    523.008    523.008
 98.770   1321.000   1445.163   -124.163    522.732   1429.852    538.034    522.732    522.732
 98.870   1386.000   1386.576     -0.576    522.456   1372.494    536.541    522.456    522.456
 98.970   1327.000   1322.760      4.240    522.181   1309.980    534.973    522.181    522.181
 99.070   1185.587   1257.294    -71.707    521.907   1245.828    533.390    521.907    521.907
 99.170   1191.000   1193.409     -2.409    521.634   1183.220    531.841    521.634    521.634
 99.270   1071.278   1133.914    -62.636    521.362   1124.923    530.371    521.362    521.362
 99.370   1092.000   1081.177     10.823    521.090   1073.272    529.010    521.090    521.090
 99.470    990.000   1037.139    -47.139    520.820   1030.183    527.785    520.820    520.820
 99.570    955.645   1003.349    -47.704    520.550    997.193    526.709    520.550    520.550
 99.670    930.388    981.005    -50.617    520.281    975.491    525.791    520.281    520.281
 99.770    980.000    970.976      9.024    520.014    965.946    525.032    520.014    520.014
 99.870   1032.049    973.820     58.229    519.747    969.121    524.427    519.747    519.747
 99.970    948.821    989.796    -40.975    519.481    985.286    523.965    519.481    519.481
100.070   1056.000   1018.872     37.128    519.216   1014.420    523.636    519.216    519.216
100.170   1037.000   1060.724    -23.724    518.952   1056.218    523.422    518.952    518.952
100.270   1125.102   1114.731     10.371    518.690   1110.075    523.306    518.690    518.690
100.370   1244.977   1179.942     65.034    518.428   1175.060    523.270    518.428    518.428
100.470   1191.677   1255.124    -63.447    518.167   1249.960    523.293    518.167    518.167
100.570   1377.739   1338.618     39.121    517.908   1333.138    523.354    517.908    517.908
100.670   1489.000   1428.371     60.629    517.650   1422.562    523.433    517.650    517.650
100.770   1510.000   1521.923    -11.923    517.393   1515.792    523.507    517.393    517.393
100.870   1661.288   1616.440     44.848    517.137   1610.018    523.557    517.137    517.137
100.970   1708.550   1708.847     -0.297    516.882   1702.182    523.562    516.882    516.882
101.070   1819.000   1796.043     22.957    516.629   1789.199    523.507    516.629    516.629
101.170   1935.000   1875.186     59.814    516.376   1868.235    523.383    516.376    516.376
101.270   1975.655   1943.938     31.717    516.125   1936.953    523.187    516.125    516.125
101.370   2082.000   2000.559     81.441    515.876   1993.605    522.926    515.876    515.876
101.470   2213.000   2043.803    169.197    515.628   2036.934    522.612    515.628    515.628
101.570   2070.000   2072.717     -2.717    515.381   2065.966    522.264    515.381    515.381
101.670   2070.000   2086.458    -16.458    515.135   2079.841    521.900    515.135    515.135
101.770   2143.000   2084.315     58.685    514.891   2077.826    521.540    514.891    514.891
101.870   2132.000   2065.933     66.067    514.648   2059.551    521.200    514.648    514.648
101.970   2039.000   2031.691      7.309    514.407   2025.380    520.895    514.407    514.407
102.070   1957.000   1983.009    -26.009    514.167   1976.723    520.634    514.167    514.167
102.170   1879.255   1922.423    -43.168    513.929   1916.109    520.422    513.929    513.929
102.270   1784.000   1853.326    -69.326    513.692   1846.931    520.262    513.692    513.692
102.370   1781.000   1779.507      1.493    513.457   1772.983    520.149    513.457    513.457
102.470   1761.895   1704.652     57.243    513.223   1697.959    520.074    513.223    513.223
102.570   1531.000   1631.960   -100.960    512.991   1625.072    520.027    512.991    512.991
102.670   1507.733   1563.923    -56.190    512.761   1556.829    519.991    512.761    512.761
102.770   1438.000   1502.240    -64.240    512.532   1494.945    519.951    512.532    512.532
102.870   1512.570   1447.811     64.759    512.305   1440.336    519.893    512.305    512.305
102.970   1366.000   1400.780    -34.780    512.079   1393.160    519.802    512.079    512.079
103.070   1245.000   1360.604   -115.604    511.856   1352.885    519.669    511.856    511.856
103.170   1237.000   1326.154    -89.154    511.634   1318.390    519.485    511.634    511.634
103.270   1249.856   1295.825    -45.969    511.413   1288.078    519.243    511.413    511.413
103.370   1243.000   1267.736    -24.736    511.195   1260.074    518.937    511.195    511.195
103.470   1247.235   1239.971      7.264    510.978   1232.466    518.561    510.978    510.978
103.570   1192.000   1210.847    -18.847    510.764   1203.574    518.115    510.764    510.764
103.670   1095.000   1179.155    -84.155    510.551   1172.182    517.601    510.551    510.551
103.770   1130.963   1144.292    -13.329    510.340   1137.684    517.026    510.340    510.340
103.870   1088.000   1106.263    -18.263    510.131   1100.070    516.401    510.131    510.131
103.970   1045.000   1065.555    -20.555    509.923   1059.814    515.741    509.923    509.923
104.070    966.000   1022.961    -56.961    509.718   1017.693    515.061    509.718    509.718
104.170    971.000    979.416     -8.416    509.515    974.628    514.375    509.515    509.515
104.270    946.000    935.874     10.126    509.314    931.560    513.696    509.314    509.314
104.370    886.000    893.229     -7.229    509.115    889.371    513.036    509.115    509.115
104.470    795.059    852.269    -57.210    508.918    848.843    512.402    508.918    508.918
104.570    790.000    813.640    -23.640    508.723    810.617    511.799    508.723    508.723
104.670    773.000    777.872     -4.872    508.530    775.216    511.233    508.530    508.530
104.770    761.000    745.342     15.658    508.340    743.012    510.711    508.340    508.340
104.870    777.000    716.248     60.752    508.152    714.205    510.231    508.152    508.152
104.970    661.846    690.660    -28.815    507.965    688.865    509.791    507.965    507.965
105.070    622.795    668.528    -45.733    507.781    666.944    509.391    507.781    507.781
105.170    760.000    649.699    110.301    507.600    648.292    509.027    507.600    507.600
105.270    612.441    633.950    -21.509    507.420    632.690    508.697    507.420    507.420
105.370    681.000    621.010     59.990    507.243    619.868    508.398    507.243    507.243
105.470    620.000    610.584      9.416    507.069    609.536    508.127    507.069    507.069
105.570    612.000    602.379      9.621    506.897    601.403    507.879    506.897    506.897
105.670    579.000    596.119    -17.119    506.727    595.196    507.654    506.727    506.727
105.770    613.000    591.558     21.442    506.559    590.671    507.447    506.559    506.559
105.870    627.000    588.487     38.513    506.394    587.622    507.258    506.394    506.394
105.970    601.735    586.741     14.994    506.232    585.885    507.085    506.232    506.232
106.070    578.000    586.197     -8.197    506.072    585.337    506.926    506.072    506.072
106.170    584.000    586.772     -2.772    505.915    585.897    506.782    505.915    505.915
106.270    596.000    588.418      7.582    505.760    587.516    506.651    505.760    505.760
106.370    555.083    591.116    -36.033    505.608    590.176    506.534    505.608    505.608
106.470    557.517    594.868    -37.351    505.458    593.878    506.432    505.458    505.458
106.570    614.000    599.690     14.310    505.311    598.638    506.344    505.311    505.311
106.670    589.785    605.603    -15.818    505.167    604.477    506.272    505.167    505.167
106.770    594.000    612.628    -18.628    505.026    611.415    506.214    505.026    505.026
106.870    669.000    620.772     48.228    504.887    619.458    506.172    504.887    504.887
106.970    599.276    630.019    -30.743    504.751    628.593    506.145    504.751    504.751
107.070    637.000    640.322     -3.322    504.618    638.772    506.133    504.618    504.618
107.170    618.875    651.594    -32.719    504.488    649.908    506.134    504.488    504.488
107.270    674.003    663.698     10.305    504.361    661.869    506.146    504.361    504.361
107.370    663.210    676.448    -13.238    504.237    674.469    506.168    504.237    504.237
107.470    699.000    689.605      9.395    504.115    687.473    506.196    504.115    504.115
107.570    688.000    702.878    -14.878    503.997    700.595    506.226    503.997    503.997
107.670    676.930    715.933    -39.003    503.881    713.505    506.254    503.881    503.881
107.770    770.000    728.401     41.599    503.769    725.838    506.274    503.769    503.769
107.870    774.985    739.891     35.094    503.660    737.210    506.283    503.660    503.660
107.970    796.129    750.023     46.106    503.553    747.244    506.274    503.553    503.553
108.070    740.000    758.460    -18.460    503.450    755.612    506.242    503.450    503.450
108.170    728.000    764.960    -36.960    503.350    762.071    506.185    503.350    503.350
108.270    759.000    769.411    -10.411    503.253    766.513    506.099    503.253    503.253
108.370    785.000    771.863     13.137    503.160    768.989    505.986    503.160    503.160
108.470    722.456    772.527    -50.071    503.070    769.706    505.846    503.070    503.070
108.570    803.646    771.746     31.900    502.983    769.005    505.684    502.983    502.983
108.670    778.000    769.947      8.053    502.899    767.307    505.503    502.899    502.899
108.770    810.000    767.583     42.417    502.819    765.061    505.310    502.819    502.819
108.870    817.000    765.090     51.910    502.742    762.695    505.110    502.742    502.742
108.970    708.332    762.842    -54.510    502.668    760.580    504.907    502.668    502.668
109.070    748.363    761.134    -12.771    502.598    759.006    504.707    502.598    502.598
109.170    742.000    760.158    -18.158    502.532    758.161    504.514    502.532    502.532
109.270    760.000    760.005     -0.005    502.468    758.132    504.330    502.468    502.468
109.370    792.005    760.650     31.355    502.409    758.895    504.157    502.409    502.409
109.470    819.000    761.963     57.037    502.353    760.315    503.998    502.353    502.353
109.570    706.352    763.709    -57.357    502.301    762.158    503.852    502.301    502.301
109.670    777.000    765.562     11.438    502.252    764.099    503.719    502.252    502.252
109.770    716.000    767.127    -51.127    502.207    765.741    503.599    502.207    502.207
109.870    784.000    767.966     16.034    502.166    766.651    503.490    502.166    502.166
109.970    821.888    767.640     54.248    502.128    766.398    503.382    502.128    502.128
110.070    791.692    765.801     25.891    502.094    764.619    503.291    502.094    502.094
110.170    790.000    762.175     27.825    502.064    761.049    503.207    502.064    502.064
110.270    749.000    756.644     -7.644    502.038    755.571    503.130    502.038    502.038
110.370    779.000    749.244     29.756    502.016    748.222    503.058    502.016    502.016
110.470    704.000    740.155    -36.155    501.998    739.183    502.991    501.998    501.998
110.570    706.000    729.660    -23.660    501.983    728.736    502.928    501.983    501.983
110.670    748.000    718.102     29.898    501.973    717.224    502.871    501.973    501.973
110.770    672.000    705.846    -33.846    501.967    705.013    502.819    501.967    501.967
110.870    702.000    693.240      8.760    501.965    692.450    502.773    501.965    501.965
110.970    696.000    680.638     15.362    501.966    679.889    502.733    501.966    501.966
111.070    692.000    668.325     23.675    501.972    667.613    502.700    501.972    501.972
111.170    668.000    656.550     11.450    501.982    655.871    502.674    501.982    501.982
111.270    631.477    645.518    -14.041    501.997    644.870    502.656    501.997    501.997
111.370    683.000    635.388     47.612    502.015    634.767    502.645    502.015    502.015
111.470    639.000    626.273     12.727    502.038    625.675    502.643    502.038    502.038
111.570    609.688    618.240     -8.552    502.065    617.662    502.648    502.065    502.065
111.670    653.203    611.320     41.883    502.097    610.758    502.662    502.097    502.097
111.770    646.000    605.505     40.495    502.132    604.954    502.684    502.132    502.132
111.870    605.000    600.761      4.239    502.173    600.220    502.713    502.173    502.173
111.970    605.000    597.031      7.969    502.217    596.495    502.750    502.217    502.217
112.070    572.000    594.237    -22.237    502.267    593.704    502.795    502.267    502.267
112.170    588.000    592.294     -4.294    502.320    591.762    502.846    502.320    502.320
112.270    547.324    591.111    -43.787    502.379    590.578    502.904    502.379    502.379
112.370    597.000    590.596      6.404    502.441    590.060    502.969    502.441    502.441
112.470    614.000    590.662     23.338    502.509    590.122    503.040    502.509    502.509
112.570    593.000    591.226      1.774    502.581    590.681    503.116    502.581    502.581
112.670    628.803    592.217     36.586    502.658    591.666    503.198    502.658    502.658
112.770    589.000    593.572     -4.572    502.740    593.015    503.284    502.740    502.740
112.870    585.029    595.241    -10.212    502.826    594.679    503.376    502.826    502.826
112.970    579.044    597.189    -18.145    502.917    596.621    503.473    502.917    502.917
113.070    630.000    599.395     30.605    503.013    598.820    503.575    503.013    503.013
113.170    580.972    601.851    -20.879    503.114    601.270    503.682    503.114    503.114
113.270    638.000    604.566     33.434    503.220    603.979    503.794    503.220    503.220
113.370    613.000    607.564      5.436    503.331    606.969    503.912    503.331    503.331
113.470    645.000    610.886     34.114    503.447    610.283    504.036    503.447    503.447
113.570    651.666    614.588     37.078    503.568    613.975    504.166    503.568    503.568
113.670    654.868    618.749     36.119    503.694    618.124    504.304    503.694    503.694
113.770    596.000    623.472    -27.472    503.825    622.831    504.450    503.825    503.825
113.870    611.933    628.889    -16.956    503.962    628.229    504.605    503.962    503.962
113.970    638.183    635.171      3.011    504.103    634.487    504.769    504.103    504.103
114.070    659.000    642.539     16.461    504.250    641.825    504.944    504.250    504.250
114.170    644.700    651.269     -6.568    504.402    650.518    505.131    504.402    504.402
114.270    617.000    661.714    -44.714    504.560    660.918    505.331    504.560    504.560
114.370    697.807    674.316     23.491    504.722    673.465    505.545    504.722    504.722
114.470    655.000    689.623    -34.623    504.891    688.705    505.775    504.891    504.891
114.570    722.592    708.306     14.285    505.064    707.310    506.023    505.064    505.064
114.670    718.753    731.183    -12.429    505.243    730.092    506.289    505.243    505.243
114.770    728.000    759.229    -31.229    505.428    758.028    506.575    505.428    505.428
114.870    816.000    793.599     22.401    505.618    792.269    506.884    505.618    505.618
114.970    811.472    835.631    -24.158    505.814    834.152    507.216    505.814    505.814
115.070    944.014    886.856     57.158    506.015    885.206    507.573    506.015    506.015
115.170    880.000    948.992    -68.992    506.222    947.146    507.956    506.222    506.222
115.270    979.000   1023.926    -44.926    506.435   1021.860    508.367    506.435    506.435
115.370   1102.355   1113.687    -11.332    506.654   1111.373    508.807    506.654    506.654
115.470   1220.748   1220.397      0.351    506.878   1217.809    509.275    506.878    506.878
115.570   1322.247   1346.216    -23.968    507.109   1343.325    509.773    507.109    507.109
115.670   1501.888   1493.252      8.636    507.345   1490.031    510.301    507.345    507.345
115.770   1607.601   1663.472    -55.871    507.587   1659.894    510.857    507.587    507.587
115.870   1872.440   1858.589     13.851    507.835   1854.628    511.441    507.835    507.835
115.970   2013.000   2079.934    -66.934    508.089   2075.566    512.051    508.089    508.089
116.070   2429.802   2328.331    101.470    508.349   2323.537    512.684    508.349    508.349
116.170   2598.000   2603.964     -5.964    508.616   2598.727    513.338    508.616    508.616
116.270   2939.000   2906.248     32.752    508.888   2900.556    514.009    508.888    508.888
116.370   3340.865   3233.697    107.168    509.167   3227.546    514.691    509.167    509.167
116.470   3577.000   3583.938     -6.938    509.452   3577.329    515.380    509.452    509.452
116.570   3843.755   3953.542   -109.787    509.743   3946.482    516.074    509.743    509.743
116.670   4296.000   4337.988    -41.988    510.040   4330.491    516.765    510.040    510.040
116.770   4663.851   4731.728    -67.877    510.344   4723.814    517.450    510.344    510.344
116.870   4919.000   5128.205   -209.205    510.654   5119.899    518.126    510.654    510.654
116.970   5364.400   5519.936   -155.536    510.971   5511.269    518.789    510.971    510.971
117.070   5766.000   5898.631   -132.631    511.294   5889.638    519.437    511.294    511.294
117.170   6192.429   6255.370    -62.941    511.623   6246.090    520.066    511.623    511.623
117.270   6604.000   6580.852     23.148    511.960   6571.328    520.676    511.960    511.960
117.370   6773.068   6865.739    -92.671    512.302   6856.017    521.262    512.302    512.302
117.470   7142.000   7101.107     40.893    512.652   7091.236    521.822    512.652    512.652
117.570   7264.000   7279.011    -15.011    513.008   7269.041    522.352    513.008    513.008
117.670   7344.000   7393.106    -49.106    513.371   7383.090    522.851    513.371    513.371
117.770   7336.000   7439.239   -103.239    513.741   7429.229    523.314    513.741    513.741
117.870   7483.000   7415.885     67.115    514.117   7405.929    523.742    514.117    514.117
117.970   7265.381   7324.307    -58.927    514.501   7314.451    524.131    514.501    514.501
118.070   7146.325   7168.414    -22.089    514.891   7158.699    524.484    514.891    514.891
118.170   6894.479   6954.338    -59.860    515.289   6944.801    524.800    515.289    515.289
118.270   6565.000   6689.848   -124.848    515.693   6680.522    525.080    515.693    515.693
118.370   6355.000   6383.723    -28.723    516.105   6374.637    525.325    516.105    516.105
118.470   6201.610   6045.180    156.430    516.523   6036.362    525.538    516.523    516.523
118.570   5560.594   5683.412   -122.818    516.949   5674.887    525.721    516.949    516.949
118.670   5279.000   5307.238    -28.238    517.382   5299.026    525.876    517.382    517.382
118.770   4853.437   4924.843    -71.406    517.822   4916.963    526.007    517.822    517.822
118.870   4655.000   4543.603    111.397    518.270   4536.070    526.119    518.270    518.270
118.970   4235.830   4169.960     65.870    518.724   4162.785    526.217    518.724    518.724
119.070   3787.145   3809.344    -22.199    519.187   3802.534    526.307    519.187    519.187
119.170   3520.000   3466.140     53.860    519.656   3459.695    526.395    519.656    519.656
119.270   3121.418   3143.690    -22.272    520.134   3137.609    526.489    520.134    520.134
119.370   2973.000   2844.342    128.658    520.618   2838.615    526.594    520.618    520.618
119.470   2614.000   2569.519     44.481    521.110   2564.135    526.716    521.110    521.110
119.570   2351.000   2319.828     31.172    521.610   2314.769    526.860    521.610    521.610
119.670   2055.469   2095.171    -39.702    522.118   2090.419    527.032    522.118    522.118
119.770   1905.000   1894.875     10.125    522.633   1890.407    527.236    522.633    522.633
119.870   1725.000   1717.814      7.186    523.156   1713.603    527.475    523.156    523.156
119.970   1585.000   1562.522     22.478    523.687   1558.541    527.752    523.687    523.687
120.070   1409.726   1427.305    -17.579    524.226   1423.523    528.071    524.226    524.226
120.170   1328.856   1310.333     18.523    524.772   1306.718    528.433    524.772    524.772
120.270   1205.781   1209.726     -3.945    525.327   1206.243    528.839    525.327    525.327
120.370   1160.000   1123.620     36.380    525.889   1120.234    529.292    525.889    525.889
120.470    993.000   1050.227    -57.227    526.460   1046.900    529.793    526.460    526.460
120.570   1006.018    987.872     18.146    527.039    984.569    530.341    527.039    527.039
120.670    970.000    935.028     34.972    527.626    931.708    530.939    527.626    527.626
120.770    884.885    890.324     -5.438    528.221    886.949    531.586    528.221    528.221
120.870    839.000    852.555    -13.555    528.824    849.084    532.283    528.824    528.824
120.970    868.832    820.679     48.153    529.436    817.070    533.031    529.436    529.436
121.070    823.000    793.804     29.196    530.056    790.015    533.831    530.056    530.056
121.170    729.000    771.178    -42.178    530.684    767.165    534.684    530.684    530.684
121.270    802.000    752.174     49.826    531.321    747.892    535.590    531.321    531.321
121.370    697.484    736.271    -38.787    531.966    731.674    536.551    531.966    531.966
121.470    718.000    723.039     -5.039    532.620    718.080    537.569    532.620    532.620
121.570    687.000    712.127    -25.127    533.282    706.756    538.645    533.282    533.282
121.670    673.000    703.246    -30.246    533.953    697.413    539.780    533.953    533.953
121.770    683.000    696.158    -13.158    534.633    689.810    540.976    534.633    534.633
121.870    654.881    690.667    -35.786    535.322    683.750    542.235    535.322    535.322
121.970    699.203    686.611     12.592    536.019    679.069    543.558    536.019    536.019
122.070    650.975    683.849    -32.874    536.725    675.627    544.947    536.725    536.725
122.170    620.000    682.265    -62.265    537.440    673.303    546.403    537.440    537.440
122.270    667.802    681.753    -13.951    538.164    671.993    547.927    538.164    538.164
122.370    664.000    682.220    -18.220    538.897    671.600    549.520    538.897    538.897
122.470    643.000    683.576    -40.576    539.639    672.038    551.183    539.639    539.639
122.570    659.046    685.738    -26.692    540.391    673.222    552.914    540.391    540.391
122.670    717.395    688.620     28.775    541.151    675.069    554.710    541.151    541.151
122.770    668.000    692.136    -24.136    541.921    677.498    556.569    541.921    541.921
122.870    668.000    696.197    -28.197    542.699    680.425    558.485    542.699    542.699
122.970    691.000    700.707     -9.707    543.488    683.761    560.449    543.488    543.488
123.070    694.000    705.565    -11.565    544.285    687.416    562.452    544.285    544.285
123.170    675.627    710.663    -35.036    545.092    691.294    564.481    545.092    545.092
123.270    760.261    715.888     44.374    545.908    695.296    566.524    545.908    545.908
123.370    729.981    721.117      8.865    546.734    699.315    568.562    546.734    546.734
123.470    741.000    726.223     14.777    547.570    703.244    570.578    547.570    547.570
123.570    695.542    731.077    -35.536    548.415    706.972    572.553    548.415    548.415
123.670    755.000    735.547     19.453    549.270    710.387    574.465    549.270    549.270
123.770    696.379    739.499    -43.119    550.134    713.377    576.293    550.134    550.134
123.870    779.000    742.783     36.217    551.009    715.815    578.016    551.009    551.009
123.970    815.000    745.348     69.652    551.893    717.666    579.617    551.893    551.893
124.070    697.000    747.092    -50.092    552.787    718.844    581.079    552.787    552.787
124.170    790.000    747.940     42.060    553.691    719.289    582.388    553.691    553.691
124.270    706.000    747.856    -41.856    554.605    718.972    583.536    554.605    554.605
124.370    781.000    746.835     34.165    555.529    717.892    584.520    555.529    555.529
124.470    785.000    744.899     40.101    556.464    716.072    585.339    556.464    556.464
124.570    820.000    742.096     77.904    557.408    713.554    585.998    557.408    557.408
124.670    709.000    738.493    -29.493    558.363    710.399    586.504    558.363    558.363
124.770    769.578    734.172     35.406    559.328    706.679    586.868    559.328    559.328
124.870    676.167    729.227    -53.060    560.303    702.474    587.101    560.303    560.303
124.970    757.081    723.753     33.328    561.288    697.867    587.218    561.288    561.288
