neutron_powder_diffraction_0085
R_wp: 4.477
Temperature (K): 817.758
Counts: 83342.00
Wavelength (Ã…): 2.52098
COMMENTS
Test file for demonstrating the .xyy file format in Reel1.0
END OF HEADER
   tth       Y_obs     Y_calc      Y_res    Background    Phase_1_Nuc    Phase_1_Mag    Phase_2_Nuc    Phase_2_Mag
  9.970    621.000    570.583     50.417    569.474    570.582    569.474    569.474    569.474
 10.070    643.000    571.191     71.809    569.993    571.190    569.993    569.993    569.993
 10.170    633.000    571.800     61.200    570.501    571.800    570.501    570.501    570.501
 10.270    629.000    572.415     56.585    570.998    572.414    570.998    570.998    570.998
 10.370    556.782    573.036    -16.254    571.485    573.036    571.485    571.485    571.485
 10.470    592.707    573.671     19.036    571.961    573.670    571.961    571.961    571.961
 10.570    583.000    574.325      8.675    572.426    574.324    572.426    572.426    572.426
 10.670    523.875    575.000    -51.125    572.881    574.999    572.881    572.881    572.881
 10.770    653.000    575.707     77.293    573.326    575.706    573.326    573.326    573.326
 10.870    595.789    576.461     19.328    573.761    576.459    573.761    573.761    573.761
 10.970    579.216    577.276      1.940    574.186    577.274    574.186    574.186    574.186
 11.070    617.441    578.177     39.265    574.600    578.175    574.600    574.600    574.600
 11.170    625.000    579.197     45.803    575.005    579.194    575.005    575.005    575.005
 11.270    584.000    580.386      3.614    575.399    580.384    575.399    575.399    575.399
 11.370    617.000    581.831     35.169    575.784    581.828    575.784    575.784    575.784
 11.470    619.000    583.700     35.300    576.159    583.696    576.159    576.159    576.159
 11.570    596.497    586.395     10.102    576.524    586.389    576.524    576.524    576.524
 11.670    618.000    590.881     27.119    576.880    590.874    576.880    576.880    576.880
 11.770    549.429    599.231    -49.802    577.226    599.219    577.226    577.226    577.226
 11.870    666.000    614.288     51.712    577.563    614.268    577.563    577.563    577.563
 11.970    666.000    639.037     26.963    577.891    639.004    577.891    577.891    577.891
 12.070    646.502    673.049    -26.547    578.209    672.997    578.209    578.209    578.209
 12.170    681.000    707.754    -26.754    578.518    707.684    578.518    578.518    578.518
 12.270    717.000    724.300     -7.300    578.818    724.220    578.818    578.818    578.818
 12.370    639.000    709.577    -70.577    579.108    709.506    579.108    579.108    579.108
 12.470    607.000    675.911    -68.911    579.390    675.858    579.390    579.390    579.390
 12.570    622.205    642.256    -20.051    579.663    642.222    579.663    579.663    579.663
 12.670    613.000    617.638     -4.638    579.927    617.618    579.927    579.927    579.927
 12.770    609.490    602.801      6.690    580.182    602.788    580.182    580.182    580.182
 12.870    564.000    594.920    -30.920    580.428    594.912    580.428    580.428    580.428
 12.970    509.000    590.907    -81.907    580.666    590.901    580.666    580.666    580.666
 13.070    555.000    588.747    -33.747    580.896    588.743    580.896    580.896    580.896
 13.170    619.000    587.448     31.552    581.116    587.444    581.116    581.116    581.116
 13.270    567.000    586.602    -19.602    581.329    586.600    581.329    581.329    581.329
 13.370    550.000    586.020    -36.020    581.533    586.018    581.533    581.533    581.533
 13.470    576.000    585.599     -9.599    581.729    585.597    581.729    581.729    581.729
 13.570    561.000    585.299    -24.299    581.916    585.298    581.916    581.916    581.916
 13.670    623.281    585.089     38.192    582.096    585.087    582.096    582.096    582.096
 13.770    581.496    584.943     -3.447    582.267    584.942    582.267    582.267    582.267
 13.870    575.000    584.846     -9.846    582.431    584.845    582.431    582.431    582.431
 13.970    615.533    584.785     30.748    582.586    584.784    582.586    582.586    582.586
 14.070    610.782    584.751     26.031    582.734    584.750    582.734    582.734    582.734
 14.170    562.000    584.737    -22.737    582.874    584.736    582.874    582.874    582.874
 14.270    571.000    584.738    -13.738    583.006    584.737    583.006    583.006    583.006
 14.370    534.000    584.750    -50.750    583.131    584.749    583.131    583.131    583.131
 14.470    583.000    584.772     -1.772    583.248    584.772    583.248    583.248    583.248
 14.570    578.000    584.800     -6.800    583.357    584.799    583.357    583.357    583.357
 14.670    565.601    584.828    -19.227    583.459    584.827    583.459    583.459    583.459
 14.770    584.000    584.858     -0.858    583.554    584.857    583.554    583.554    583.554
 14.870    574.000    584.888    -10.888    583.641    584.887    583.641    583.641    583.641
 14.970    578.000    584.917     -6.917    583.721    584.917    583.721    583.721    583.721
 15.070    569.000    584.946    -15.946    583.794    584.945    583.794    583.794    583.794
 15.170    554.102    584.979    -30.876    583.860    584.978    583.860    583.860    583.860
 15.270    566.000    585.074    -19.074    583.919    585.074    583.919    583.919    583.919
 15.370    573.000    585.109    -12.109    583.971    585.108    583.971    583.971    583.971
 15.470    559.000    585.126    -26.126    584.016    585.126    584.016    584.016    584.016
 15.570    607.788    585.140     22.649    584.054    585.139    584.054    584.054    584.054
 15.670    565.707    585.149    -19.442    584.085    585.149    584.085    584.085    584.085
 15.770    531.000    585.154    -54.154    584.110    585.154    584.110    584.110    584.110
 15.870    587.845    585.161      2.684    584.128    585.161    584.128    584.128    584.128
 15.970    612.514    585.158     27.356    584.139    585.158    584.139    584.139    584.139
 16.070    521.000    585.149    -64.149    584.144    585.149    584.144    584.144    584.144
 16.170    558.000    585.135    -27.135    584.142    585.135    584.142    584.142    584.142
 16.270    607.434    585.117     22.317    584.134    585.117    584.134    584.134    584.134
 16.370    560.153    585.105    -24.952    584.120    585.105    584.120    584.120    584.120
 16.470    596.000    585.085     10.915    584.099    585.085    584.099    584.099    584.099
 16.570    538.000    585.113    -47.113    584.072    585.113    584.072    584.072    584.072
 16.670    554.000    585.081    -31.081    584.039    585.081    584.039    584.039    584.039
 16.770    572.000    585.037    -13.037    584.000    585.037    584.000    584.000    584.000
 16.870    562.039    584.988    -22.949    583.955    584.988    583.955    583.955    583.955
 16.970    561.000    584.934    -23.934    583.904    584.934    583.904    583.904    583.904
 17.070    621.046    584.875     36.171    583.847    584.875    583.847    583.847    583.847
 17.170    631.000    584.812     46.188    583.784    584.812    583.784    583.784    583.784
 17.270    563.000    584.763    -21.763    583.715    584.763    583.715    583.715    583.715
 17.370    595.000    584.711     10.289    583.641    584.711    583.641    583.641    583.641
 17.470    583.000    584.634     -1.634    583.561    584.634    583.561    583.561    583.561
 17.570    577.000    584.549     -7.549    583.475    584.549    583.475    583.475    583.475
 17.670    567.000    584.460    -17.460    583.384    584.460    583.384    583.384    583.384
 17.770    591.000    584.366      6.634    583.287    584.366    583.287    583.287    583.287
 17.870    572.000    584.266    -12.266    583.185    584.266    583.185    583.185    583.185
 17.970    553.000    584.165    -31.165    583.077    584.164    583.077    583.077    583.077
 18.070    625.830    584.079     41.752    582.964    584.079    582.964    582.964    582.964
 18.170    582.000    583.980     -1.980    582.846    583.980    582.846    582.846    582.846
 18.270    570.000    583.898    -13.898    582.723    583.898    582.723    582.723    582.723
 18.370    538.000    583.779    -45.779    582.595    583.779    582.595    582.595    582.595
 18.470    585.000    583.654      1.346    582.461    583.654    582.461    582.461    582.461
 18.570    637.000    583.544     53.456    582.322    583.543    582.322    582.322    582.322
 18.670    509.000    583.473    -74.473    582.179    583.473    582.179    582.179    582.179
 18.770    550.521    583.349    -32.828    582.030    583.349    582.030    582.030    582.030
 18.870    539.000    583.206    -44.206    581.877    583.206    581.877    581.877    581.877
 18.970    536.000    583.068    -47.068    581.719    583.068    581.719    581.719    581.719
 19.070    627.492    582.920     44.572    581.556    582.920    581.556    581.556    581.556
 19.170    559.000    582.768    -23.768    581.388    582.768    581.388    581.388    581.388
 19.270    577.657    582.651     -4.994    581.216    582.651    581.216    581.216    581.216
 19.370    546.000    582.513    -36.513    581.039    582.513    581.039    581.039    581.039
 19.470    633.742    582.350     51.393    580.858    582.350    580.858    580.858    580.858
 19.570    569.000    582.178    -13.178    580.672    582.178    580.672    580.672    580.672
 19.670    532.000    582.001    -50.001    580.482    582.001    580.482    580.482    580.482
 19.770    567.000    581.822    -14.822    580.287    581.822    580.287    580.287    580.287
 19.870    613.315    581.644     31.671    580.088    581.644    580.088    580.088    580.088
 19.970    609.000    581.458     27.542    579.885    581.458    579.885    579.885    579.885
 20.070    565.000    581.275    -16.275    579.677    581.275    579.677    579.677    579.677
 20.170    518.000    581.085    -63.085    579.465    581.085    579.465    579.465    579.465
 20.270    594.887    580.891     13.996    579.249    580.891    579.249    579.249    579.249
 20.370    536.338    580.694    -44.355    579.030    580.694    579.030    579.030    579.030
 20.470    595.996    580.490     15.506    578.806    580.490    578.806    578.806    578.806
 20.570    596.000    580.284     15.716    578.578    580.284    578.578    578.578    578.578
 20.670    565.000    580.074    -15.074    578.346    580.074    578.346    578.346    578.346
 20.770    555.000    579.862    -24.862    578.110    579.862    578.110    578.110    578.110
 20.870    545.980    579.648    -33.668    577.871    579.648    577.871    577.871    577.871
 20.970    551.000    579.433    -28.433    577.628    579.433    577.628    577.628    577.628
 21.070    593.248    579.217     14.031    577.381    579.217    577.381    577.381    577.381
 21.170    571.000    578.996     -7.996    577.130    578.996    577.130    577.130    577.130
 21.270    585.000    578.772      6.228    576.876    578.772    576.876    576.876    576.876
 21.370    587.000    578.547      8.453    576.618    578.547    576.618    576.618    576.618
 21.470    545.183    578.320    -33.136    576.357    578.320    576.357    576.357    576.357
 21.570    582.000    578.091      3.909    576.092    578.092    576.092    576.092    576.092
 21.670    634.000    577.862     56.138    575.824    577.862    575.824    575.824    575.824
 21.770    568.000    577.632     -9.632    575.552    577.632    575.552    575.552    575.552
 21.870    560.000    577.402    -17.402    575.277    577.402    575.277    575.277    575.277
 21.970    621.112    577.171     43.941    574.999    577.171    574.999    574.999    574.999
 22.070    617.000    576.941     40.059    574.718    576.941    574.718    574.718    574.718
 22.170    593.000    576.712     16.288    574.433    576.712    574.433    574.433    574.433
 22.270    613.930    576.484     37.445    574.145    576.484    574.145    574.145    574.145
 22.370    542.000    576.259    -34.259    573.854    576.259    573.854    573.854    573.854
 22.470    592.252    576.036     16.215    573.560    576.037    573.560    573.560    573.560
 22.570    629.000    575.819     53.181    573.264    575.819    573.264    573.264    573.264
 22.670    564.000    575.607    -11.607    572.964    575.607    572.964    572.964    572.964
 22.770    532.000    575.400    -43.400    572.661    575.401    572.661    572.661    572.661
 22.870    577.000    575.202      1.798    572.355    575.203    572.355    572.355    572.355
 22.970    598.201    575.015     23.186    572.047    575.016    572.047    572.047    572.047
 23.070    586.000    574.841     11.159    571.736    574.842    571.736    571.736    571.736
 23.170    611.955    574.684     37.272    571.422    574.684    571.422    571.422    571.422
 23.270    573.000    574.547     -1.547    571.105    574.548    571.105    571.105    571.105
 23.370    561.000    574.439    -13.439    570.786    574.440    570.786    570.786    570.786
 23.470    569.000    574.366     -5.366    570.464    574.367    570.464    570.464    570.464
 23.570    575.000    574.339      0.661    570.139    574.340    570.139    570.139    570.139
 23.670    584.000    574.372      9.628    569.812    574.373    569.812    569.812    569.812
 23.770    591.000    574.486     16.514    569.483    574.488    569.483    569.483    569.483
 23.870    566.000    574.715     -8.715    569.151    574.717    569.151    569.151    569.151
 23.970    550.000    575.111    -25.111    568.816    575.113    568.816    568.816    568.816
 24.070    581.424    575.777      5.647    568.480    575.781    568.480    568.480    568.480
 24.170    635.000    576.955     58.045    568.141    576.959    568.141    568.141    568.141
 24.270    595.000    579.197     15.803    567.800    579.203    567.800    567.800    567.800
 24.370    607.000    583.614     23.386    567.456    583.624    567.456    567.456    567.456
 24.470    622.000    591.951     30.049    567.111    591.967    567.111    567.111    567.111
 24.570    658.000    605.998     52.002    566.763    606.024    566.763    566.763    566.763
 24.670    645.000    625.963     19.037    566.413    626.004    566.413    566.413    566.413
 24.770    638.000    647.898     -9.898    566.061    647.956    566.061    566.061    566.061
 24.870    714.000    662.027     51.973    565.707    662.095    565.707    565.707    565.707
 24.970    662.000    658.935      3.065    565.351    659.001    565.351    565.351    565.351
 25.070    597.397    640.870    -43.473    564.993    640.923    564.993    564.993    564.993
 25.170    680.000    618.390     61.610    564.634    618.427    564.634    564.634    564.634
 25.270    595.000    599.526     -4.526    564.272    599.549    564.272    564.272    564.272
 25.370    585.000    586.758     -1.758    563.908    586.772    563.908    563.908    563.908
 25.470    580.356    579.232      1.123    563.543    579.241    563.543    563.543    563.543
 25.570    595.000    575.080     19.920    563.176    575.086    563.176    563.176    563.176
 25.670    617.000    572.735     44.265    562.808    572.739    562.808    562.808    562.808
 25.770    546.760    571.273    -24.513    562.437    571.276    562.437    562.437    562.437
 25.870    561.107    570.253     -9.147    562.065    570.256    562.065    562.065    562.065
 25.970    574.000    569.491      4.509    561.692    569.492    561.692    561.692    561.692
 26.070    629.000    568.902     60.098    561.316    568.904    561.316    561.316    561.316
 26.170    626.000    568.448     57.552    560.940    568.449    560.940    560.940    560.940
 26.270    594.265    568.105     26.161    560.562    568.105    560.562    560.562    560.562
 26.370    525.989    567.861    -41.872    560.182    567.862    560.182    560.182    560.182
 26.470    608.000    567.713     40.287    559.801    567.713    559.801    559.801    559.801
 26.570    580.000    567.661     12.339    559.418    567.661    559.418    559.418    559.418
 26.670    599.000    567.713     31.287    559.035    567.713    559.035    559.035    559.035
 26.770    548.043    567.881    -19.839    558.650    567.881    558.650    558.650    558.650
 26.870    528.412    568.187    -39.775    558.263    568.186    558.263    558.263    558.263
 26.970    620.000    568.659     51.341    557.876    568.658    557.876    557.876    557.876
 27.070    624.000    569.338     54.662    557.487    569.337    557.487    557.487    557.487
 27.170    598.000    570.285     27.715    557.097    570.284    557.097    557.097    557.097
 27.270    549.230    571.586    -22.356    556.706    571.585    556.706    556.706    556.706
 27.370    656.000    573.379     82.621    556.314    573.377    556.314    556.314    556.314
 27.470    532.121    575.910    -43.789    555.921    575.907    555.921    555.921    555.921
 27.570    654.000    579.732     74.268    555.526    579.728    555.526    555.526    555.526
 27.670    587.740    586.213      1.527    555.131    586.207    555.131    555.131    555.131
 27.770    613.000    598.555     14.445    554.735    598.544    554.735    554.735    554.735
 27.870    647.916    622.881     25.034    554.338    622.862    554.338    554.338    554.338
 27.970    663.422    667.608     -4.185    553.940    667.574    553.940    553.940    553.940
 28.070    716.000    738.487    -22.487    553.541    738.435    553.541    553.541    553.541
 28.170    835.897    828.867      7.030    553.141    828.798    553.141    553.141    553.141
 28.270    947.000    910.075     36.925    552.741    910.002    552.741    552.741    552.741
 28.370    937.233    938.596     -1.363    552.339    938.536    552.339    552.339    552.339
 28.470    936.000    898.775     37.225    551.937    898.734    551.937    551.937    551.937
 28.570    843.000    829.737     13.263    551.535    829.709    551.535    551.535    551.535
 28.670    751.000    779.364    -28.364    551.131    779.342    551.131    551.131    551.131
 28.770    804.000    769.347     34.653    550.727    769.327    550.727    550.727    550.727
 28.870    778.000    794.238    -16.238    550.323    794.220    550.323    550.323    550.323
 28.970    796.721    827.338    -30.617    549.917    827.328    549.917    549.917    549.917
 29.070    782.520    833.130    -50.610    549.512    833.131    549.512    549.512    549.512
 29.170    834.000    795.731     38.269    549.105    795.740    549.105    549.105    549.105
 29.270    766.835    734.198     32.637    548.698    734.208    548.698    548.698    548.698
 29.370    657.604    674.663    -17.059    548.291    674.670    548.291    548.291    548.291
 29.470    645.000    629.913     15.087    547.884    629.917    547.884    547.884    547.884
 29.570    588.000    601.307    -13.307    547.475    601.308    547.475    547.475    547.475
 29.670    603.000    584.841     18.159    547.067    584.841    547.067    547.067    547.067
 29.770    631.000    575.686     55.314    546.658    575.685    546.658    546.658    546.658
 29.870    645.000    570.361     74.639    546.249    570.359    546.249    546.249    546.249
 29.970    649.000    566.978     82.022    545.840    566.976    545.840    545.840    545.840
 30.070    661.000    564.692     96.308    545.430    564.690    545.430    545.430    545.430
 30.170    523.170    563.190    -40.020    545.020    563.187    545.020    545.020    545.020
 30.270    622.000    562.439     59.561    544.610    562.435    544.610    544.610    544.610
 30.370    580.000    562.663     17.337    544.200    562.658    544.200    544.200    544.200
 30.470    601.000    564.418     36.582    543.789    564.410    543.789    543.789    543.789
 30.570    576.000    568.617      7.383    543.379    568.606    543.379    543.379    543.379
 30.670    524.806    576.294    -51.488    542.968    576.276    542.968    542.968    542.968
 30.770    603.825    587.926     15.899    542.558    587.900    542.558    542.558    542.558
 30.870    651.000    602.341     48.659    542.147    602.306    542.147    542.147    542.147
 30.970    660.000    615.406     44.594    541.736    615.364    541.736    541.736    541.736
 31.070    624.058    620.268      3.790    541.325    620.226    541.325    541.325    541.325
 31.170    609.363    613.122     -3.760    540.915    613.085    540.915    540.915    540.915
 31.270    616.665    598.384     18.280    540.504    598.356    540.504    540.504    540.504
 31.370    633.000    582.876     50.124    540.093    582.857    540.093    540.093    540.093
 31.470    546.960    570.382    -23.422    539.683    570.370    539.683    539.683    539.683
 31.570    611.961    561.804     50.157    539.273    561.796    539.273    539.273    539.273
 31.670    519.775    556.523    -36.748    538.863    556.517    538.863    538.863    538.863
 31.770    606.000    553.454     52.546    538.453    553.450    538.453    538.453    538.453
 31.870    592.000    551.665     40.335    538.043    551.662    538.043    538.043    538.043
 31.970    577.141    550.573     26.568    537.634    550.570    537.634    537.634    537.634
 32.070    516.767    549.879    -33.112    537.224    549.877    537.224    537.224    537.224
 32.170    544.000    549.453     -5.453    536.815    549.451    536.815    536.815    536.815
 32.270    575.000    549.243     25.757    536.407    549.241    536.407    536.407    536.407
 32.370    592.000    549.231     42.769    535.999    549.229    535.999    535.999    535.999
 32.470    594.000    549.421     44.579    535.591    549.420    535.591    535.591    535.591
 32.570    606.000    549.831     56.169    535.183    549.830    535.183    535.183    535.183
 32.670    582.000    550.492     31.508    534.776    550.491    534.776    534.776    534.776
 32.770    569.000    551.454     17.546    534.369    551.452    534.369    534.369    534.369
 32.870    504.794    552.788    -47.995    533.963    552.787    533.963    533.963    533.963
 32.970    555.578    554.602      0.976    533.557    554.600    533.557    533.557    533.557
 33.070    618.000    557.060     60.940    533.152    557.058    533.152    533.152    533.152
 33.170    543.519    560.453    -16.935    532.747    560.451    532.747    532.747    532.747
 33.270    585.477    565.348     20.128    532.343    565.345    532.343    532.343    532.343
 33.370    532.723    572.927    -40.204    531.939    572.923    531.939    531.939    531.939
 33.470    542.463    585.548    -43.085    531.536    585.542    531.536    531.536    531.536
 33.570    593.647    607.352    -13.705    531.134    607.343    531.134    531.134    531.134
 33.670    682.000    644.291     37.709    530.732    644.276    530.732    530.732    530.732
 33.770    676.000    702.595    -26.595    530.331    702.573    530.331    530.331    530.331
 33.870    727.000    785.059    -58.059    529.930    785.027    529.930    529.930    529.930
 33.970    833.000    885.136    -52.136    529.530    885.095    529.530    529.530    529.530
 34.070    932.187    979.468    -47.281    529.131    979.424    529.131    529.131    529.131
 34.170    964.756   1027.563    -62.807    528.733   1027.527    528.733    528.733    528.733
 34.270    954.000   1000.991    -46.991    528.335   1000.972    528.335    528.335    528.335
 34.370    959.190    916.573     42.617    527.938    916.568    527.938    527.938    527.938
 34.470    748.000    814.627    -66.627    527.542    814.631    527.542    527.542    527.542
 34.570    759.221    724.431     34.791    527.147    724.437    527.147    527.147    527.147
 34.670    658.000    657.343      0.657    526.752    657.347    526.752    526.752    526.752
 34.770    590.000    613.022    -23.022    526.359    613.025    526.359    526.359    526.359
 34.870    590.766    585.940      4.826    525.966    585.941    525.966    525.966    525.966
 34.970    566.000    569.846     -3.846    525.574    569.846    525.574    525.574    525.574
 35.070    562.000    559.974      2.026    525.183    559.974    525.183    525.183    525.183
 35.170    571.000    553.432     17.568    524.793    553.431    524.793    524.793    524.793
 35.270    541.000    548.706     -7.706    524.404    548.705    524.404    524.404    524.404
 35.370    531.000    545.060    -14.060    524.015    545.060    524.015    524.015    524.015
 35.470    528.763    542.128    -13.366    523.628    542.128    523.628    523.628    523.628
 35.570    522.415    539.707    -17.292    523.242    539.707    523.242    523.242    523.242
 35.670    559.267    537.669     21.597    522.857    537.669    522.857    522.857    522.857
 35.770    515.000    535.927    -20.927    522.472    535.927    522.472    522.472    522.472
 35.870    544.890    534.418     10.472    522.089    534.418    522.089    522.089    522.089
 35.970    489.000    533.095    -44.095    521.707    533.095    521.707    521.707    521.707
 36.070    484.482    531.923    -47.441    521.326    531.922    521.326    521.326    521.326
 36.170    479.000    530.875    -51.875    520.946    530.875    520.946    520.946    520.946
 36.270    513.000    529.931    -16.931    520.567    529.931    520.567    520.567    520.567
 36.370    496.078    529.076    -32.998    520.189    529.076    520.189    520.189    520.189
 36.470    513.810    528.299    -14.489    519.813    528.299    519.813    519.813    519.813
 36.570    507.000    527.592    -20.592    519.437    527.592    519.437    519.437    519.437
 36.670    507.518    526.949    -19.431    519.063    526.949    519.063    519.063    519.063
 36.770    525.052    526.370     -1.319    518.690    526.370    518.690    518.690    518.690
 36.870    558.215    525.860     32.355    518.318    525.860    518.318    518.318    518.318
 36.970    566.833    525.436     41.397    517.947    525.436    517.947    517.947    517.947
 37.070    548.000    525.142     22.858    517.578    525.142    517.578    517.578    517.578
 37.170    503.000    525.073    -22.073    517.210    525.073    517.210    517.210    517.210
 37.270    491.376    525.399    -34.022    516.843    525.399    516.843    516.843    516.843
 37.370    525.000    526.358     -1.358    516.477    526.360    516.477    516.477    516.477
 37.470    545.000    528.185     16.815    516.112    528.187    516.112    516.112    516.112
 37.570    518.461    530.934    -12.473    515.749    530.936    515.749    515.749    515.749
 37.670    514.000    534.248    -20.248    515.387    534.252    515.387    515.387    515.387
 37.770    553.254    537.140     16.114    515.027    537.145    515.027    515.027    515.027
 37.870    459.000    538.180    -79.180    514.668    538.187    514.668    514.668    514.668
 37.970    526.000    536.646    -10.646    514.310    536.655    514.310    514.310    514.310
 38.070    518.619    533.363    -14.743    513.954    533.373    513.954    513.954    513.954
 38.170    514.000    529.593    -15.593    513.599    529.604    513.599    513.599    513.599
 38.270    505.000    526.117    -21.117    513.245    526.128    513.245    513.245    513.245
 38.370    522.000    523.279     -1.279    512.893    523.288    512.893    512.893    512.893
 38.470    455.000    521.151    -66.151    512.542    521.157    512.542    512.542    512.542
 38.570    494.000    519.621    -25.621    512.192    519.625    512.192    512.192    512.192
 38.670    472.403    518.517    -46.114    511.845    518.521    511.845    511.845    511.845
 38.770    493.000    517.692    -24.692    511.498    517.694    511.498    511.498    511.498
 38.870    489.000    517.041    -28.041    511.153    517.043    511.153    511.153    511.153
 38.970    541.122    516.499     24.623    510.809    516.500    510.809    510.809    510.809
 39.070    504.223    516.024    -11.801    510.467    516.025    510.467    510.467    510.467
 39.170    482.000    515.594    -33.594    510.127    515.595    510.127    510.127    510.127
 39.270    489.000    515.195    -26.195    509.788    515.195    509.788    509.788    509.788
 39.370    489.000    514.818    -25.818    509.450    514.819    509.450    509.450    509.450
 39.470    527.394    514.462     12.932    509.114    514.462    509.114    509.114    509.114
 39.570    519.000    514.121      4.879    508.780    514.122    508.780    508.780    508.780
 39.670    471.000    513.796    -42.796    508.447    513.796    508.447    508.447    508.447
 39.770    496.000    513.484    -17.484    508.115    513.485    508.115    508.115    508.115
 39.870    497.000    513.186    -16.186    507.786    513.187    507.786    507.786    507.786
 39.970    489.000    512.901    -23.901    507.458    512.902    507.458    507.458    507.458
 40.070    504.000    512.630     -8.630    507.131    512.631    507.131    507.131    507.131
 40.170    516.000    512.372      3.628    506.806    512.373    506.806    506.806    506.806
 40.270    480.000    512.129    -32.129    506.483    512.129    506.483    506.483    506.483
 40.370    510.000    511.901     -1.901    506.161    511.901    506.161    506.161    506.161
 40.470    544.000    511.689     32.311    505.841    511.690    505.841    505.841    505.841
 40.570    477.000    511.497    -34.497    505.522    511.498    505.522    505.522    505.522
 40.670    498.000    511.325    -13.325    505.205    511.326    505.205    505.205    505.205
 40.770    531.000    511.176     19.824    504.890    511.177    504.890    504.890    504.890
 40.870    531.355    511.055     20.300    504.577    511.056    504.577    504.577    504.577
 40.970    471.871    510.966    -39.095    504.265    510.967    504.265    504.265    504.265
 41.070    479.000    510.914    -31.914    503.955    510.915    503.955    503.955    503.955
 41.170    486.000    510.908    -24.908    503.646    510.909    503.646    503.646    503.646
 41.270    558.370    510.956     47.414    503.340    510.958    503.340    503.340    503.340
 41.370    513.000    511.073      1.927    503.035    511.075    503.035    503.035    503.035
 41.470    495.113    511.277    -16.164    502.731    511.279    502.731    502.731    502.731
 41.570    476.503    511.593    -35.090    502.430    511.596    502.430    502.430    502.430
 41.670    520.000    512.066      7.934    502.130    512.069    502.130    502.130    502.130
 41.770    480.000    512.774    -32.774    501.832    512.777    501.832    501.832    501.832
 41.870    556.000    513.866     42.134    501.536    513.870    501.536    501.536    501.536
 41.970    518.000    515.631      2.369    501.241    515.636    501.241    501.241    501.241
 42.070    481.000    518.582    -37.582    500.948    518.589    500.948    500.948    500.948
 42.170    518.000    523.527     -5.527    500.657    523.536    500.657    500.657    500.657
 42.270    469.000    531.527    -62.527    500.368    531.539    500.368    500.368    500.368
 42.370    545.000    543.641      1.359    500.080    543.660    500.080    500.080    500.080
 42.470    571.162    560.401     10.761    499.795    560.428    499.795    499.795    499.795
 42.570    615.452    581.046     34.406    499.511    581.084    499.511    499.511    499.511
 42.670    564.000    602.596    -38.596    499.228    602.646    499.228    499.228    499.228
 42.770    591.000    619.256    -28.256    498.948    619.317    498.948    498.948    498.948
 42.870    566.000    624.119    -58.119    498.670    624.186    498.670    498.670    498.670
 42.970    660.921    614.524     46.397    498.393    614.588    498.393    498.393    498.393
 43.070    590.573    595.015     -4.442    498.118    595.069    498.118    498.118    498.118
 43.170    550.000    572.745    -22.745    497.845    572.787    497.845    497.845    497.845
 43.270    529.697    552.690    -22.993    497.574    552.720    497.574    497.574    497.574
 43.370    555.000    536.998     18.002    497.304    537.019    497.304    497.304    497.304
 43.470    557.000    525.905     31.095    497.037    525.919    497.037    497.037    497.037
 43.570    491.000    518.624    -27.624    496.771    518.633    496.771    496.771    496.771
 43.670    550.215    514.042     36.172    496.507    514.049    496.507    496.507    496.507
 43.770    543.791    511.159     32.632    496.245    511.164    496.245    496.245    496.245
 43.870    483.000    509.263    -26.263    495.985    509.267    495.985    495.985    495.985
 43.970    487.000    507.925    -20.925    495.727    507.928    495.727    495.727    495.727
 44.070    550.006    506.911     43.095    495.471    506.914    495.471    495.471    495.471
 44.170    544.648    506.103     38.545    495.216    506.105    495.216    495.216    495.216
 44.270    495.000    505.438    -10.438    494.963    505.440    494.963    494.963    494.963
 44.370    461.000    504.879    -43.879    494.713    504.881    494.713    494.713    494.713
 44.470    549.825    504.406     45.420    494.464    504.407    494.464    494.464    494.464
 44.570    489.000    504.000    -15.000    494.217    504.002    494.217    494.217    494.217
 44.670    507.000    503.652      3.348    493.972    503.653    493.972    493.972    493.972
 44.770    494.000    503.353     -9.353    493.729    503.354    493.729    493.729    493.729
 44.870    502.000    503.096     -1.096    493.487    503.097    493.487    493.487    493.487
 44.970    525.000    502.877     22.123    493.248    502.878    493.248    493.248    493.248
 45.070    513.724    502.692     11.032    493.010    502.693    493.010    493.010    493.010
 45.170    535.000    502.539     32.461    492.775    502.540    492.775    492.775    492.775
 45.270    490.000    502.416    -12.416    492.541    502.416    492.541    492.541    492.541
 45.370    517.000    502.322     14.678    492.309    502.322    492.309    492.309    492.309
 45.470    537.000    502.257     34.743    492.079    502.257    492.079    492.079    492.079
 45.570    460.440    502.220    -41.780    491.852    502.220    491.852    491.852    491.852
 45.670    459.606    502.213    -42.607    491.626    502.213    491.626    491.626    491.626
 45.770    515.920    502.236     13.684    491.401    502.236    491.401    491.401    491.401
 45.870    496.000    502.292     -6.292    491.179    502.292    491.179    491.179    491.179
 45.970    568.000    502.383     65.617    490.959    502.383    490.959    490.959    490.959
 46.070    503.571    502.511      1.060    490.741    502.511    490.741    490.741    490.741
 46.170    530.000    502.682     27.318    490.524    502.681    490.524    490.524    490.524
 46.270    479.000    502.899    -23.899    490.310    502.899    490.310    490.310    490.310
 46.370    513.000    503.170      9.830    490.097    503.169    490.097    490.097    490.097
 46.470    481.950    503.502    -21.552    489.887    503.501    489.887    489.887    489.887
 46.570    506.000    503.907      2.093    489.678    503.906    489.678    489.678    489.678
 46.670    482.563    504.400    -21.838    489.471    504.399    489.471    489.471    489.471
 46.770    526.000    505.004     20.996    489.266    505.003    489.266    489.266    489.266
 46.870    495.000    505.758    -10.758    489.063    505.756    489.063    489.063    489.063
 46.970    486.000    506.731    -20.731    488.862    506.729    488.862    488.862    488.862
 47.070    462.520    508.052    -45.532    488.663    508.049    488.663    488.663    488.663
 47.170    485.000    509.949    -24.949    488.466    509.944    488.466    488.466    488.466
 47.270    537.000    512.787     24.213    488.271    512.781    488.271    488.271    488.271
 47.370    497.000    517.085    -20.085    488.078    517.076    488.078    488.078    488.078
 47.470    515.796    523.448     -7.652    487.887    523.435    487.887    487.887    487.887
 47.570    530.000    532.391     -2.391    487.697    532.372    487.697    487.697    487.697
 47.670    524.000    544.051    -20.051    487.510    544.024    487.510    487.510    487.510
 47.770    601.840    557.817     44.023    487.324    557.781    487.324    487.324    487.324
 47.870    567.000    571.921     -4.921    487.141    571.876    487.141    487.141    487.141
 47.970    599.000    583.201     15.799    486.959    583.151    486.959    486.959    486.959
 48.070    535.843    587.967    -52.123    486.780    587.915    486.780    486.780    486.780
 48.170    645.000    584.614     60.386    486.602    584.566    486.602    486.602    486.602
 48.270    545.000    575.270    -30.270    486.426    575.230    486.426    486.426    486.426
 48.370    518.269    563.782    -45.513    486.252    563.751    486.252    486.252    486.252
 48.470    508.210    553.203    -44.992    486.080    553.180    486.080    486.080    486.080
 48.570    553.000    545.170      7.830    485.910    545.155    485.910    485.910    485.910
 48.670    554.511    540.240     14.271    485.742    540.230    485.742    485.742    485.742
 48.770    579.390    538.305     41.085    485.576    538.298    485.576    485.576    485.576
 48.870    544.000    538.963      5.037    485.411    538.958    485.411    485.411    485.411
 48.970    514.663    541.815    -27.152    485.249    541.811    485.249    485.249    485.249
 49.070    509.000    546.671    -37.671    485.089    546.667    485.089    485.089    485.089
 49.170    507.000    553.721    -46.721    484.930    553.718    484.930    484.930    484.930
 49.270    613.152    563.821     49.331    484.773    563.817    484.773    484.773    484.773
 49.370    553.184    579.086    -25.902    484.619    579.081    484.619    484.619    484.619
 49.470    554.187    603.997    -49.810    484.466    603.990    484.466    484.466    484.466
 49.570    630.000    646.944    -16.944    484.315    646.930    484.315    484.315    484.315
 49.670    701.000    721.449    -20.449    484.166    721.426    484.166    484.166    484.166
 49.770    895.163    845.447     49.716    484.019    845.408    484.019    484.019    484.019
 49.870   1090.943   1036.596     54.346    483.874   1036.535    483.874    483.874    483.874
 49.970   1293.291   1302.945     -9.654    483.730   1302.861    483.730    483.730    483.730
 50.070   1552.514   1630.976    -78.462    483.589   1630.878    483.589    483.589    483.589
 50.170   1956.000   1974.797    -18.797    483.449   1974.704    483.449    483.449    483.449
 50.270   2221.655   2251.782    -30.127    483.312   2251.728    483.312    483.312    483.312
 50.370   2381.000   2362.870     18.130    483.176   2362.892    483.176    483.176    483.176
 50.470   2296.000   2258.488     37.512    483.042   2258.598    483.042    483.042    483.042
 50.570   1941.956   1987.030    -45.074    482.910   1987.204    482.910    482.910    482.910
 50.670   1602.782   1647.726    -44.945    482.780   1647.919    482.780    482.780    482.780
 50.770   1263.000   1324.358    -61.358    482.652   1324.536    482.652    482.652    482.652
 50.870    987.000   1064.006    -77.006    482.525   1064.152    482.525    482.525    482.525
 50.970    825.000    880.792    -55.792    482.401    880.904    482.401    482.401    482.401
 51.070    775.367    766.303      9.064    482.278    766.388    482.278    482.278    482.278
 51.170    665.000    701.317    -36.317    482.157    701.383    482.157    482.157    482.157
 51.270    661.000    665.279     -4.279    482.038    665.334    482.038    482.038    482.038
 51.370    665.087    642.058     23.029    481.921    642.105    481.921    481.921    481.921
 51.470    664.742    622.523     42.218    481.806    622.564    481.806    481.806    481.806
 51.570    627.904    603.941     23.963    481.693    603.974    481.693    481.693    481.693
 51.670    546.938    586.850    -39.912    481.581    586.876    481.581    481.581    481.581
 51.770    544.000    572.346    -28.346    481.471    572.365    481.471    481.471    481.471
 51.870    573.000    561.052     11.948    481.363    561.067    481.363    481.363    481.363
 51.970    571.000    553.011     17.989    481.257    553.022    481.257    481.257    481.257
 52.070    596.000    547.853     48.147    481.153    547.862    481.153    481.153    481.153
 52.170    576.000    545.051     30.949    481.050    545.058    481.050    481.050    481.050
 52.270    562.832    544.138     18.694    480.950    544.144    480.950    480.950    480.950
 52.370    550.872    544.850      6.022    480.851    544.855    480.851    480.851    480.851
 52.470    572.000    547.223     24.777    480.754    547.228    480.754    480.754    480.754
 52.570    577.000    551.690     25.310    480.658    551.695    480.658    480.658    480.658
 52.670    596.000    559.248     36.752    480.565    559.253    480.565    480.565    480.565
 52.770    561.889    571.675     -9.786    480.473    571.679    480.473    480.473    480.473
 52.870    616.068    591.718     24.351    480.383    591.722    480.383    480.383    480.383
 52.970    643.000    623.056     19.944    480.295    623.060    480.295    480.295    480.295
 53.070    668.300    669.804     -1.504    480.208    669.809    480.208    480.208    480.208
 53.170    744.344    735.374      8.970    480.124    735.380    480.124    480.124    480.124
 53.270    792.000    820.748    -28.748    480.041    820.757    480.041    480.041    480.041
 53.370    913.000    922.370     -9.370    479.960    922.384    479.960    479.960    479.960
 53.470   1048.000   1029.882     18.118    479.880   1029.904    479.880    479.880    479.880
 53.570   1170.000   1124.518     45.482    479.802   1124.551    479.802    479.802    479.802
 53.670   1241.998   1181.591     60.407    479.726   1181.636    479.726    479.726    479.726
 53.770   1214.000   1181.873     32.127    479.652   1181.928    479.652    479.652    479.652
 53.870   1089.933   1125.412    -35.479    479.580   1125.471    479.580    479.580    479.580
 53.970   1033.000   1031.487      1.513    479.509   1031.543    479.509    479.509    479.509
 54.070    951.000    924.772     26.228    479.440    924.821    479.440    479.440    479.440
 54.170    833.000    824.027      8.973    479.372    824.067    479.372    479.372    479.372
 54.270    755.000    739.585     15.415    479.306    739.615    479.306    479.306    479.306
 54.370    676.000    674.986      1.014    479.242    675.008    479.242    479.242    479.242
 54.470    596.000    629.243    -33.243    479.180    629.259    479.180    479.180    479.180
 54.570    602.000    598.946      3.054    479.119    598.958    479.119    479.119    479.119
 54.670    574.000    579.990     -5.990    479.060    579.999    479.060    479.060    479.060
 54.770    539.000    568.704    -29.704    479.003    568.711    479.003    479.003    479.003
 54.870    564.216    562.346      1.870    478.947    562.352    478.947    478.947    478.947
 54.970    580.000    559.128     20.872    478.893    559.133    478.893    478.893    478.893
 55.070    558.757    558.012      0.746    478.840    558.017    478.840    478.840    478.840
 55.170    562.333    558.459      3.874    478.789    558.464    478.789    478.789    478.789
 55.270    616.000    560.237     55.763    478.740    560.242    478.740    478.740    478.740
 55.370    549.000    563.294    -14.294    478.692    563.298    478.692    478.692    478.692
 55.470    516.619    567.712    -51.094    478.646    567.717    478.646    478.646    478.646
 55.570    602.296    573.718     28.578    478.602    573.723    478.602    478.602    478.602
 55.670    575.161    581.753     -6.593    478.559    581.759    478.559    478.559    478.559
 55.770    615.823    592.659     23.163    478.518    592.665    478.518    478.518    478.518
 55.870    590.000    607.997    -17.997    478.478    608.002    478.478    478.478    478.478
 55.970    604.651    630.555    -25.904    478.440    630.560    478.440    478.440    478.440
 56.070    616.456    664.991    -48.535    478.403    664.995    478.403    478.403    478.403
 56.170    686.340    718.403    -32.064    478.368    718.405    478.368    478.368    478.368
 56.270    778.000    800.405    -22.405    478.335    800.404    478.335    478.335    478.335
 56.370    974.739    922.132     52.607    478.303    922.129    478.303    478.303    478.303
 56.470    988.000   1093.716   -105.716    478.272   1093.712    478.272    478.272    478.272
 56.570   1248.000   1320.260    -72.260    478.243   1320.259    478.243    478.243    478.243
 56.670   1473.000   1596.922   -123.922    478.216   1596.930    478.216    478.216    478.216
 56.770   1805.000   1903.770    -98.770    478.190   1903.800    478.190    478.190    478.190
 56.870   2207.000   2201.184      5.816    478.165   2201.251    478.165    478.165    478.165
 56.970   2373.375   2429.294    -55.919    478.142   2429.415    478.142    478.142    478.142
 57.070   2464.479   2523.469    -58.990    478.121   2523.655    478.121    478.121    478.121
 57.170   2482.000   2451.670     30.330    478.101   2451.915    478.101    478.101    478.101
 57.270   2235.000   2239.768     -4.768    478.082   2240.045    478.082    478.082    478.082
 57.370   1979.000   1950.384     28.616    478.065   1950.659    478.065    478.065    478.065
 57.470   1678.000   1645.034     32.966    478.050   1645.280    478.050    478.050    478.050
 57.570   1275.000   1366.091    -91.091    478.035   1366.295    478.035    478.035    478.035
 57.670   1147.000   1135.979     11.021    478.023   1136.137    478.023    478.023    478.023
 57.770    897.000    961.550    -64.550    478.011    961.666    478.011    478.011    478.011
 57.870    884.183    839.259     44.925    478.001    839.339    478.001    478.001    478.001
 57.970    787.000    760.290     26.710    477.993    760.343    477.993    477.993    477.993
 58.070    713.914    714.872     -0.958    477.985    714.905    477.985    477.985    477.985
 58.170    684.322    695.062    -10.740    477.979    695.079    477.979    477.979    477.979
 58.270    716.000    695.814     20.186    477.975    695.820    477.975    477.975    477.975
 58.370    761.000    714.685     46.315    477.972    714.681    477.972    477.972    477.972
 58.470    811.000    750.714     60.286    477.970    750.700    477.970    477.970    477.970
 58.570    815.000    802.968     12.032    477.970    802.947    477.970    477.970    477.970
 58.670    847.905    869.055    -21.150    477.971    869.030    477.971    477.971    477.971
 58.770    966.000    943.925     22.075    477.973    943.901    477.973    477.973    477.973
 58.870   1058.000   1019.958     38.042    477.976   1019.940    477.976    477.976    477.976
 58.970   1138.000   1089.246     48.754    477.981   1089.239    477.981    477.981    477.981
 59.070   1087.216   1145.916    -58.700    477.987   1145.922    477.987    477.987    477.987
 59.170   1272.000   1185.214     86.786    477.995   1185.232    477.995    477.995    477.995
 59.270   1155.319   1202.242    -46.923    478.003   1202.273    478.003    478.003    478.003
 59.370   1289.000   1195.516     93.484    478.013   1195.552    478.013    478.013    478.013
 59.470   1232.000   1171.597     60.403    478.024   1171.629    478.024    478.024    478.024
 59.570   1133.010   1143.159    -10.148    478.037   1143.173    478.037    478.037    478.037
 59.670   1131.000   1122.667      8.333    478.051   1122.653    478.051    478.051    478.051
 59.770   1053.169   1118.945    -65.776    478.065   1118.894    478.065    478.065    478.065
 59.870   1192.219   1138.039     54.180    478.082   1137.947    478.082    478.082    478.082
 59.970   1276.000   1184.106     91.894    478.099   1183.970    478.099    478.099    478.099
 60.070   1364.000   1257.047    106.953    478.117   1256.867    478.117    478.117    478.117
 60.170   1302.276   1348.880    -46.604    478.137   1348.661    478.137    478.137    478.137
 60.270   1501.000   1441.781     59.219    478.158   1441.535    478.158    478.158    478.158
 60.370   1526.653   1509.266     17.388    478.180   1509.014    478.180    478.180    478.180
 60.470   1584.000   1523.933     60.067    478.203   1523.705    478.203    478.203    478.203
 60.570   1491.208   1472.605     18.603    478.227   1472.421    478.227    478.227    478.227
 60.670   1443.784   1365.523     78.260    478.253   1365.392    478.253    478.253    478.253
 60.770   1166.674   1227.745    -61.071    478.279   1227.660    478.279    478.279    478.279
 60.870   1154.000   1084.499     69.501    478.307   1084.450    478.307    478.307    478.307
 60.970    929.000    954.033    -25.033    478.336    954.007    478.336    478.336    478.336
 61.070    860.835    846.887     13.948    478.366    846.873    478.366    478.366    478.366
 61.170    801.000    767.319     33.681    478.397    767.309    478.397    478.397    478.397
 61.270    791.000    715.339     75.661    478.429    715.327    478.429    478.429    478.429
 61.370    681.000    688.946     -7.946    478.462    688.928    478.462    478.462    478.462
 61.470    728.234    686.075     42.159    478.496    686.048    478.496    478.496    478.496
 61.570    759.979    705.741     54.238    478.531    705.702    478.531    478.531    478.531
 61.670    689.000    748.125    -59.125    478.567    748.071    478.567    478.567    478.567
 61.770    812.135    813.670     -1.535    478.604    813.597    478.604    478.604    478.604
 61.870    856.000    901.532    -45.532    478.642    901.439    478.642    478.642    478.642
 61.970    970.000   1007.807    -37.807    478.682   1007.693    478.682    478.682    478.682
 62.070   1136.715   1123.901     12.814    478.722   1123.769    478.722    478.722    478.722
 62.170   1186.648   1235.333    -48.685    478.763   1235.194    478.763    478.763    478.763
 62.270   1307.127   1322.044    -14.917    478.805   1321.909    478.805    478.805    478.805
 62.370   1328.014   1363.002    -34.989    478.848   1362.888    478.848    478.848    478.848
 62.470   1320.873   1346.153    -25.280    478.892   1346.071    478.892    478.892    478.892
 62.570   1264.127   1276.124    -11.997    478.937   1276.076    478.937    478.937    478.937
 62.670   1198.000   1170.862     27.138    478.983   1170.842    478.983    478.983    478.983
 62.770   1043.000   1051.497     -8.497    479.030   1051.495    479.030    479.030    479.030
 62.870    862.000    935.118    -73.118    479.077    935.126    479.077    479.077    479.077
 62.970    782.000    832.697    -50.697    479.126    832.709    479.126    479.126    479.126
 63.070    807.456    749.581     57.876    479.175    749.592    479.175    479.175    479.175
 63.170    637.000    686.736    -49.736    479.225    686.744    479.225    479.225    479.225
 63.270    650.217    642.226      7.991    479.276    642.230    479.276    479.276    479.276
 63.370    597.534    612.694    -15.160    479.328    612.694    479.328    479.328    479.328
 63.470    616.000    594.596     21.404    479.381    594.593    479.381    479.381    479.381
 63.570    631.000    585.028     45.972    479.435    585.022    479.435    479.435    479.435
 63.670    539.632    582.127    -42.495    479.489    582.117    479.489    479.489    479.489
 63.770    626.000    585.150     40.850    479.544    585.137    479.544    479.544    479.544
 63.870    631.000    594.345     36.655    479.600    594.327    479.600    479.600    479.600
 63.970    587.336    610.692    -23.355    479.657    610.667    479.657    479.657    479.657
 64.070    671.000    635.528     35.472    479.714    635.494    479.714    479.714    479.714
 64.170    695.000    670.080     24.920    479.772    670.035    479.772    479.772    479.772
 64.270    761.000    714.891     46.109    479.831    714.832    479.831    479.831    479.831
 64.370    745.771    769.206    -23.434    479.891    769.132    479.891    479.891    479.891
 64.470    784.014    830.341    -46.327    479.951    830.253    479.951    479.951    479.951
 64.570    932.361    893.148     39.213    480.013    893.048    480.013    480.013    480.013
 64.670    937.000    949.906    -12.906    480.074    949.801    480.074    480.074    480.074
 64.770   1053.844    991.523     62.321    480.137    991.420    480.137    480.137    480.137
 64.870   1060.409   1010.510     49.899    480.200   1010.419    480.200    480.200    480.200
 64.970    979.000   1004.161    -25.161    480.264   1004.088    480.264    480.264    480.264
 65.070    960.290    975.396    -15.106    480.328    975.345    480.328    480.328    480.328
 65.170    943.083    931.063     12.019    480.393    931.035    480.393    480.393    480.393
 65.270    838.275    879.302    -41.027    480.459    879.294    480.459    480.459    480.459
 65.370    810.442    827.147    -16.705    480.525    827.156    480.525    480.525    480.525
 65.470    728.000    779.102    -51.102    480.592    779.123    480.592    480.592    480.592
 65.570    694.000    736.982    -42.982    480.659    737.012    480.659    480.659    480.659
 65.670    656.000    700.826    -44.826    480.727    700.859    480.727    480.727    480.727
 65.770    673.000    670.034      2.966    480.796    670.066    480.796    480.796    480.796
 65.870    611.000    644.202    -33.202    480.865    644.231    480.865    480.865    480.865
 65.970    672.000    623.140     48.860    480.935    623.164    480.935    480.935    480.935
 66.070    595.000    606.610    -11.610    481.005    606.629    481.005    481.005    481.005
 66.170    583.000    594.244    -11.244    481.076    594.257    481.076    481.076    481.076
 66.270    583.000    585.604     -2.604    481.147    585.613    481.147    481.147    481.147
 66.370    558.000    580.260    -22.260    481.219    580.267    481.219    481.219    481.219
 66.470    528.000    577.839    -49.839    481.291    577.844    481.291    481.291    481.291
 66.570    555.000    578.065    -23.065    481.363    578.070    481.363    481.363    481.363
 66.670    534.000    580.831    -46.831    481.437    580.836    481.437    481.437    481.437
 66.770    569.000    586.305    -17.305    481.510    586.310    481.510    481.510    481.510
 66.870    615.625    595.080     20.545    481.584    595.087    481.584    481.584    481.584
 66.970    599.000    608.372     -9.372    481.658    608.378    481.658    481.658    481.658
 67.070    641.000    628.245     12.755    481.733    628.252    481.733    481.733    481.733
 67.170    619.000    657.847    -38.847    481.808    657.853    481.808    481.808    481.808
 67.270    654.000    701.532    -47.532    481.884    701.539    481.884    481.884    481.884
 67.370    725.000    764.760    -39.760    481.960    764.766    481.960    481.960    481.960
 67.470    806.000    853.582    -47.582    482.036    853.590    482.036    482.036    482.036
 67.570    911.000    973.639    -62.639    482.113    973.653    482.113    482.113    482.113
 67.670   1043.000   1128.657    -85.657    482.190   1128.681    482.190    482.190    482.190
 67.770   1256.777   1318.624    -61.847    482.267   1318.668    482.267    482.267    482.267
 67.870   1473.000   1537.920    -64.920    482.345   1537.994    482.345    482.345    482.345
 67.970   1737.000   1773.607    -36.607    482.423   1773.723    482.423    482.423    482.423
 68.070   2067.000   2004.132     62.868    482.501   2004.303    482.501    482.501    482.501
 68.170   2211.853   2199.427     12.426    482.580   2199.663    482.580    482.580    482.580
 68.270   2384.042   2325.151     58.891    482.658   2325.456    482.658    482.658    482.658
 68.370   2305.000   2353.750    -48.750    482.737   2354.112    482.737    482.737    482.737
 68.470   2368.539   2278.137     90.402    482.817   2278.532    482.817    482.817    482.817
 68.570   2172.000   2116.054     55.946    482.896   2116.449    482.896    482.896    482.896
 68.670   1924.000   1900.160     23.840    482.976   1900.529    482.976    482.976    482.976
 68.770   1695.000   1663.998     31.002    483.056   1664.323    483.056    483.056    483.056
 68.870   1455.374   1433.951     21.423    483.136   1434.224    483.136    483.136    483.136
 68.970   1235.000   1227.435      7.565    483.216   1227.655    483.216    483.216    483.216
 69.070    986.050   1053.760    -67.710    483.297   1053.931    483.297    483.297    483.297
 69.170    871.000    915.684    -44.684    483.377    915.812    483.377    483.377    483.377
 69.270    812.000    811.217      0.783    483.458    811.311    483.458    483.458    483.458
 69.370    687.000    735.503    -48.503    483.539    735.571    483.539    483.539    483.539
 69.470    721.000    682.517     38.483    483.620    682.566    483.620    483.620    483.620
 69.570    691.000    646.356     44.644    483.701    646.392    483.701    483.701    483.701
 69.670    587.753    621.996    -34.243    483.782    622.023    483.782    483.782    483.782
 69.770    611.000    605.591      5.409    483.864    605.612    483.864    483.864    483.864
 69.870    639.000    594.433     44.567    483.945    594.450    483.945    483.945    483.945
 69.970    577.000    586.749     -9.749    484.026    586.763    484.026    484.026    484.026
 70.070    611.000    581.446     29.554    484.108    581.457    484.108    484.108    484.108
 70.170    625.024    577.887     47.137    484.189    577.896    484.189    484.189    484.189
 70.270    597.000    575.732     21.268    484.271    575.740    484.271    484.271    484.271
 70.370    578.000    574.836      3.164    484.353    574.841    484.353    484.353    484.353
 70.470    532.049    575.199    -43.150    484.434    575.203    484.434    484.434    484.434
 70.570    611.000    576.974     34.026    484.516    576.976    484.516    484.516    484.516
 70.670    556.311    580.505    -24.194    484.597    580.505    484.597    484.597    484.597
 70.770    582.287    586.408     -4.121    484.679    586.406    484.679    484.679    484.679
 70.870    644.000    595.683     48.317    484.760    595.679    484.760    484.760    484.760
 70.970    567.274    609.845    -42.571    484.842    609.836    484.842    484.842    484.842
 71.070    653.000    631.029     21.971    484.923    631.015    484.923    484.923    484.923
 71.170    638.805    662.032    -23.227    485.005    662.010    485.005    485.005    485.005
 71.270    739.000    706.200     32.800    485.086    706.168    485.086    485.086    485.086
 71.370    761.000    767.109     -6.109    485.167    767.064    485.167    485.167    485.167
 71.470    821.000    847.990    -26.990    485.248    847.929    485.248    485.248    485.248
 71.570   1011.299    950.923     60.377    485.329    950.843    485.329    485.329    485.329
 71.670   1021.000   1075.892    -54.892    485.410   1075.793    485.410    485.410    485.410
 71.770   1147.000   1219.834    -72.834    485.490   1219.715    485.490    485.490    485.490
 71.870   1346.000   1375.767    -29.767    485.571   1375.632    485.571    485.571    485.571
 71.970   1555.000   1532.086     22.914    485.651   1531.940    485.651    485.651    485.651
 72.070   1657.570   1672.344    -14.774    485.731   1672.198    485.731    485.731    485.731
 72.170   1767.966   1776.626     -8.661    485.811   1776.493    485.811    485.811    485.811
 72.270   1888.000   1826.150     61.850    485.891   1826.041    485.891    485.891    485.891
 72.370   1859.000   1810.616     48.384    485.970   1810.540    485.970    485.970    485.970
 72.470   1767.000   1733.353     33.647    486.049   1733.311    486.049    486.049    486.049
 72.570   1753.000   1609.480    143.520    486.129   1609.467    486.129    486.129    486.129
 72.670   1574.000   1458.977    115.023    486.207   1458.985    486.207    486.207    486.207
 72.770   1262.042   1300.412    -38.370    486.286   1300.433    486.286    486.286    486.286
 72.870   1084.264   1148.012    -63.748    486.364   1148.040    486.364    486.364    486.364
 72.970   1006.937   1011.188     -4.251    486.442   1011.216    486.442    486.442    486.442
 73.070    976.000    895.022     80.978    486.520    895.048    486.520    486.520    486.520
 73.170    859.000    801.070     57.930    486.597    801.092    486.597    486.597    486.597
 73.270    713.269    728.280    -15.011    486.674    728.298    486.674    486.674    486.674
 73.370    749.000    673.965     75.035    486.751    673.979    486.751    486.751    486.751
 73.470    649.653    634.687     14.966    486.827    634.697    486.827    486.827    486.827
 73.570    655.000    606.959     48.041    486.903    606.967    486.903    486.903    486.903
 73.670    677.000    587.704     89.296    486.979    587.711    486.979    486.979    486.979
 73.770    604.000    574.467     29.533    487.054    574.474    487.054    487.054    487.054
 73.870    534.820    565.446    -30.626    487.129    565.454    487.129    487.129    487.129
 73.970    573.000    559.406     13.594    487.204    559.415    487.204    487.204    487.204
 74.070    632.000    555.541     76.459    487.278    555.553    487.278    487.278    487.278
 74.170    572.000    553.333     18.667    487.352    553.348    487.352    487.352    487.352
 74.270    600.897    552.425     48.471    487.425    552.445    487.425    487.425    487.425
 74.370    595.000    552.531     42.469    487.498    552.556    487.498    487.498    487.498
 74.470    570.000    553.362     16.638    487.571    553.393    487.571    487.571    487.571
 74.570    564.000    554.590      9.410    487.642    554.626    487.642    487.642    487.642
 74.670    597.000    555.820     41.180    487.714    555.861    487.714    487.714    487.714
 74.770    624.000    556.611     67.389    487.785    556.656    487.785    487.785    487.785
 74.870    580.033    556.559     23.474    487.856    556.606    487.856    487.856    487.856
 74.970    620.000    555.429     64.571    487.926    555.476    487.926    487.926    487.926
 75.070    631.000    553.268     77.732    487.995    553.313    487.995    487.995    487.995
 75.170    619.000    550.395     68.605    488.064    550.436    488.064    488.064    488.064
 75.270    657.000    547.293    109.707    488.133    547.328    488.133    488.133    488.133
 75.370    627.000    544.489     82.511    488.201    544.518    488.201    488.201    488.201
 75.470    602.000    542.498     59.502    488.268    542.520    488.268    488.268    488.268
 75.570    552.919    541.811     11.108    488.335    541.827    488.335    488.335    488.335
 75.670    519.002    542.901    -23.898    488.401    542.909    488.401    488.401    488.401
 75.770    558.000    546.216     11.784    488.467    546.218    488.467    488.467    488.467
 75.870    602.415    552.161     50.254    488.532    552.156    488.532    488.532    488.532
 75.970    538.667    561.051    -22.385    488.596    561.039    488.596    488.596    488.596
 76.070    597.000    573.048     23.952    488.660    573.029    488.660    488.660    488.660
 76.170    621.000    588.081     32.919    488.724    588.055    488.724    488.724    488.724
 76.270    602.337    605.766     -3.429    488.786    605.732    488.786    488.786    488.786
 76.370    607.421    625.326    -17.905    488.848    625.285    488.848    488.848    488.848
 76.470    648.000    645.527      2.473    488.910    645.481    488.910    488.910    488.910
 76.570    621.000    664.643    -43.643    488.970    664.592    488.970    488.970    488.970
 76.670    722.926    680.505     42.420    489.030    680.452    489.030    489.030    489.030
 76.770    714.000    690.802     23.198    489.090    690.748    489.090    489.090    489.090
 76.870    705.095    693.695     11.400    489.148    693.645    489.148    489.148    489.148
 76.970    634.174    688.562    -54.388    489.206    688.516    489.206    489.206    489.206
 77.070    637.771    676.287    -38.517    489.263    676.247    489.263    489.263    489.263
 77.170    691.000    658.851     32.149    489.320    658.818    489.320    489.320    489.320
 77.270    614.000    638.563    -24.563    489.376    638.536    489.376    489.376    489.376
 77.370    650.148    617.490     32.659    489.431    617.468    489.431    489.431    489.431
 77.470    560.000    597.219    -37.219    489.485    597.202    489.485    489.485    489.485
 77.570    571.000    578.833     -7.833    489.538    578.821    489.538    489.538    489.538
 77.670    577.000    562.957     14.043    489.591    562.948    489.591    489.591    489.591
 77.770    566.000    549.829     16.171    489.643    549.822    489.643    489.643    489.643
 77.870    500.701    539.388    -38.688    489.694    539.384    489.694    489.694    489.694
 77.970    544.000    531.369     12.631    489.745    531.365    489.745    489.745    489.745
 78.070    486.000    525.391    -39.391    489.794    525.388    489.794    489.794    489.794
 78.170    535.000    521.050     13.950    489.843    521.048    489.843    489.843    489.843
 78.270    539.000    517.954     21.046    489.891    517.953    489.891    489.891    489.891
 78.370    546.682    515.772     30.910    489.938    515.771    489.938    489.938    489.938
 78.470    540.000    514.243     25.757    489.985    514.242    489.985    489.985    489.985
 78.570    533.121    513.175     19.946    490.030    513.174    490.030    490.030    490.030
 78.670    470.000    512.435    -42.435    490.075    512.435    490.075    490.075    490.075
 78.770    544.173    511.939     32.233    490.118    511.939    490.118    490.118    490.118
 78.870    501.354    511.636    -10.283    490.161    511.636    490.161    490.161    490.161
 78.970    539.810    511.502     28.308    490.203    511.502    490.203    490.203    490.203
 79.070    518.068    511.530      6.538    490.244    511.530    490.244    490.244    490.244
 79.170    535.994    511.727     24.266    490.285    511.727    490.285    490.285    490.285
 79.270    542.000    512.112     29.888    490.324    512.112    490.324    490.324    490.324
 79.370    487.000    512.712    -25.712    490.362    512.712    490.362    490.362    490.362
 79.470    534.266    513.563     20.704    490.400    513.562    490.400    490.400    490.400
 79.570    482.000    514.709    -32.709    490.436    514.708    490.436    490.436    490.436
 79.670    487.000    516.211    -29.211    490.472    516.209    490.472    490.472    490.472
 79.770    518.000    518.142     -0.142    490.506    518.140    490.506    490.506    490.506
 79.870    494.959    520.604    -25.645    490.540    520.602    490.540    490.540    490.540
 79.970    530.000    523.727      6.273    490.573    523.724    490.573    490.573    490.573
 80.070    530.349    527.679      2.670    490.605    527.676    490.605    490.605    490.605
 80.170    498.969    532.667    -33.698    490.635    532.664    490.635    490.635    490.635
 80.270    516.000    538.936    -22.936    490.665    538.933    490.665    490.665    490.665
 80.370    555.000    546.770      8.230    490.694    546.768    490.694    490.694    490.694
 80.470    588.000    556.483     31.517    490.722    556.483    490.722    490.722    490.722
 80.570    538.000    568.385    -30.385    490.749    568.387    490.749    490.749    490.749
 80.670    561.781    582.710    -20.929    490.774    582.716    490.774    490.774    490.774
 80.770    646.814    599.529     47.284    490.799    599.540    490.799    490.799    490.799
 80.870    578.361    618.654    -40.293    490.823    618.670    490.823    490.823    490.823
 80.970    646.000    639.574      6.426    490.845    639.596    490.845    490.845    490.845
 81.070    677.000    661.432     15.568    490.867    661.460    490.867    490.867    490.867
 81.170    671.406    683.080    -11.673    490.888    683.116    490.888    490.888    490.888
 81.270    659.000    703.232    -44.232    490.907    703.276    490.907    490.907    490.907
 81.370    679.000    720.672    -41.672    490.926    720.722    490.926    490.926    490.926
 81.470    744.000    734.401      9.599    490.943    734.458    490.943    490.943    490.943
 81.570    707.000    743.719    -36.719    490.959    743.783    490.959    490.959    490.959
 81.670    714.122    748.264    -34.143    490.974    748.333    490.974    490.974    490.974
 81.770    734.000    748.033    -14.033    490.988    748.106    490.988    490.988    490.988
 81.870    719.940    743.302    -23.362    491.001    743.379    491.001    491.001    491.001
 81.970    704.526    734.523    -29.998    491.013    734.603    491.013    491.013    491.013
 82.070    704.000    722.300    -18.300    491.024    722.380    491.024    491.024    491.024
 82.170    693.905    707.428    -13.522    491.034    707.507    491.034    491.034    491.034
 82.270    683.000    690.854     -7.854    491.042    690.931    491.042    491.042    491.042
 82.370    629.000    673.505    -44.505    491.050    673.578    491.050    491.050    491.050
 82.470    613.000    656.099    -43.099    491.056    656.168    491.056    491.056    491.056
 82.570    607.000    639.096    -32.096    491.061    639.161    491.061    491.061    491.061
 82.670    584.000    622.785    -38.785    491.065    622.844    491.065    491.065    491.065
 82.770    565.109    607.422    -42.313    491.068    607.475    491.068    491.068    491.068
 82.870    597.000    593.305      3.695    491.070    593.351    491.070    491.070    491.070
 82.970    556.000    580.757    -24.757    491.070    580.795    491.070    491.070    491.070
 83.070    536.983    570.067    -33.083    491.069    570.097    491.069    491.069    491.069
 83.170    525.298    561.441    -36.142    491.068    561.463    491.068    491.068    491.068
 83.270    529.357    554.992    -25.635    491.065    555.006    491.065    491.065    491.065
 83.370    529.000    550.739    -21.739    491.060    550.745    491.060    491.060    491.060
 83.470    520.375    548.610    -28.235    491.055    548.607    491.055    491.055    491.055
 83.570    522.000    548.436    -26.436    491.048    548.425    491.048    491.048    491.048
 83.670    544.000    549.956     -5.956    491.040    549.937    491.040    491.040    491.040
 83.770    496.000    552.814    -56.814    491.031    552.788    491.031    491.031    491.031
 83.870    563.000    556.557      6.443    491.021    556.525    491.021    491.021    491.021
 83.970    520.342    560.650    -40.309    491.010    560.612    491.010    491.010    491.010
 84.070    578.000    564.486     13.514    490.997    564.443    490.997    490.997    490.997
 84.170    581.000    567.426     13.574    490.983    567.380    490.983    490.983    490.983
 84.270    538.421    568.856    -30.435    490.968    568.810    490.968    490.968    490.968
 84.370    567.000    568.509     -1.509    490.952    568.463    490.952    490.952    490.952
 84.470    579.000    566.252     12.748    490.934    566.209    490.934    490.934    490.934
 84.570    548.000    562.298    -14.298    490.915    562.259    490.915    490.915    490.915
 84.670    514.000    557.078    -43.078    490.895    557.043    490.895    490.895    490.895
 84.770    529.356    551.098    -21.742    490.874    551.068    490.874    490.874    490.874
 84.870    521.224    544.843    -23.619    490.851    544.818    490.851    490.851    490.851
 84.970    512.991    538.713    -25.722    490.827    538.692    490.827    490.827    490.827
 85.070    523.000    533.013    -10.013    490.802    532.996    490.802    490.802    490.802
 85.170    499.791    527.950    -28.158    490.776    527.936    490.776    490.776    490.776
 85.270    527.000    523.638      3.362    490.748    523.627    490.748    490.748    490.748
 85.370    522.000    520.118      1.882    490.719    520.109    490.719    490.719    490.719
 85.470    485.000    517.372    -32.372    490.689    517.364    490.689    490.689    490.689
 85.570    508.000    515.340     -7.340    490.657    515.333    490.657    490.657    490.657
 85.670    500.000    513.944    -13.944    490.624    513.938    490.624    490.624    490.624
 85.770    495.000    513.112    -18.112    490.590    513.105    490.590    490.590    490.590
 85.870    519.000    512.776      6.224    490.555    512.769    490.555    490.555    490.555
 85.970    519.000    512.893      6.107    490.518    512.886    490.518    490.518    490.518
 86.070    541.428    513.452     27.976    490.480    513.443    490.480    490.480    490.480
 86.170    518.000    514.472      3.528    490.441    514.462    490.441    490.441    490.441
 86.270    532.650    516.005     16.645    490.400    515.993    490.400    490.400    490.400
 86.370    521.964    518.133      3.831    490.358    518.118    490.358    490.358    490.358
 86.470    490.000    520.957    -30.957    490.315    520.939    490.315    490.315    490.315
 86.570    523.278    524.594     -1.316    490.271    524.571    490.271    490.271    490.271
 86.670    537.000    529.160      7.840    490.225    529.131    490.225    490.225    490.225
 86.770    526.361    534.752     -8.391    490.178    534.717    490.178    490.178    490.178
 86.870    552.000    541.435     10.565    490.129    541.392    490.129    490.129    490.129
 86.970    501.000    549.211    -48.211    490.080    549.160    490.080    490.080    490.080
 87.070    601.087    558.000     43.087    490.028    557.940    490.028    490.028    490.028
 87.170    561.000    567.614     -6.614    489.976    567.543    489.976    489.976    489.976
 87.270    559.000    577.739    -18.739    489.922    577.658    489.922    489.922    489.922
 87.370    597.000    587.924      9.076    489.867    587.834    489.867    489.867    489.867
 87.470    648.000    597.580     50.420    489.811    597.481    489.811    489.811    489.811
 87.570    621.000    606.010     14.990    489.753    605.906    489.753    489.753    489.753
 87.670    640.000    612.481     27.519    489.694    612.374    489.694    489.694    489.694
 87.770    641.000    616.370     24.630    489.634    616.263    489.634    489.634    489.634
 87.870    662.000    617.328     44.672    489.572    617.225    489.572    489.572    489.572
 87.970    590.635    615.390    -24.755    489.509    615.295    489.509    489.509    489.509
 88.070    615.506    610.961      4.545    489.445    610.876    489.445    489.445    489.445
 88.170    614.000    604.697      9.303    489.379    604.624    489.379    489.379    489.379
 88.270    578.196    597.362    -19.166    489.312    597.301    489.312    489.312    489.312
 88.370    635.000    589.718     45.282    489.244    589.669    489.244    489.244    489.244
 88.470    540.245    582.462    -42.217    489.174    582.425    489.174    489.174    489.174
 88.570    564.000    576.185    -12.185    489.103    576.160    489.103    489.103    489.103
 88.670    538.000    571.346    -33.346    489.031    571.331    489.031    489.031    489.031
 88.770    562.000    568.248     -6.248    488.957    568.242    488.957    488.957    488.957
 88.870    529.000    567.031    -38.031    488.882    567.036    488.882    488.882    488.882
 88.970    618.475    567.677     50.798    488.805    567.690    488.805    488.805    488.805
 89.070    580.000    570.010      9.990    488.728    570.031    488.728    488.728    488.728
 89.170    582.000    573.712      8.288    488.649    573.742    488.649    488.649    488.649
 89.270    546.825    578.341    -31.515    488.568    578.379    488.568    488.568    488.568
 89.370    603.000    583.342     19.658    488.487    583.388    488.487    488.487    488.487
 89.470    622.000    588.081     33.919    488.404    588.134    488.404    488.404    488.404
 89.570    559.609    591.888    -32.279    488.319    591.947    488.319    488.319    488.319
 89.670    571.641    594.144    -22.503    488.234    594.208    488.234    488.234    488.234
 89.770    573.000    594.397    -21.397    488.147    594.464    488.147    488.147    488.147
 89.870    549.623    592.469    -42.845    488.059    592.536    488.059    488.059    488.059
 89.970    582.815    588.486     -5.671    487.969    588.553    487.969    487.969    487.969
 90.070    547.000    582.826    -35.826    487.878    582.889    487.878    487.878    487.878
 90.170    524.000    575.995    -51.995    487.786    576.053    487.786    487.786    487.786
 90.270    563.000    568.517     -5.517    487.692    568.569    487.692    487.692    487.692
 90.370    550.000    560.867    -10.867    487.597    560.913    487.597    487.597    487.597
 90.470    541.000    553.436    -12.436    487.501    553.475    487.501    487.501    487.501
 90.570    545.000    546.522     -1.522    487.404    546.554    487.404    487.404    487.404
 90.670    507.504    540.332    -32.829    487.305    540.359    487.305    487.305    487.305
 90.770    533.000    534.992     -1.992    487.205    535.014    487.205    487.205    487.205
 90.870    557.000    530.554     26.446    487.103    530.571    487.103    487.103    487.103
 90.970    502.000    527.012    -25.012    487.000    527.025    487.000    487.000    487.000
 91.070    477.000    524.320    -47.320    486.896    524.329    486.896    486.896    486.896
 91.170    486.703    522.408    -35.705    486.791    522.415    486.791    486.791    486.791
 91.270    480.000    521.201    -41.201    486.684    521.205    486.684    486.684    486.684
 91.370    511.672    520.630     -8.958    486.577    520.632    486.577    486.577    486.577
 91.470    507.000    520.645    -13.645    486.467    520.646    486.467    486.467    486.467
 91.570    548.000    521.226     26.774    486.357    521.225    486.357    486.357    486.357
 91.670    499.436    522.383    -22.947    486.245    522.381    486.245    486.245    486.245
 91.770    532.000    524.163      7.837    486.132    524.160    486.132    486.132    486.132
 91.870    548.000    526.648     21.352    486.018    526.643    486.018    486.018    486.018
 91.970    487.266    529.950    -42.685    485.902    529.943    485.902    485.902    485.902
 92.070    563.449    534.209     29.240    485.786    534.199    485.786    485.786    485.786
 92.170    544.000    539.580      4.420    485.668    539.567    485.668    485.668    485.668
 92.270    524.000    546.225    -22.225    485.548    546.209    485.548    485.548    485.548
 92.370    545.494    554.296     -8.802    485.428    554.276    485.428    485.428    485.428
 92.470    532.000    563.922    -31.922    485.306    563.898    485.306    485.306    485.306
 92.570    560.904    575.190    -14.286    485.183    575.160    485.183    485.183    485.183
 92.670    555.000    588.126    -33.126    485.059    588.091    485.059    485.059    485.059
 92.770    593.306    602.685     -9.379    484.933    602.643    484.933    484.933    484.933
 92.870    609.000    618.728     -9.728    484.806    618.680    484.806    484.806    484.806
 92.970    617.000    636.014    -19.014    484.679    635.960    484.679    484.679    484.679
 93.070    643.000    654.188    -11.188    484.549    654.129    484.549    484.549    484.549
 93.170    675.000    672.785      2.215    484.419    672.721    484.419    484.419    484.419
 93.270    706.000    691.257     14.743    484.287    691.190    484.287    484.287    484.287
 93.370    741.000    709.049     31.951    484.155    708.979    484.155    484.155    484.155
 93.470    729.000    725.704      3.296    484.021    725.632    484.021    484.021    484.021
 93.570    746.648    740.974      5.674    483.886    740.902    483.886    483.886    483.886
 93.670    808.337    754.871     53.465    483.749    754.800    483.749    483.749    483.749
 93.770    772.026    767.614      4.412    483.612    767.545    483.612    483.612    483.612
 93.870    823.000    779.506     43.494    483.473    779.439    483.473    483.473    483.473
 93.970    793.000    790.815      2.185    483.334    790.750    483.334    483.334    483.334
 94.070    853.731    801.699     52.031    483.193    801.638    483.193    483.193    483.193
 94.170    768.349    812.222    -43.873    483.051    812.163    483.051    483.051    483.051
 94.270    877.464    822.454     55.010    482.908    822.398    482.908    482.908    482.908
 94.370    849.000    832.510     16.490    482.763    832.458    482.763    482.763    482.763
 94.470    897.685    842.516     55.168    482.618    842.468    482.618    482.618    482.618
 94.570    818.974    852.551    -33.577    482.471    852.506    482.471    482.471    482.471
 94.670    881.000    862.503     18.497    482.324    862.462    482.324    482.324    482.324
 94.770    895.085    871.966     23.118    482.175    871.930    482.175    482.175    482.175
 94.870    880.000    880.200     -0.200    482.025    880.170    482.025    482.025    482.025
 94.970    897.000    886.179     10.821    481.874    886.155    481.874    481.874    481.874
 95.070    973.000    888.731     84.269    481.722    888.714    481.722    481.722    481.722
 95.170    899.000    886.774     12.226    481.570    886.766    481.570    481.570    481.570
 95.270    875.000    879.605     -4.605    481.415    879.605    481.415    481.415    481.415
 95.370    929.315    867.133     62.182    481.260    867.140    481.260    481.260    481.260
 95.470    818.270    849.956    -31.686    481.104    849.969    481.104    481.104    481.104
 95.570    869.000    829.247     39.753    480.947    829.263    480.947    480.947    480.947
 95.670    777.000    806.522    -29.522    480.789    806.540    480.789    480.789    480.789
 95.770    805.000    783.423     21.577    480.630    783.442    480.630    480.630    480.630
 95.870    813.456    761.559     51.897    480.470    761.577    480.470    480.470    480.470
 95.970    733.000    742.430     -9.430    480.309    742.446    480.309    480.309    480.309
 96.070    679.000    727.390    -48.390    480.146    727.402    480.146    480.146    480.146
 96.170    660.059    717.629    -57.570    479.983    717.637    479.983    479.983    479.983
 96.270    731.202    714.169     17.033    479.819    714.171    479.819    479.819    479.819
 96.370    738.827    717.853     20.974    479.654    717.849    479.654    479.654    479.654
 96.470    688.403    729.339    -40.936    479.488    729.328    479.488    479.488    479.488
 96.570    764.000    749.087     14.913    479.322    749.069    479.322    479.322    479.322
 96.670    786.000    777.338      8.662    479.154    777.313    479.154    479.154    479.154
 96.770    761.000    814.090    -53.090    478.985    814.059    478.985    478.985    478.985
 96.870    919.284    859.055     60.229    478.816    859.017    478.816    478.816    478.816
 96.970    878.538    911.613    -33.075    478.645    911.569    478.645    478.645    478.645
 97.070    985.000    970.760     14.240    478.474    970.712    478.474    478.474    478.474
 97.170   1099.000   1035.061     63.939    478.302   1035.010    478.302    478.302    478.302
 97.270   1094.000   1102.604     -8.604    478.129   1102.553    478.129    478.129    478.129
 97.370   1181.000   1170.978     10.022    477.955   1170.928    477.955    477.955    477.955
 97.470   1181.363   1237.274    -55.911    477.781   1237.229    477.781    477.781    477.781
 97.570   1281.000   1298.153    -17.153    477.605   1298.116    477.605    477.605    477.605
 97.670   1362.000   1350.038     11.962    477.429   1350.012    477.429    477.429    477.429
 97.770   1420.000   1389.460     30.540    477.252   1389.450    477.252    477.252    477.252
 97.870   1442.000   1413.595     28.405    477.074   1413.602    477.074    477.074    477.074
 97.970   1436.084   1420.777     15.307    476.896   1420.803    476.896    476.896    476.896
 98.070   1434.182   1410.855     23.328    476.717   1410.898    476.717    476.717    476.717
 98.170   1424.518   1385.185     39.333    476.537   1385.244    476.537    476.537    476.537
 98.270   1352.000   1346.301      5.699    476.356   1346.372    476.356    476.356    476.356
 98.370   1340.000   1297.416     42.584    476.175   1297.496    476.175    476.175    476.175
 98.470   1260.874   1241.981     18.893    475.993   1242.067    475.993    475.993    475.993
 98.570   1232.000   1183.367     48.633    475.810   1183.454    475.810    475.810    475.810
 98.670   1200.000   1124.675     75.325    475.627   1124.760    475.627    475.627    475.627
 98.770   1045.000   1068.653    -23.653    475.443   1068.734    475.443    475.443    475.443
 98.870   1006.000   1017.663    -11.663    475.258   1017.737    475.258    475.258    475.258
 98.970    958.000    973.648    -15.648    475.073    973.714    475.073    475.073    475.073
 99.070    895.000    938.386    -43.386    474.887    938.444    474.887    474.887    474.887
 99.170    882.273    913.167    -30.895    474.700    913.216    474.700    474.700    474.700
 99.270    866.000    899.013    -33.013    474.513    899.054    474.513    474.513    474.513
 99.370    819.000    896.667    -77.667    474.326    896.700    474.326    474.326    474.326
 99.470    930.552    906.593     23.958    474.138    906.621    474.138    474.138    474.138
 99.570    890.047    928.986    -38.940    473.949    929.010    473.949    473.949    473.949
 99.670   1022.000    963.761     58.239    473.760    963.782    473.760    473.760    473.760
 99.770   1010.000   1010.573     -0.573    473.570   1010.595    473.570    473.570    473.570
 99.870   1073.000   1068.757      4.243    473.380   1068.782    473.380    473.380    473.380
 99.970   1132.000   1137.302     -5.302    473.190   1137.333    473.190    473.190    473.190
100.070   1230.636   1214.810     15.826    472.999   1214.850    472.999    472.999    472.999
100.170   1356.000   1299.451     56.549    472.808   1299.504    472.808    472.808    472.808
100.270   1335.115   1388.926    -53.811    472.616   1388.995    472.616    472.616    472.616
100.370   1521.000   1480.476     40.524    472.424   1480.564    472.424    472.424    472.424
100.470   1644.577   1570.967     73.610    472.231   1571.078    472.231    472.231    472.231
100.570   1626.000   1657.081    -31.081    472.038   1657.217    472.038    472.038    472.038
100.670   1786.000   1735.606     50.394    471.845   1735.769    471.845    471.845    471.845
100.770   1815.000   1803.748     11.252    471.651   1803.938    471.651    471.651    471.651
100.870   1924.043   1859.334     64.710    471.458   1859.550    471.458    471.458    471.458
100.970   1906.041   1900.829      5.212    471.263   1901.069    471.263    471.263    471.263
101.070   1900.000   1927.189    -27.189    471.069   1927.450    471.069    471.069    471.069
101.170   1983.000   1937.693     45.307    470.875   1937.971    470.875    470.875    470.875
101.270   1966.808   1931.924     34.884    470.680   1932.215    470.680    470.680    470.680
101.370   1921.000   1909.952     11.048    470.485   1910.252    470.485    470.485    470.485
101.470   1814.675   1872.633    -57.958    470.289   1872.936    470.289    470.289    470.289
101.570   1903.532   1821.830     81.702    470.094   1822.131    470.094    470.094    470.094
101.670   1851.000   1760.388     90.612    469.899   1760.683    469.899    469.899    469.899
101.770   1664.000   1691.829    -27.829    469.703   1692.112    469.703    469.703    469.703
101.870   1710.000   1619.888     90.112    469.507   1620.157    469.507    469.507    469.507
101.970   1545.000   1548.071     -3.071    469.311   1548.323    469.311    469.311    469.311
102.070   1494.042   1479.330     14.712    469.115   1479.564    469.115    469.115    469.115
102.170   1388.376   1415.895    -27.519    468.919   1416.111    468.919    468.919    468.919
102.270   1431.000   1359.221     71.779    468.723   1359.420    468.723    468.723    468.723
102.370   1264.000   1310.000    -46.000    468.528   1310.183    468.528    468.528    468.528
102.470   1191.981   1268.211    -76.230    468.332   1268.380    468.332    468.332    468.332
102.570   1183.713   1233.188    -49.475    468.136   1233.345    468.136    468.136    468.136
102.670   1276.181   1203.707     72.474    467.940   1203.854    467.940    467.940    467.940
102.770   1220.000   1178.093     41.907    467.744   1178.232    467.744    467.744    467.744
102.870   1107.479   1154.506    -47.027    467.548   1154.640    467.548    467.548    467.548
102.970   1116.000   1131.012    -15.012    467.353   1131.142    467.353    467.353    467.353
103.070   1046.670   1105.958    -59.288    467.158   1106.085    467.158    467.158    467.158
103.170   1100.000   1078.187     21.813    466.962   1078.311    466.962    466.962    466.962
103.270   1038.000   1047.161     -9.161    466.767   1047.283    466.767    466.767    466.767
103.370    997.483   1012.951    -15.468    466.573   1013.070    466.573    466.573    466.573
103.470    983.000    976.093      6.907    466.378    976.207    466.378    466.378    466.378
103.570    930.899    937.406     -6.507    466.184    937.515    466.184    466.184    466.184
103.670    928.000    897.823     30.177    465.990    897.925    465.990    465.990    465.990
103.770    824.043    858.261    -34.218    465.796    858.356    465.796    465.796    465.796
103.870    794.469    819.576    -25.108    465.603    819.664    465.603    465.603    465.603
103.970    797.000    782.494     14.506    465.410    782.574    465.410    465.410    465.410
104.070    800.000    747.609     52.391    465.217    747.681    465.217    465.217    465.217
104.170    658.672    715.377    -56.705    465.025    715.440    465.025    465.025    465.025
104.270    726.000    686.108     39.892    464.833    686.164    464.833    464.833    464.833
104.370    626.253    659.978    -33.725    464.642    660.027    464.642    464.642    464.642
104.470    657.000    637.033     19.967    464.451    637.075    464.451    464.451    464.451
104.570    650.000    617.211     32.789    464.261    617.247    464.261    464.261    464.261
104.670    590.639    600.362     -9.723    464.071    600.393    464.071    464.071    464.071
104.770    566.334    586.274    -19.940    463.882    586.299    463.882    463.882    463.882
104.870    622.000    574.693     47.307    463.693    574.714    463.693    463.693    463.693
104.970    595.000    565.350     29.650    463.505    565.367    463.505    463.505    463.505
105.070    564.000    557.976      6.024    463.318    557.990    463.318    463.318    463.318
105.170    557.211    552.322      4.889    463.131    552.333    463.131    463.131    463.131
105.270    582.660    548.166     34.495    462.945    548.174    462.945    462.945    462.945
105.370    562.000    545.322     16.678    462.760    545.328    462.760    462.760    462.760
105.470    592.924    543.644     49.280    462.576    543.648    462.576    462.576    462.576
105.570    521.000    543.024    -22.024    462.392    543.026    462.392    462.392    462.392
105.670    556.000    543.391     12.609    462.209    543.391    462.209    462.209    462.209
105.770    546.000    544.707      1.293    462.027    544.705    462.027    462.027    462.027
105.870    543.574    546.962     -3.387    461.846    546.957    461.846    461.846    461.846
105.970    580.000    550.165     29.835    461.665    550.158    461.665    461.665    461.665
106.070    602.000    554.345     47.655    461.486    554.336    461.486    461.486    461.486
106.170    566.267    559.533      6.734    461.307    559.522    461.307    461.307    461.307
106.270    579.000    565.762     13.238    461.130    565.748    461.130    461.130    461.130
106.370    578.000    573.051      4.949    460.953    573.034    460.953    460.953    460.953
106.470    564.000    581.397    -17.397    460.778    581.377    460.778    460.778    460.778
106.570    534.000    590.764    -56.764    460.603    590.741    460.603    460.603    460.603
106.670    618.000    601.075     16.925    460.430    601.050    460.430    460.430    460.430
106.770    565.000    612.192    -47.192    460.258    612.164    460.258    460.258    460.258
106.870    643.209    623.977     19.232    460.087    623.947    460.087    460.087    460.087
106.970    663.214    636.206     27.008    459.917    636.173    459.917    459.917    459.917
107.070    644.000    648.598     -4.598    459.748    648.563    459.748    459.748    459.748
107.170    633.000    660.834    -27.834    459.581    660.798    459.581    459.581    459.581
107.270    717.288    672.559     44.729    459.415    672.522    459.415    459.415    459.415
107.370    696.000    683.392     12.608    459.250    683.355    459.250    459.250    459.250
107.470    672.000    692.961    -20.961    459.086    692.925    459.086    459.086    459.086
107.570    728.561    700.939     27.622    458.924    700.905    458.924    458.924    458.924
107.670    661.000    707.096    -46.096    458.763    707.064    458.763    458.763    458.763
107.770    767.488    711.338     56.150    458.604    711.309    458.604    458.604    458.604
107.870    701.000    713.735    -12.735    458.446    713.710    458.446    458.446    458.446
107.970    742.326    714.514     27.812    458.290    714.493    458.290    458.290    458.290
108.070    747.590    714.019     33.571    458.135    714.002    458.135    458.135    458.135
108.170    688.096    712.659    -24.563    457.982    712.646    457.982    457.982    457.982
108.270    664.494    710.852    -46.358    457.830    710.843    457.830    457.830    457.830
108.370    729.171    708.977     20.194    457.680    708.972    457.680    457.680    457.680
108.470    684.000    707.342    -23.342    457.532    707.341    457.532    457.532    457.532
108.570    689.000    706.165    -17.165    457.385    706.168    457.385    457.385    457.385
108.670    661.000    705.564    -44.564    457.240    705.571    457.240    457.240    457.240
108.770    686.000    705.553    -19.553    457.097    705.563    457.097    457.097    457.097
108.870    746.884    706.040     40.844    456.956    706.054    456.956    456.956    456.956
108.970    656.000    706.837    -50.837    456.816    706.855    456.816    456.816    456.816
109.070    670.000    707.669    -37.669    456.679    707.690    456.679    456.679    456.679
109.170    698.800    708.192     -9.392    456.543    708.216    456.543    456.543    456.543
109.270    734.946    708.028     26.918    456.409    708.055    456.409    456.409    456.409
109.370    696.000    706.806    -10.806    456.277    706.835    456.277    456.277    456.277
109.470    709.870    704.212      5.658    456.147    704.244    456.147    456.147    456.147
109.570    668.000    700.036    -32.036    456.020    700.069    456.020    456.020    456.020
109.670    693.000    694.201     -1.201    455.894    694.235    455.894    455.894    455.894
109.770    715.330    686.772     28.558    455.770    686.807    455.770    455.770    455.770
109.870    683.000    677.936      5.064    455.649    677.970    455.649    455.649    455.649
109.970    680.000    667.963     12.037    455.530    667.997    455.530    455.530    455.530
110.070    648.230    657.172     -8.942    455.413    657.205    455.413    455.413    455.413
110.170    658.000    645.890     12.110    455.298    645.921    455.298    455.298    455.298
110.270    598.365    634.432    -36.067    455.186    634.461    455.186    455.186    455.186
110.370    666.000    623.083     42.917    455.076    623.110    455.076    455.076    455.076
110.470    641.301    612.095     29.206    454.968    612.120    454.968    454.968    454.968
110.570    589.000    601.678    -12.678    454.863    601.700    454.863    454.863    454.863
110.670    588.000    591.998     -3.998    454.760    592.018    454.760    454.760    454.760
110.770    556.878    583.185    -26.307    454.660    583.202    454.660    454.660    454.660
110.870    602.000    575.323     26.677    454.562    575.338    454.562    454.562    454.562
110.970    569.000    568.464      0.536    454.467    568.476    454.467    454.467    454.467
111.070    525.844    562.623    -36.779    454.375    562.633    454.375    454.375    454.375
111.170    507.443    557.787    -50.344    454.285    557.795    454.285    454.285    454.285
111.270    516.126    553.918    -37.792    454.198    553.924    454.198    454.198    454.198
111.370    559.000    550.960      8.040    454.113    550.964    454.113    454.113    454.113
111.470    581.000    548.843     32.157    454.032    548.846    454.032    454.032    454.032
111.570    569.000    547.490     21.510    453.953    547.492    453.953    453.953    453.953
111.670    548.000    546.821      1.179    453.877    546.821    453.877    453.877    453.877
111.770    517.845    546.753    -28.908    453.804    546.753    453.804    453.804    453.804
111.870    548.000    547.209      0.791    453.734    547.208    453.734    453.734    453.734
111.970    543.000    548.118     -5.118    453.667    548.116    453.667    453.667    453.667
112.070    578.000    549.423     28.577    453.603    549.420    453.603    453.603    453.603
112.170    549.000    551.065     -2.065    453.542    551.062    453.542    453.542    453.542
112.270    539.536    553.002    -13.466    453.484    552.998    453.484    453.484    453.484
112.370    582.954    555.196     27.758    453.429    555.192    453.429    453.429    453.429
112.470    529.000    557.638    -28.638    453.378    557.633    453.378    453.378    453.378
112.570    575.034    560.326     14.708    453.330    560.321    453.330    453.330    453.330
112.670    570.000    563.264      6.736    453.285    563.259    453.285    453.285    453.285
112.770    614.117    566.472     47.645    453.243    566.467    453.243    453.243    453.243
112.870    559.000    569.985    -10.985    453.205    569.980    453.205    453.205    453.205
112.970    613.794    573.851     39.942    453.170    573.847    453.170    453.170    453.170
113.070    585.000    578.135      6.865    453.139    578.130    453.139    453.139    453.139
113.170    596.000    582.917     13.083    453.111    582.911    453.111    453.111    453.111
113.270    597.000    588.303      8.697    453.087    588.297    453.087    453.087    453.087
113.370    614.000    594.428     19.572    453.066    594.422    453.066    453.066    453.066
113.470    609.000    601.463      7.537    453.049    601.456    453.049    453.049    453.049
113.570    632.000    609.627     22.373    453.036    609.619    453.036    453.036    453.036
113.670    609.000    619.199    -10.199    453.026    619.190    453.026    453.026    453.026
113.770    628.000    630.532     -2.532    453.020    630.521    453.020    453.020    453.020
113.870    689.000    644.067     44.933    453.018    644.053    453.018    453.018    453.018
113.970    672.000    660.354     11.646    453.020    660.338    453.020    453.020    453.020
114.070    675.000    680.069     -5.069    453.026    680.049    453.026    453.026    453.026
114.170    735.000    704.035     30.965    453.036    704.010    453.036    453.036    453.036
114.270    705.000    733.234    -28.234    453.050    733.203    453.050    453.050    453.050
114.370    756.890    768.829    -11.940    453.068    768.790    453.068    453.068    453.068
114.470    841.000    812.170     28.830    453.090    812.122    453.090    453.090    453.090
114.570    857.000    864.797     -7.797    453.116    864.737    453.116    453.116    453.116
114.670    867.655    928.432    -60.778    453.147    928.359    453.147    453.147    453.147
114.770   1035.000   1004.965     30.035    453.181   1004.876    453.181    453.181    453.181
114.870   1109.000   1096.413     12.587    453.221   1096.307    453.221    453.221    453.221
114.970   1281.000   1204.876     76.124    453.264   1204.748    453.264    453.264    453.264
115.070   1262.294   1332.462    -70.168    453.312   1332.312    453.312    453.312    453.312
115.170   1524.000   1481.207     42.793    453.364   1481.031    453.364    453.364    453.364
115.270   1703.000   1652.968     50.032    453.421   1652.765    453.421    453.421    453.421
115.370   1925.000   1849.306     75.694    453.482   1849.074    453.482    453.482    453.482
115.470   2163.000   2071.357     91.643    453.548   2071.096    453.548    453.548    453.548
115.570   2465.000   2319.702    145.298    453.619   2319.411    453.619    453.619    453.619
115.670   2616.820   2594.234     22.586    453.694   2593.914    453.694    453.694    453.694
115.770   2854.838   2894.035    -39.197    453.774   2893.689    453.774    453.774    453.774
115.870   3246.000   3217.274     28.726    453.859   3216.905    453.859    453.859    453.859
115.970   3558.000   3561.122     -3.122    453.949   3560.734    453.949    453.949    453.949
116.070   3932.000   3921.693     10.307    454.044   3921.294    454.044    454.044    454.044
116.170   4154.314   4294.023   -139.708    454.144   4293.619    454.144    454.144    454.144
116.270   4623.367   4672.067    -48.700    454.249   4671.668    454.249    454.249    454.249
116.370   5125.732   5048.743     76.989    454.359   5048.360    454.359    454.359    454.359
116.470   5454.967   5416.010     38.957    454.474   5415.653    454.474    454.474    454.474
116.570   5926.000   5764.996    161.004    454.594   5764.679    454.594    454.594    454.594
116.670   6191.814   6086.223    105.591    454.719   6085.959    454.719    454.719    454.719
116.770   6373.000   6369.931      3.069    454.850   6369.732    454.850    454.850    454.850
116.870   6774.042   6606.562    167.479    454.986   6606.442    454.986    454.986    454.986
116.970   6765.786   6787.401    -21.615    455.128   6787.369    455.128    455.128    455.128
117.070   6909.000   6905.316      3.684    455.275   6905.381    455.275    455.275    455.275
117.170   6796.030   6955.501   -159.471    455.427   6955.667    455.427    455.427    455.427
117.270   6836.000   6936.038   -100.038    455.586   6936.306    455.586    455.586    455.586
117.370   6821.000   6848.134    -27.134    455.749   6848.499    455.749    455.749    455.749
117.470   6588.000   6695.960   -107.960    455.919   6696.411    455.919    455.919    455.919
117.570   6273.000   6486.134   -213.134    456.094   6486.660    456.094    456.094    456.094
117.670   6388.669   6227.009    161.660    456.275   6227.594    456.275    456.275    456.275
117.770   5901.000   5927.909    -26.909    456.462   5928.538    456.462    456.462    456.462
117.870   5435.000   5598.468   -163.468    456.655   5599.124    456.655    456.655    456.655
117.970   5145.842   5248.113   -102.271    456.853   5248.781    456.853    456.853    456.853
118.070   4969.996   4885.688     84.308    457.058   4886.354    457.058    457.058    457.058
118.170   4594.000   4519.241     74.759    457.269   4519.893    457.269    457.269    457.269
118.270   4100.000   4155.960    -55.960    457.486   4156.587    457.486    457.486    457.486
118.370   3868.037   3801.884     66.153    457.710   3802.477    457.710    457.710    457.710
118.470   3397.000   3462.017    -65.017    457.939   3462.570    457.939    457.939    457.939
118.570   3201.024   3140.301     60.723    458.175   3140.808    458.175    458.175    458.175
118.670   2820.000   2839.647    -19.647    458.417   2840.106    458.417    458.417    458.417
118.770   2564.173   2562.003      2.170    458.666   2562.414    458.666    458.666    458.666
118.870   2362.553   2308.449     54.105    458.921   2308.811    458.921    458.921    458.921
118.970   2030.000   2079.300    -49.300    459.183   2079.615    459.183    459.183    459.183
119.070   1952.490   1874.230     78.260    459.451   1874.500    459.451    459.451    459.451
119.170   1677.584   1692.387    -14.803    459.726   1692.616    459.726    459.726    459.726
119.270   1499.000   1532.513    -33.513    460.008   1532.705    460.008    460.008    460.008
119.370   1357.000   1393.053    -36.053    460.297   1393.211    460.297    460.297    460.297
119.470   1310.343   1272.258     38.085    460.593   1272.387    460.593    460.593    460.593
119.570   1212.000   1168.284     43.716    460.895   1168.388    460.895    460.895    460.895
119.670   1087.000   1079.264      7.736    461.205   1079.347    461.205    461.205    461.205
119.770   1023.000   1003.381     19.619    461.521   1003.446    461.521    461.521    461.521
119.870    887.018    938.914    -51.895    461.845    938.965    461.845    461.845    461.845
119.970    843.287    884.277    -40.990    462.176    884.317    462.176    462.176    462.176
120.070    842.000    838.039      3.961    462.514    838.071    462.514    462.514    462.514
120.170    802.760    798.935      3.825    462.859    798.960    462.859    462.859    462.859
120.270    710.643    765.863    -55.220    463.212    765.884    463.212    463.212    463.212
120.370    721.000    737.882    -16.882    463.572    737.899    463.572    463.572    463.572
120.470    679.000    714.193    -35.193    463.940    714.209    463.940    463.940    463.940
120.570    669.009    694.132    -25.123    464.316    694.146    464.316    464.316    464.316
120.670    636.000    677.146    -41.146    464.699    677.159    464.699    464.699    464.699
120.770    643.294    662.783    -19.489    465.089    662.795    465.089    465.089    465.089
120.870    654.634    650.671      3.963    465.488    650.684    465.488    465.488    465.488
120.970    673.000    640.510     32.490    465.894    640.523    465.894    465.894    465.894
121.070    627.000    632.054     -5.054    466.308    632.067    466.308    466.308    466.308
121.170    586.000    625.101    -39.101    466.730    625.114    466.730    466.730    466.730
121.270    571.000    619.487    -48.487    467.161    619.501    467.161    467.161    467.161
121.370    601.000    615.076    -14.076    467.599    615.091    467.599    467.599    467.599
121.470    572.000    611.751    -39.751    468.046    611.768    468.046    468.046    468.046
121.570    605.000    609.415     -4.415    468.500    609.432    468.500    468.500    468.500
121.670    601.000    607.980     -6.980    468.963    607.998    468.963    468.963    468.963
121.770    623.000    607.366     15.634    469.435    607.386    469.435    469.435    469.435
121.870    579.000    607.498    -28.498    469.915    607.519    469.915    469.915    469.915
121.970    618.000    608.303      9.697    470.403    608.326    470.403    470.403    470.403
122.070    620.318    609.708     10.610    470.900    609.733    470.900    470.900    470.900
122.170    593.464    611.637    -18.173    471.406    611.665    471.406    471.406    471.406
122.270    595.000    614.012    -19.012    471.920    614.042    471.920    471.920    471.920
122.370    588.512    616.748    -28.236    472.444    616.780    472.444    472.444    472.444
122.470    602.000    619.756    -17.756    472.976    619.791    472.976    472.976    472.976
122.570    590.000    622.941    -32.941    473.517    622.979    473.517    473.517    473.517
122.670    649.000    626.202     22.798    474.067    626.243    474.067    474.067    474.067
122.770    644.000    629.431     14.569    474.626    629.475    474.626    474.626    474.626
122.870    688.217    632.518     55.699    475.194    632.565    475.194    475.194    475.194
122.970    675.000    635.348     39.652    475.772    635.398    475.772    475.772    475.772
123.070    589.891    637.810    -47.919    476.358    637.863    476.358    476.358    476.358
123.170    652.000    639.795     12.205    476.955    639.850    476.955    476.955    476.955
123.270    636.000    641.207     -5.207    477.560    641.264    477.560    477.560    477.560
123.370    636.923    641.966     -5.043    478.175    642.026    478.175    478.175    478.175
123.470    619.400    642.015    -22.614    478.800    642.076    478.800    478.800    478.800
123.570    677.000    641.321     35.679    479.435    641.383    479.435    479.435    479.435
123.670    615.149    639.882    -24.733    480.079    639.944    480.079    480.079    480.079
123.770    681.241    637.718     43.523    480.733    637.781    480.733    480.733    480.733
123.870    662.000    634.877     27.123    481.396    634.939    481.396    481.396    481.396
123.970    670.299    631.421     38.879    482.070    631.482    482.070    482.070    482.070
124.070    638.000    627.426     10.574    482.754    627.486    482.754    482.754    482.754
124.170    623.000    622.976      0.024    483.448    623.034    483.448    483.448    483.448
124.270    596.249    618.158    -21.908    484.152    618.214    484.152    484.152    484.152
124.370    583.407    613.059    -29.651    484.867    613.112    484.867    484.867    484.867
124.470    616.000    607.764      8.236    485.592    607.815    485.592    485.592    485.592
124.570    609.000    602.355      6.645    486.327    602.403    486.327    486.327    486.327
124.670    560.965    596.910    -35.945    487.073    596.955    487.073    487.073    487.073
124.770    626.000    591.499     34.501    487.829    591.541    487.829    487.829    487.829
124.870    587.000    586.187      0.813    488.596    586.226    488.596    488.596    488.596
124.970    582.000    581.031      0.969    489.374    581.067    489.374    489.374    489.374
