neutron_powder_diffraction_0159
R_wp: 4.023
Temperature (K): 1074.000
Counts: 83898.00
Wavelength (Ã…): 2.52098
COMMENTS
Test file for demonstrating the .xyy file format in Reel1.0
END OF HEADER
   tth       Y_obs     Y_calc      Y_res    Background    Phase_1_Nuc    Phase_1_Mag    Phase_2_Nuc    Phase_2_Mag
  9.970    530.395    574.877    -44.482    574.108    574.821    574.108    574.163    574.108
 10.070    581.932    574.933      6.999    574.103    574.878    574.103    574.158    574.103
 10.170    607.000    574.994     32.006    574.092    574.938    574.092    574.148    574.092
 10.270    599.000    575.061     23.939    574.077    575.004    574.077    574.133    574.077
 10.370    635.000    575.136     59.864    574.057    575.079    574.057    574.114    574.057
 10.470    622.000    575.223     46.777    574.033    575.166    574.033    574.089    574.033
 10.570    577.000    575.325      1.675    574.003    575.268    574.003    574.060    574.003
 10.670    572.000    575.448     -3.448    573.969    575.391    573.969    574.026    573.969
 10.770    549.895    575.600    -25.705    573.930    575.542    573.930    573.988    573.930
 10.870    598.383    575.789     22.594    573.887    575.731    573.887    573.944    573.887
 10.970    595.000    576.028     18.972    573.839    575.969    573.839    573.897    573.839
 11.070    600.000    576.337     23.663    573.787    576.278    573.787    573.845    573.787
 11.170    569.000    576.743     -7.743    573.730    576.684    573.730    573.788    573.730
 11.270    587.311    577.291     10.020    573.669    577.230    573.669    573.727    573.669
 11.370    586.047    578.054      7.993    573.603    577.993    573.603    573.662    573.603
 11.470    581.463    579.201      2.262    573.533    579.139    573.533    573.592    573.533
 11.570    601.000    581.189     19.811    573.459    581.125    573.459    573.518    573.459
 11.670    588.000    585.257      2.743    573.381    585.191    573.381    573.440    573.381
 11.770    573.043    594.138    -21.095    573.298    594.067    573.298    573.358    573.298
 11.870    605.000    612.012     -7.012    573.212    611.931    573.212    573.272    573.212
 11.970    623.469    641.862    -18.393    573.121    641.763    573.121    573.181    573.121
 12.070    687.000    679.640      7.360    573.026    679.519    573.026    573.087    573.026
 12.170    716.000    709.062      6.938    572.927    708.924    572.927    572.988    572.927
 12.270    652.000    709.919    -57.919    572.824    709.780    572.824    572.886    572.824
 12.370    693.661    681.358     12.302    572.718    681.235    572.718    572.779    572.718
 12.470    607.000    643.234    -36.234    572.607    643.132    572.607    572.669    572.607
 12.570    606.040    612.536     -6.496    572.493    612.451    572.493    572.555    572.493
 12.670    592.614    593.870     -1.256    572.375    593.796    572.375    572.437    572.375
 12.770    537.545    584.439    -46.893    572.253    584.369    572.253    572.316    572.253
 12.870    568.000    580.013    -12.013    572.127    579.945    572.127    572.190    572.127
 12.970    562.000    577.762    -15.762    571.998    577.696    571.998    572.062    571.998
 13.070    572.000    576.392     -4.392    571.866    576.323    571.866    571.933    571.866
 13.170    533.000    575.417    -42.417    571.729    575.346    571.729    571.798    571.729
 13.270    579.119    574.662      4.457    571.589    574.591    571.589    571.659    571.589
 13.370    556.000    574.052    -18.052    571.446    573.981    571.446    571.516    571.446
 13.470    544.000    573.544    -29.544    571.299    573.472    571.299    571.370    571.299
 13.570    601.822    573.108     28.714    571.149    573.036    571.149    571.220    571.149
 13.670    543.000    572.724    -29.724    570.996    572.652    570.996    571.067    570.996
 13.770    537.070    572.378    -35.308    570.839    572.306    570.839    570.910    570.839
 13.870    584.000    572.062     11.938    570.679    571.990    570.679    570.751    570.679
 13.970    608.425    571.769     36.656    570.515    571.697    570.515    570.588    570.515
 14.070    566.000    571.496     -5.496    570.349    571.423    570.349    570.421    570.349
 14.170    542.000    571.235    -29.235    570.179    571.162    570.179    570.252    570.179
 14.270    540.000    570.983    -30.983    570.007    570.910    570.007    570.080    570.007
 14.370    564.831    570.739     -5.908    569.831    570.665    569.831    569.904    569.831
 14.470    529.000    570.501    -41.501    569.652    570.426    569.652    569.726    569.652
 14.570    587.000    570.267     16.733    569.470    570.192    569.470    569.544    569.470
 14.670    598.604    570.037     28.567    569.285    569.962    569.285    569.360    569.285
 14.770    573.141    569.809      3.332    569.098    569.734    569.098    569.173    569.098
 14.870    567.562    569.583     -2.021    568.907    569.508    568.907    568.983    568.907
 14.970    534.000    569.359    -35.359    568.714    569.283    568.714    568.790    568.714
 15.070    564.000    569.135     -5.135    568.518    569.058    568.518    568.594    568.518
 15.170    601.222    568.911     32.310    568.319    568.834    568.319    568.395    568.319
 15.270    580.000    568.687     11.313    568.117    568.610    568.117    568.194    568.117
 15.370    548.000    568.463    -20.463    567.913    568.386    567.913    567.990    567.913
 15.470    558.309    568.239     -9.930    567.706    568.160    567.706    567.784    567.706
 15.570    502.000    568.013    -66.013    567.496    567.935    567.496    567.575    567.496
 15.670    544.000    567.787    -23.787    567.284    567.708    567.284    567.363    567.284
 15.770    603.190    567.559     35.630    567.069    567.480    567.069    567.149    567.069
 15.870    572.000    567.331      4.669    566.852    567.251    566.852    566.932    566.852
 15.970    562.000    567.101     -5.101    566.633    567.021    566.633    566.713    566.633
 16.070    578.000    566.870     11.130    566.411    566.789    566.411    566.491    566.411
 16.170    564.851    566.637     -1.786    566.186    566.556    566.186    566.267    566.186
 16.270    533.000    566.403    -33.403    565.959    566.321    565.959    566.041    565.959
 16.370    574.000    566.167      7.833    565.730    566.085    565.730    565.813    565.730
 16.470    560.327    565.930     -5.603    565.499    565.848    565.499    565.582    565.499
 16.570    540.000    565.694    -25.694    565.265    565.611    565.265    565.349    565.265
 16.670    599.411    565.454     33.957    565.030    565.370    565.030    565.113    565.030
 16.770    532.593    565.212    -32.619    564.792    565.128    564.792    564.876    564.792
 16.870    571.000    564.969      6.031    564.552    564.884    564.552    564.636    564.552
 16.970    544.735    564.724    -19.989    564.310    564.638    564.310    564.395    564.310
 17.070    541.000    564.477    -23.477    564.065    564.391    564.065    564.151    564.065
 17.170    589.000    564.229     24.771    563.819    564.142    563.819    563.905    563.819
 17.270    539.570    563.979    -24.409    563.571    563.892    563.571    563.658    563.571
 17.370    535.000    563.728    -28.728    563.321    563.640    563.321    563.408    563.321
 17.470    573.442    563.475      9.967    563.068    563.387    563.068    563.157    563.068
 17.570    595.669    563.221     32.449    562.814    563.132    562.814    562.903    562.814
 17.670    499.000    562.966    -63.966    562.559    562.876    562.559    562.648    562.559
 17.770    580.000    562.710     17.290    562.301    562.620    562.301    562.391    562.301
 17.870    556.049    562.451     -6.403    562.041    562.361    562.041    562.132    562.041
 17.970    559.000    562.191     -3.191    561.780    562.100    561.780    561.871    561.780
 18.070    573.693    561.929     11.764    561.517    561.838    561.517    561.609    561.517
 18.170    543.000    561.666    -18.666    561.252    561.574    561.252    561.345    561.252
 18.270    562.147    561.402      0.745    560.986    561.309    560.986    561.079    560.986
 18.370    585.000    561.138     23.862    560.718    561.042    560.718    560.814    560.718
 18.470    521.989    560.872    -38.883    560.448    560.775    560.448    560.545    560.448
 18.570    559.000    560.604     -1.604    560.177    560.506    560.177    560.275    560.177
 18.670    549.766    560.334    -10.568    559.905    560.235    559.905    560.003    559.905
 18.770    537.000    560.063    -23.063    559.630    559.964    559.630    559.730    559.630
 18.870    515.000    559.791    -44.791    559.355    559.691    559.355    559.455    559.355
 18.970    591.000    559.520     31.480    559.078    559.419    559.078    559.178    559.078
 19.070    528.000    559.260    -31.260    558.799    559.158    558.799    558.901    558.799
 19.170    528.044    558.995    -30.951    558.519    558.893    558.519    558.622    558.519
 19.270    529.821    558.720    -28.899    558.238    558.617    558.238    558.341    558.238
 19.370    538.290    558.443    -20.154    557.955    558.339    557.955    558.059    557.955
 19.470    549.000    558.165     -9.165    557.672    558.060    557.672    557.776    557.672
 19.570    586.000    557.887     28.113    557.386    557.781    557.386    557.492    557.386
 19.670    556.000    557.607     -1.607    557.100    557.500    557.100    557.207    557.100
 19.770    570.000    557.326     12.674    556.813    557.219    556.813    556.920    556.813
 19.870    575.000    557.045     17.955    556.524    556.937    556.524    556.632    556.524
 19.970    594.787    556.763     38.023    556.234    556.654    556.234    556.343    556.234
 20.070    532.000    556.481    -24.481    555.943    556.371    555.943    556.053    555.943
 20.170    555.000    556.198     -1.198    555.651    556.087    555.651    555.762    555.651
 20.270    513.406    555.914    -42.508    555.358    555.802    555.358    555.470    555.358
 20.370    537.633    555.630    -17.997    555.064    555.517    555.064    555.177    555.064
 20.470    575.000    555.346     19.654    554.768    555.231    554.768    554.883    554.768
 20.570    598.775    555.061     43.714    554.472    554.945    554.472    554.588    554.472
 20.670    585.000    554.784     30.216    554.175    554.668    554.175    554.292    554.175
 20.770    578.000    554.584     23.416    553.877    554.466    553.877    553.995    553.877
 20.870    539.000    554.321    -15.321    553.578    554.202    553.578    553.697    553.578
 20.970    552.000    554.037     -2.037    553.279    553.917    553.279    553.399    553.279
 21.070    532.303    553.752    -21.449    552.978    553.631    552.978    553.099    552.978
 21.170    526.000    553.467    -27.467    552.677    553.345    552.677    552.799    552.677
 21.270    552.000    553.183     -1.183    552.375    553.059    552.375    552.499    552.375
 21.370    559.000    552.901      6.099    552.072    552.776    552.072    552.197    552.072
 21.470    586.325    552.623     33.703    551.768    552.496    551.768    551.895    551.768
 21.570    560.000    552.343      7.657    551.464    552.215    551.464    551.592    551.464
 21.670    579.000    552.062     26.938    551.159    551.933    551.159    551.288    551.159
 21.770    512.221    551.782    -39.560    550.853    551.651    550.853    550.984    550.853
 21.870    562.000    551.505     10.495    550.547    551.372    550.547    550.679    550.547
 21.970    528.203    551.248    -23.046    550.240    551.114    550.240    550.374    550.240
 22.070    522.000    551.005    -29.005    549.933    550.870    549.933    550.068    549.933
 22.170    575.000    550.782     24.218    549.625    550.644    549.625    549.762    549.625
 22.270    505.944    550.531    -44.587    549.316    550.392    549.316    549.455    549.316
 22.370    528.562    550.267    -21.705    549.007    550.126    549.007    549.148    549.007
 22.470    562.376    550.005     12.371    548.698    549.862    548.698    548.841    548.698
 22.570    585.484    549.748     35.736    548.388    549.604    548.388    548.533    548.388
 22.670    562.000    549.497     12.503    548.077    549.351    548.077    548.224    548.077
 22.770    615.000    549.253     65.747    547.767    549.104    547.767    547.916    547.767
 22.870    591.350    549.017     42.333    547.456    548.866    547.456    547.607    547.456
 22.970    539.000    548.792     -9.792    547.144    548.639    547.144    547.297    547.144
 23.070    519.000    548.579    -29.579    546.832    548.424    546.832    546.988    546.832
 23.170    520.784    548.383    -27.598    546.520    548.225    546.520    546.678    546.520
 23.270    526.000    548.205    -22.205    546.208    548.045    546.208    546.368    546.208
 23.370    556.628    548.052      8.576    545.895    547.890    545.895    546.058    545.895
 23.470    592.208    547.932     44.276    545.582    547.767    545.582    545.748    545.582
 23.570    559.540    547.853     11.687    545.269    547.686    545.269    545.438    545.269
 23.670    568.000    547.832     20.168    544.956    547.662    544.956    545.128    544.956
 23.770    511.000    547.889    -36.889    544.643    547.716    544.643    544.817    544.643
 23.870    547.507    548.059     -0.552    544.329    547.882    544.329    544.507    544.329
 23.970    574.630    548.405     26.225    544.015    548.226    544.015    544.197    544.015
 24.070    548.184    549.082     -0.898    543.702    548.900    543.702    543.887    543.702
 24.170    568.000    550.511     17.489    543.388    550.326    543.388    543.576    543.388
 24.270    594.000    553.730     40.270    543.074    553.544    543.074    543.266    543.074
 24.370    595.000    560.752     34.248    542.760    560.567    542.760    542.957    542.760
 24.470    627.000    574.098     52.902    542.446    573.919    542.446    542.647    542.446
 24.570    649.000    594.753     54.247    542.132    594.583    542.132    542.338    542.132
 24.670    646.000    618.583     27.417    541.818    618.426    541.818    542.028    541.818
 24.770    612.000    634.169    -22.169    541.504    634.018    541.504    541.720    541.504
 24.870    596.000    630.368    -34.368    541.190    630.210    541.190    541.411    541.190
 24.970    630.000    610.176     19.824    540.876    609.997    540.876    541.103    540.876
 25.070    540.000    586.135    -46.135    540.563    585.934    540.563    540.796    540.563
 25.170    585.582    567.259     18.322    540.249    567.038    540.249    540.489    540.249
 25.270    594.114    555.662     38.452    539.936    555.426    539.936    540.182    539.936
 25.370    578.280    549.578     28.702    539.623    549.330    539.623    539.876    539.623
 25.470    592.000    546.551     45.449    539.310    546.293    539.310    539.571    539.310
 25.570    570.848    544.919     25.929    538.997    544.653    538.997    539.267    538.997
 25.670    529.000    543.866    -14.866    538.685    543.590    538.685    538.963    538.685
 25.770    563.000    543.096     19.904    538.373    542.810    538.373    538.660    538.373
 25.870    532.000    542.515    -10.515    538.061    542.218    538.061    538.358    538.061
 25.970    574.389    542.036     32.353    537.749    541.728    537.749    538.058    537.749
 26.070    558.000    541.618     16.382    537.437    541.298    537.437    537.758    537.437
 26.170    571.826    541.267     30.559    537.126    540.934    537.126    537.460    537.126
 26.270    572.152    540.974     31.178    536.816    540.627    536.816    537.163    536.816
 26.370    556.000    540.735     15.265    536.505    540.372    536.505    536.868    536.505
 26.470    526.222    540.547    -14.325    536.195    540.168    536.195    536.575    536.195
 26.570    549.000    540.414      8.586    535.886    540.017    535.886    536.283    535.886
 26.670    551.565    540.350     11.215    535.577    539.933    535.577    535.994    535.577
 26.770    602.000    540.364     61.636    535.268    539.925    535.268    535.707    535.268
 26.870    523.902    540.433    -16.531    534.960    539.969    534.960    535.423    534.960
 26.970    573.486    540.594     32.892    534.652    540.103    534.652    535.142    534.652
 27.070    548.916    540.874      8.042    534.345    540.354    534.345    534.864    534.345
 27.170    530.000    541.311    -11.311    534.038    540.758    534.038    534.590    534.038
 27.270    551.000    541.959      9.041    533.732    541.369    533.732    534.321    533.732
 27.370    562.000    542.906     19.094    533.426    542.274    533.426    534.057    533.426
 27.470    539.000    544.296     -5.296    533.121    543.616    533.121    533.799    533.121
 27.570    549.440    546.545      2.895    532.816    545.811    532.816    533.548    532.816
 27.670    585.000    551.070     33.930    532.512    550.273    532.512    533.305    532.512
 27.770    544.000    562.648    -18.648    532.209    561.777    532.209    533.072    532.209
 27.870    581.000    593.231    -12.231    531.906    592.268    531.906    532.851    531.906
 27.970    648.000    661.062    -13.062    531.604    659.982    531.604    532.644    531.604
 28.070    763.644    773.754    -10.109    531.302    772.530    531.302    532.455    531.302
 28.170    969.000    899.189     69.811    531.001    897.805    531.001    532.288    531.001
 28.270    968.000    960.935      7.065    530.701    959.393    530.701    532.149    530.701
 28.370    890.000    908.895    -18.895    530.402    907.193    530.402    532.045    530.402
 28.470    811.944    796.542     15.402    530.103    794.631    530.103    531.990    530.103
 28.570    686.000    709.527    -23.527    529.805    707.318    529.805    532.004    529.805
 28.670    752.000    692.146     59.854    529.508    689.521    529.508    532.119    529.508
 28.770    701.857    739.292    -37.435    529.211    736.099    529.211    532.386    529.211
 28.870    767.000    809.833    -42.833    528.916    805.855    528.916    532.881    528.916
 28.970    864.581    843.032     21.548    528.621    837.946    528.621    533.710    528.621
 29.070    749.000    803.128    -54.128    528.326    796.468    528.326    535.000    528.326
 29.170    728.214    721.169      7.045    528.033    712.340    528.033    536.876    528.033
 29.270    601.000    645.374    -44.374    527.741    633.701    527.741    539.421    527.741
 29.370    573.554    597.727    -24.172    527.449    582.594    527.449    542.585    527.449
 29.470    568.000    575.675     -7.675    527.158    556.812    527.158    546.020    527.158
 29.570    524.481    567.657    -43.176    526.868    545.631    526.868    548.893    526.868
 29.670    575.000    564.142     10.858    526.579    540.699    526.579    550.019    526.579
 29.770    577.000    560.498     16.502    526.291    538.071    526.291    548.716    526.291
 29.870    592.000    555.867     36.133    526.004    536.372    526.004    545.497    526.004
 29.970    599.000    550.989     48.011    525.718    535.181    525.718    541.524    525.718
 30.070    563.000    546.642     16.358    525.432    534.365    525.432    537.707    525.432
 30.170    543.000    543.223     -0.223    525.148    533.900    525.148    534.468    525.148
 30.270    593.000    540.940     52.060    524.865    533.902    524.865    531.900    524.865
 30.370    590.000    540.186     49.814    524.582    534.826    524.582    529.938    524.582
 30.470    608.000    542.021     65.979    524.301    537.856    524.301    528.459    524.301
 30.570    552.000    548.491      3.509    524.020    545.162    524.020    527.336    524.020
 30.670    565.000    561.811      3.189    523.741    559.070    523.741    526.459    523.741
 30.770    619.000    581.757     37.243    523.462    579.436    523.462    525.746    523.462
 30.870    665.000    602.375     62.625    523.185    600.365    523.185    525.142    523.185
 30.970    623.000    611.759     11.241    522.909    609.999    522.909    524.613    522.909
 31.070    619.000    602.065     16.935    522.633    600.517    522.633    524.136    522.633
 31.170    589.000    580.564      8.436    522.359    579.196    522.359    523.696    522.359
 31.270    572.059    559.153     12.906    522.086    557.936    522.086    523.287    522.086
 31.370    547.000    544.037      2.963    521.814    542.942    521.814    522.900    521.814
 31.470    537.468    535.576      1.892    521.543    534.582    521.543    522.533    521.543
 31.570    522.716    531.489     -8.773    521.273    530.579    521.273    522.180    521.273
 31.670    552.000    529.554     22.446    521.005    528.715    521.005    521.841    521.005
 31.770    513.000    528.515    -15.515    520.737    527.738    520.737    521.512    520.737
 31.870    534.000    527.856      6.144    520.471    527.133    520.471    521.192    520.471
 31.970    564.919    527.400     37.519    520.205    526.723    520.205    520.880    520.205
 32.070    532.000    527.085      4.915    519.941    526.450    519.941    520.575    519.941
 32.170    525.000    526.890     -1.890    519.678    526.291    519.678    520.276    519.678
 32.270    561.000    526.806     34.194    519.417    526.239    519.417    519.983    519.417
 32.370    530.000    526.835      3.165    519.156    526.296    519.156    519.694    519.156
 32.470    536.000    526.985      9.015    518.897    526.472    518.897    519.409    518.897
 32.570    529.000    527.273      1.727    518.639    526.783    518.639    519.128    518.639
 32.670    548.000    527.726     20.274    518.382    527.257    518.382    518.851    518.382
 32.770    523.994    528.385     -4.391    518.126    527.934    518.126    518.576    518.126
 32.870    584.000    529.306     54.694    517.872    528.871    517.872    518.305    517.872
 32.970    518.000    530.575    -12.575    517.619    530.156    517.619    518.037    517.619
 33.070    524.902    532.327     -7.425    517.367    531.921    517.367    517.772    517.367
 33.170    522.825    534.805    -11.980    517.117    534.411    517.117    517.509    517.117
 33.270    496.121    538.580    -42.459    516.867    538.197    516.867    517.248    516.867
 33.370    503.572    545.193    -41.620    516.619    544.819    516.619    516.990    516.619
 33.470    573.000    558.636     14.364    516.373    558.269    516.373    516.734    516.373
 33.570    640.000    587.400     52.600    516.127    587.037    516.127    516.480    516.127
 33.670    599.484    644.641    -45.157    515.883    644.275    515.883    516.228    515.883
 33.770    760.000    741.929     18.071    515.640    741.554    515.640    515.978    515.640
 33.870    905.956    874.931     31.025    515.399    874.545    515.399    515.730    515.399
 33.970   1040.424   1007.567     32.857    515.159   1007.177    515.159    515.483    515.159
 34.070   1089.000   1072.359     16.641    514.920   1071.983    514.920    515.239    514.920
 34.170   1055.161   1023.722     31.439    514.683   1023.379    514.683    514.997    514.683
 34.270    908.000    897.352     10.648    514.447    897.038    514.447    514.756    514.447
 34.370    722.000    761.096    -39.096    514.212    760.798    514.212    514.517    514.212
 34.470    689.130    656.648     32.483    513.979    656.355    513.979    514.280    513.979
 34.570    609.000    592.728     16.272    513.747    592.436    513.747    514.045    513.747
 34.670    562.000    559.455      2.545    513.517    559.163    513.517    513.811    513.517
 34.770    553.000    543.457      9.543    513.287    543.167    513.287    513.579    513.287
 34.870    531.000    535.434     -4.434    513.060    535.145    513.060    513.349    513.060
 34.970    570.480    530.755     39.725    512.833    530.468    512.833    513.120    512.833
 35.070    553.000    527.562     25.438    512.609    527.277    512.609    512.893    512.609
 35.170    551.603    525.165     26.438    512.385    524.882    512.385    512.667    512.385
 35.270    510.000    523.276    -13.276    512.163    522.995    512.163    512.444    512.163
 35.370    498.000    521.748    -23.748    511.943    521.468    511.943    512.221    511.943
 35.470    517.000    520.484     -3.484    511.723    520.206    511.723    512.001    511.723
 35.570    543.637    519.421     24.217    511.506    519.144    511.506    511.782    511.506
 35.670    521.000    518.513      2.487    511.289    518.237    511.289    511.565    511.289
 35.770    533.000    517.727     15.273    511.075    517.452    511.075    511.349    511.075
 35.870    542.000    517.039     24.961    510.861    516.765    510.861    511.135    510.861
 35.970    464.000    516.430    -52.430    510.650    516.157    510.650    510.923    510.650
 36.070    537.352    515.888     21.464    510.439    515.615    510.439    510.712    510.439
 36.170    516.686    515.401      1.284    510.230    515.129    510.230    510.503    510.230
 36.270    528.461    514.963     13.497    510.023    514.691    510.023    510.295    510.023
 36.370    504.629    514.569     -9.940    509.817    514.297    509.817    510.089    509.817
 36.470    510.994    514.214     -3.220    509.613    513.942    509.613    509.885    509.613
 36.570    507.000    513.899     -6.899    509.410    513.626    509.410    509.682    509.410
 36.670    487.000    513.624    -26.624    509.208    513.352    509.208    509.481    509.208
 36.770    523.481    513.398     10.083    509.008    513.125    509.008    509.281    509.008
 36.870    518.000    513.244      4.756    508.810    512.970    508.810    509.084    508.810
 36.970    504.000    513.220     -9.220    508.613    512.946    508.613    508.887    508.613
 37.070    469.000    513.456    -44.456    508.418    513.182    508.418    508.693    508.418
 37.170    524.000    514.185      9.815    508.224    513.910    508.224    508.500    508.224
 37.270    522.000    515.710      6.290    508.032    515.434    508.032    508.308    508.032
 37.370    501.000    518.256    -17.256    507.841    517.979    507.841    508.118    507.841
 37.470    544.000    521.691     22.309    507.652    521.415    507.652    507.930    507.652
 37.570    482.914    525.240    -42.326    507.464    524.963    507.464    507.744    507.464
 37.670    545.288    527.460     17.827    507.278    527.184    507.278    507.559    507.278
 37.770    489.500    527.160    -37.660    507.093    526.884    507.093    507.375    507.093
 37.870    513.320    524.634    -11.314    506.910    524.359    506.910    507.194    506.910
 37.970    533.000    521.171     11.829    506.729    520.896    506.729    507.014    506.729
 38.070    542.798    517.794     25.004    506.549    517.518    506.549    506.835    506.549
 38.170    485.000    514.948    -29.948    506.371    514.669    506.371    506.659    506.371
 38.270    520.175    512.783      7.392    506.194    512.500    506.194    506.484    506.194
 38.370    468.834    511.268    -42.435    506.019    510.981    506.019    506.310    506.019
 38.470    520.000    510.260      9.740    505.845    509.969    505.845    506.139    505.845
 38.570    493.000    509.597    -16.597    505.673    509.303    505.673    505.968    505.673
 38.670    504.000    509.145     -5.145    505.502    508.848    505.502    505.800    505.502
 38.770    503.166    508.812     -5.646    505.333    508.513    505.333    505.633    505.333
 38.870    499.000    508.543     -9.543    505.166    508.242    505.166    505.468    505.166
 38.970    495.000    508.310    -13.310    505.000    508.006    505.000    505.305    505.000
 39.070    548.748    508.101     40.648    504.836    507.794    504.836    505.143    504.836
 39.170    494.000    507.908    -13.908    504.674    507.599    504.674    504.983    504.674
 39.270    512.993    507.728      5.265    504.513    507.416    504.513    504.825    504.513
 39.370    495.000    507.560    -12.560    504.353    507.245    504.353    504.668    504.353
 39.470    552.000    507.402     44.598    504.195    507.084    504.195    504.513    504.195
 39.570    465.033    507.253    -42.219    504.039    506.933    504.039    504.359    504.039
 39.670    492.000    507.113    -15.113    503.885    506.790    503.885    504.208    503.885
 39.770    508.857    506.981      1.877    503.732    506.655    503.732    504.058    503.732
 39.870    494.000    506.858    -12.858    503.580    506.528    503.580    503.910    503.580
 39.970    547.535    506.743     40.793    503.430    506.410    503.430    503.763    503.430
 40.070    516.250    506.636      9.613    503.282    506.301    503.282    503.618    503.282
 40.170    504.087    506.539     -2.453    503.135    506.200    503.135    503.475    503.135
 40.270    485.000    506.452    -21.452    502.990    506.109    502.990    503.334    502.990
 40.370    508.000    506.375      1.625    502.847    506.028    502.847    503.194    502.847
 40.470    491.000    506.310    -15.310    502.705    505.959    502.705    503.056    502.705
 40.570    466.000    506.258    -40.258    502.565    505.903    502.565    502.920    502.565
 40.670    525.000    506.221     18.779    502.426    505.862    502.426    502.785    502.426
 40.770    514.000    506.201      7.799    502.289    505.838    502.289    502.653    502.289
 40.870    499.000    506.200     -7.200    502.154    505.833    502.154    502.522    502.154
 40.970    511.000    506.224      4.776    502.020    505.852    502.020    502.392    502.020
 41.070    519.000    506.277     12.723    501.888    505.900    501.888    502.265    501.888
 41.170    516.526    506.364     10.161    501.757    505.983    501.757    502.139    501.757
 41.270    490.000    506.496    -16.496    501.628    506.110    501.628    502.015    501.628
 41.370    478.000    506.683    -28.683    501.501    506.293    501.501    501.893    501.501
 41.470    500.000    506.944     -6.944    501.375    506.548    501.375    501.773    501.375
 41.570    523.000    507.304     15.696    501.251    506.903    501.251    501.654    501.251
 41.670    481.000    507.814    -26.814    501.128    507.407    501.128    501.537    501.128
 41.770    520.000    508.585     11.415    501.008    508.173    501.008    501.422    501.008
 41.870    522.000    509.881     12.119    500.888    509.463    500.888    501.309    500.888
 41.970    536.937    512.292     24.645    500.770    511.869    500.770    501.197    500.770
 42.070    511.000    516.958     -5.958    500.654    516.531    500.654    501.088    500.654
 42.170    551.504    525.642     25.862    500.540    525.212    500.540    500.980    500.540
 42.270    568.000    540.285     27.715    500.427    539.854    500.427    500.874    500.427
 42.370    567.087    561.796      5.291    500.315    561.368    500.315    500.770    500.315
 42.470    580.000    588.315     -8.315    500.206    587.894    500.206    500.668    500.206
 42.570    585.000    613.718    -28.718    500.098    613.303    500.098    500.567    500.098
 42.670    590.000    628.187    -38.187    499.991    627.774    499.991    500.469    499.991
 42.770    574.000    624.275    -50.275    499.886    623.855    499.886    500.372    499.886
 42.870    616.000    604.243     11.757    499.783    603.806    499.783    500.278    499.783
 42.970    578.000    577.403      0.597    499.681    576.943    499.681    500.185    499.681
 43.070    567.000    552.331     14.669    499.581    551.848    499.581    500.094    499.581
 43.170    521.000    533.372    -12.372    499.482    532.868    499.482    500.005    499.482
 43.270    508.000    521.111    -13.111    499.385    520.589    499.385    499.919    499.385
 43.370    503.543    514.071    -10.529    499.290    513.534    499.290    499.834    499.290
 43.470    518.000    510.306      7.694    499.196    509.755    499.196    499.751    499.196
 43.570    512.000    508.289      3.711    499.104    507.725    499.104    499.670    499.104
 43.670    485.792    507.118    -21.326    499.013    506.542    499.013    499.592    499.013
 43.770    476.515    506.351    -29.837    498.924    505.761    498.924    499.515    498.924
 43.870    527.000    505.795     21.205    498.836    505.192    498.836    499.441    498.836
 43.970    541.000    505.369     35.631    498.750    504.752    498.750    499.369    498.750
 44.070    501.000    505.033     -4.033    498.666    504.401    498.666    499.299    498.666
 44.170    505.000    504.766      0.234    498.583    504.118    498.583    499.231    498.583
 44.270    520.018    504.552     15.466    498.502    503.888    498.502    499.166    498.502
 44.370    469.000    504.381    -35.381    498.422    503.701    498.422    499.103    498.422
 44.470    504.000    504.247     -0.247    498.344    503.549    498.344    499.043    498.344
 44.570    506.000    504.143      1.857    498.268    503.426    498.268    498.985    498.268
 44.670    547.291    504.065     43.226    498.193    503.329    498.193    498.929    498.193
 44.770    479.503    504.011    -24.508    498.119    503.254    498.119    498.876    498.119
 44.870    500.000    503.978     -3.978    498.047    503.199    498.047    498.826    498.047
 44.970    443.000    503.964    -60.964    497.977    503.162    497.977    498.779    497.977
 45.070    506.000    503.969      2.031    497.908    503.143    497.908    498.734    497.908
 45.170    481.361    503.993    -22.632    497.841    503.140    497.841    498.693    497.841
 45.270    548.000    504.033     43.967    497.775    503.153    497.775    498.655    497.775
 45.370    476.862    504.092    -27.230    497.711    503.182    497.711    498.620    497.711
 45.470    461.527    504.169    -42.642    497.648    503.228    497.648    498.588    497.648
 45.570    511.000    504.264      6.736    497.587    503.290    497.587    498.561    497.587
 45.670    529.000    504.380     24.620    497.527    503.370    497.527    498.537    497.527
 45.770    473.000    504.517    -31.517    497.469    503.469    497.469    498.517    497.469
 45.870    511.769    504.677      7.091    497.412    503.588    497.412    498.501    497.412
 45.970    527.000    504.863     22.137    497.357    503.729    497.357    498.490    497.357
 46.070    517.000    505.078     11.922    497.303    503.896    497.303    498.484    497.303
 46.170    500.000    505.325     -5.325    497.251    504.092    497.251    498.484    497.251
 46.270    488.000    505.609    -17.609    497.201    504.320    497.201    498.489    497.201
 46.370    507.000    505.937      1.063    497.151    504.587    497.151    498.500    497.151
 46.470    513.000    506.317      6.683    497.104    504.901    497.104    498.518    497.104
 46.570    547.236    506.759     40.477    497.058    505.271    497.058    498.544    497.058
 46.670    482.362    507.282    -24.920    497.013    505.715    497.013    498.579    497.013
 46.770    473.704    507.916    -34.212    496.970    506.262    496.970    498.622    496.970
 46.870    494.000    508.723    -14.723    496.928    506.972    496.928    498.676    496.928
 46.970    543.300    509.840     33.460    496.888    507.983    496.888    498.742    496.888
 47.070    446.000    511.554    -65.554    496.849    509.579    496.849    498.820    496.849
 47.170    493.614    514.402    -20.788    496.811    512.293    496.811    498.914    496.811
 47.270    545.000    519.217     25.783    496.775    516.957    496.775    499.026    496.775
 47.370    529.000    527.006      1.994    496.741    524.575    496.741    499.157    496.741
 47.470    519.000    538.529    -19.529    496.708    535.903    496.708    499.311    496.708
 47.570    606.000    553.613     52.387    496.676    550.762    496.676    499.493    496.676
 47.670    652.000    570.429     81.571    496.646    567.322    496.646    499.707    496.646
 47.770    582.000    585.091     -3.091    496.617    581.693    496.617    499.959    496.617
 47.870    601.000    592.459      8.541    496.590    588.731    496.590    500.260    496.590
 47.970    544.252    589.533    -45.281    496.564    585.425    496.564    500.619    496.564
 48.070    594.000    578.365     15.635    496.540    573.807    496.540    501.054    496.540
 48.170    561.000    563.962     -2.962    496.517    558.856    496.517    501.590    496.517
 48.270    577.000    550.693     26.307    496.495    544.900    496.495    502.266    496.495
 48.370    579.000    540.981     38.019    496.475    534.295    496.475    503.146    496.475
 48.470    560.762    535.492     25.270    496.456    527.612    496.456    504.326    496.456
 48.570    513.000    533.833    -20.833    496.438    524.316    496.438    505.950    496.438
 48.670    538.000    535.283      2.717    496.422    523.484    496.422    508.216    496.422
 48.770    528.000    539.289    -11.289    496.407    524.314    496.407    511.378    496.407
 48.870    546.000    545.647      0.353    496.394    526.316    496.394    515.720    496.394
 48.970    554.000    554.464     -0.464    496.382    529.329    496.382    521.512    496.382
 49.070    529.000    566.067    -37.067    496.371    533.514    496.371    528.919    496.371
 49.170    552.000    581.074    -29.074    496.362    539.537    496.362    537.892    496.362
 49.270    593.000    600.884     -7.884    496.354    549.240    496.354    547.987    496.354
 49.370    679.000    629.029     49.971    496.347    567.218    496.347    558.143    496.347
 49.470    647.000    673.745    -26.745    496.341    603.539    496.341    566.522    496.341
 49.570    780.000    751.366     28.634    496.337    676.769    496.337    570.888    496.337
 49.670    849.939    887.669    -37.730    496.335    814.132    496.335    569.793    496.335
 49.770   1166.679   1111.315     55.364    496.333   1043.887    496.333    563.642    496.333
 49.870   1509.000   1435.397     73.603    496.333   1377.218    496.333    554.356    496.333
 49.970   1801.000   1832.927    -31.927    496.334   1785.005    496.334    544.089    496.334
 50.070   2257.000   2221.758     35.242    496.337   2183.596    496.337    534.370    496.337
 50.170   2394.389   2477.943    -83.553    496.341   2448.254    496.341    525.995    496.341
 50.270   2422.000   2494.874    -72.874    496.346   2472.069    496.346    519.236    496.346
 50.370   2322.343   2262.163     60.180    496.352   2244.646    496.352    514.044    496.352
 50.470   1830.000   1875.941    -45.941    496.360   1862.302    496.360    510.202    496.360
 50.570   1403.000   1464.549    -61.549    496.368   1453.671    496.368    507.431    496.368
 50.670   1173.798   1120.893     52.905    496.378   1111.960    496.378    505.453    496.378
 50.770    761.000    882.373   -121.373    496.390    874.826    496.390    504.035    496.390
 50.870    735.000    741.697     -6.697    496.402    735.166    496.402    503.000    496.402
 50.970    664.341    669.629     -5.288    496.416    663.870    496.416    502.224    496.416
 51.070    655.284    634.971     20.313    496.431    629.818    496.431    501.624    496.431
 51.170    584.308    615.228    -30.920    496.447    610.561    496.447    501.149    496.447
 51.270    603.000    599.055      3.945    496.465    594.786    496.465    500.764    496.465
 51.370    613.000    583.419     29.581    496.483    579.478    496.483    500.448    496.483
 51.470    615.515    568.967     46.548    496.503    565.301    496.503    500.187    496.503
 51.570    535.608    556.890    -21.283    496.524    553.458    496.524    499.970    496.524
 51.670    535.000    547.804    -12.804    496.546    544.570    496.546    499.789    496.546
 51.770    556.151    541.643     14.508    496.570    538.580    496.570    499.639    496.570
 51.870    544.000    537.914      6.086    496.594    534.996    496.594    499.516    496.594
 51.970    522.377    536.005    -13.628    496.620    533.213    496.620    499.415    496.620
 52.070    530.393    535.419     -5.026    496.647    532.734    496.647    499.333    496.647
 52.170    523.542    535.869    -12.326    496.675    533.276    496.675    499.269    496.675
 52.270    556.000    537.312     18.688    496.704    534.798    496.704    499.220    496.704
 52.370    543.000    540.002      2.998    496.734    537.553    496.734    499.184    496.734
 52.470    615.000    544.664     70.336    496.766    542.270    496.766    499.160    496.766
 52.570    515.870    552.852    -36.982    496.798    550.503    496.798    499.147    496.798
 52.670    603.000    567.447     35.553    496.832    565.134    496.832    499.144    496.832
 52.770    590.000    593.072     -3.072    496.866    590.786    496.866    499.151    496.866
 52.870    659.000    635.901     23.099    496.902    633.634    496.902    499.165    496.902
 52.970    715.097    702.242     12.855    496.939    699.987    496.939    499.188    496.939
 53.070    792.124    795.621     -3.497    496.977    793.372    496.977    499.219    496.977
 53.170    894.000    912.889    -18.889    497.016    910.642    497.016    499.256    497.016
 53.270   1088.000   1040.595     47.405    497.056   1038.347    497.056    499.301    497.056
 53.370   1142.000   1153.336    -11.336    497.097   1151.086    497.097    499.352    497.097
 53.470   1220.000   1218.277      1.723    497.139   1216.023    497.139    499.409    497.139
 53.570   1175.210   1211.473    -36.263    497.182   1209.210    497.182    499.474    497.182
 53.670   1194.032   1135.931     58.101    497.226   1133.649    497.226    499.544    497.226
 53.770   1103.000   1018.842     84.158    497.271   1016.529    497.271    499.621    497.271
 53.870    912.000    892.292     19.708    497.317    889.937    497.317    499.705    497.317
 53.970    754.624    779.488    -24.864    497.365    777.084    497.365    499.795    497.365
 54.070    706.000    691.776     14.224    497.413    689.316    497.413    499.891    497.413
 54.170    655.000    630.792     24.208    497.462    628.271    497.462    499.995    497.462
 54.270    604.182    592.245     11.937    497.512    589.659    497.512    500.106    497.512
 54.370    575.000    569.702      5.298    497.563    567.046    497.563    500.224    497.563
 54.470    514.197    557.231    -43.034    497.615    554.500    497.615    500.350    497.615
 54.570    579.636    550.547     29.089    497.668    547.733    497.668    500.484    497.668
 54.670    565.000    547.042     17.958    497.722    544.139    497.722    500.626    497.722
 54.770    517.122    545.331    -28.209    497.777    542.331    497.777    500.778    497.777
 54.870    527.000    544.752    -17.752    497.833    541.646    497.833    500.940    497.833
 54.970    548.000    545.018      2.982    497.889    541.796    497.889    501.112    497.889
 55.070    587.000    546.017     40.983    497.947    542.670    497.947    501.295    497.947
 55.170    589.511    547.731     41.780    498.005    544.247    498.005    501.491    498.005
 55.270    588.000    550.197     37.803    498.065    546.563    498.065    501.700    498.065
 55.370    554.000    553.509      0.491    498.125    549.711    498.125    501.923    498.125
 55.470    559.000    557.844      1.156    498.186    553.868    498.186    502.163    498.186
 55.570    557.000    563.547     -6.547    498.248    559.375    498.248    502.420    498.248
 55.670    595.000    571.337     23.663    498.311    566.951    498.311    502.697    498.311
 55.770    599.000    582.763     16.237    498.374    578.141    498.374    502.995    498.374
 55.870    603.833    601.053      2.780    498.439    596.172    498.439    503.318    498.439
 55.970    615.572    632.430    -16.858    498.504    627.261    498.504    503.667    498.504
 56.070    728.618    687.557     41.061    498.570    682.067    498.570    504.047    498.570
 56.170    770.000    782.169    -12.169    498.637    776.322    498.637    504.462    498.637
 56.270    951.000    935.245     15.755    498.705    928.997    498.705    504.915    498.705
 56.370   1138.990   1163.240    -24.250    498.773   1156.548    498.773    505.414    498.773
 56.470   1425.000   1470.503    -45.503    498.843   1463.321    498.843    505.963    498.843
 56.570   1818.148   1838.530    -20.382    498.913   1830.814    498.913    506.572    498.913
 56.670   2193.000   2218.307    -25.307    498.983   2210.012    498.983    507.249    498.983
 56.770   2530.057   2530.745     -0.688    499.055   2521.820    499.055    508.007    499.055
 56.870   2718.277   2685.861     32.416    499.127   2676.238    499.127    508.860    499.127
 56.970   2576.842   2629.795    -52.953    499.200   2619.364    499.200    509.825    499.200
 57.070   2452.000   2384.512     67.488    499.274   2373.107    499.274    510.927    499.274
 57.170   2106.000   2029.513     76.487    499.348   2016.919    499.348    512.199    499.348
 57.270   1572.000   1652.244    -80.244    499.423   1638.210    499.423    513.688    499.423
 57.370   1370.161   1316.601     53.560    499.499   1300.820    499.499    515.465    499.499
 57.470   1112.863   1055.079     57.783    499.576   1037.149    499.576    517.639    499.576
 57.570    828.000    873.256    -45.256    499.653    852.618    499.653    520.378    499.653
 57.670    785.000    759.734     25.266    499.731    735.584    499.731    523.933    499.731
 57.770    674.000    696.876    -22.876    499.809    668.046    499.809    528.667    499.809
 57.870    707.000    668.713     38.287    499.889    633.535    499.889    535.078    499.889
 57.970    701.000    664.717     36.283    499.968    620.888    499.968    543.797    499.968
 58.070    718.312    680.198     38.113    500.049    624.681    500.049    555.557    500.049
 58.170    706.000    714.800     -8.800    500.130    643.803    500.130    571.107    500.130
 58.270    772.000    770.237      1.763    500.211    679.338    500.211    591.079    500.211
 58.370    855.332    847.932      7.400    500.294    732.383    500.294    615.800    500.294
 58.470    946.337    946.884     -0.546    500.376    802.160    500.376    645.049    500.376
 58.570   1043.000   1061.988    -18.988    500.460    884.641    500.460    677.752    500.460
 58.670   1168.000   1183.297    -15.297    500.544    972.221    500.544    711.568    500.544
 58.770   1252.000   1297.347    -45.347    500.628   1055.447    500.628    742.487    500.628
 58.870   1450.000   1390.147     59.853    500.713   1125.862    500.713    764.974    500.713
 58.970   1485.000   1449.466     35.534    500.799   1176.665    500.799    773.595    500.799
 59.070   1553.000   1466.200     86.800    500.885   1201.173    500.885    765.927    500.885
 59.170   1523.000   1438.236     84.764    500.972   1195.041    500.972    744.196    500.972
 59.270   1380.000   1374.542      5.458    501.059   1161.879    501.059    713.754    501.059
 59.370   1405.000   1292.958    112.042    501.147   1113.954    501.147    680.170    501.147
 59.470   1263.668   1212.994     50.674    501.235   1066.686    501.235    647.538    501.235
 59.570   1164.000   1151.615     12.385    501.323   1034.626    501.323    618.271    501.323
 59.670   1230.000   1123.387    106.613    501.413   1031.214    501.413    593.500    501.413
 59.770   1136.292   1139.399     -3.108    501.502   1067.284    501.502    573.481    501.502
 59.870   1243.000   1202.623     40.377    501.592   1146.114    501.592    557.909    501.592
 59.970   1234.493   1303.407    -68.915    501.683   1258.681    501.683    546.165    501.683
 60.070   1493.000   1418.212     74.788    501.773   1382.203    501.773    537.501    501.773
 60.170   1485.352   1512.335    -26.983    501.865   1482.723    501.865    531.184    501.865
 60.270   1646.000   1549.143     96.857    501.956   1524.254    501.956    526.576    501.956
 60.370   1450.718   1507.377    -56.659    502.049   1486.032    502.049    523.176    502.049
 60.470   1392.000   1394.060     -2.060    502.141   1375.430    502.141    520.618    502.141
 60.570   1308.000   1237.740     70.260    502.234   1221.233    502.234    518.647    502.234
 60.670   1081.000   1071.423      9.577    502.327   1056.601    502.327    517.099    502.327
 60.770    919.000    920.920     -1.920    502.421    907.449    502.421    515.869    502.421
 60.870    831.000    800.907     30.093    502.515    788.521    502.515    514.892    502.515
 60.970    715.000    715.692     -0.692    502.609    704.169    502.609    514.128    502.609
 61.070    644.000    662.612    -18.612    502.704    651.758    502.704    513.551    502.704
 61.170    662.000    636.367     25.633    502.799    626.009    502.799    513.144    502.799
 61.270    642.995    632.684     10.311    502.894    622.669    502.894    512.888    502.894
 61.370    686.088    650.360     35.727    502.989    640.552    502.989    512.765    502.989
 61.470    655.000    691.436    -36.436    503.085    681.723    503.085    512.748    503.085
 61.570    708.000    759.651    -51.651    503.181    749.961    503.181    512.797    503.181
 61.670    870.000    857.583     12.417    503.278    847.899    503.278    512.858    503.278
 61.770   1005.000    983.160     21.840    503.374    973.540    503.374    512.860    503.374
 61.870   1148.000   1126.621     21.379    503.471   1117.193    503.471    512.737    503.471
 61.970   1206.000   1269.005    -63.005    503.568   1259.942    503.568    512.451    503.568
 62.070   1368.000   1383.375    -15.375    503.666   1374.846    503.666    512.016    503.666
 62.170   1334.000   1441.198   -107.198    503.763   1433.325    503.763    511.482    503.763
 62.270   1363.000   1425.191    -62.191    503.861   1418.026    503.861    510.912    503.861
 62.370   1275.111   1340.046    -64.935    503.959   1333.581    503.959    510.356    503.959
 62.470   1154.000   1209.085    -55.085    504.057   1203.265    504.057    509.847    504.057
 62.570   1002.927   1061.203    -58.276    504.155   1055.950    504.155    509.403    504.155
 62.670    878.000    920.486    -42.486    504.254    915.718    504.254    509.031    504.254
 62.770    766.000    802.084    -36.084    504.353    797.721    504.353    508.728    504.353
 62.870    667.486    712.086    -44.600    504.451    708.060    504.451    508.490    504.451
 62.970    668.000    649.546     18.454    504.550    645.797    504.550    508.308    504.550
 63.070    595.278    609.465    -14.187    504.649    605.947    504.649    508.171    504.649
 63.170    619.000    585.634     33.366    504.749    582.310    504.749    508.072    504.749
 63.270    573.000    572.573      0.427    504.848    569.415    504.848    508.002    504.848
 63.370    592.000    566.428     25.572    504.947    563.414    504.947    507.955    504.947
 63.470    597.000    565.115     31.885    505.047    562.227    505.047    507.926    505.047
 63.570    571.494    568.118      3.376    505.146    565.343    505.146    507.912    505.146
 63.670    611.000    576.215     34.785    505.246    573.538    505.246    507.908    505.246
 63.770    600.000    591.184      8.816    505.346    588.593    505.346    507.914    505.346
 63.870    648.000    615.414     32.586    505.445    612.899    505.445    507.929    505.445
 63.970    640.000    651.280    -11.280    505.545    648.828    505.545    507.950    505.545
 64.070    731.538    700.234     31.304    505.645    697.837    505.645    507.978    505.645
 64.170    805.544    761.740     43.804    505.745    759.388    505.745    508.012    505.745
 64.270    803.000    832.265    -29.265    505.844    829.954    505.844    508.050    505.844
 64.370    892.000    904.650    -12.650    505.944    902.378    505.944    508.093    505.944
 64.470   1016.071    968.346     47.725    506.044    966.117    506.044    508.141    506.044
 64.570    953.434   1011.625    -58.192    506.144   1009.446    506.144    508.193    506.144
 64.670   1045.000   1026.127     18.873    506.244   1024.006    506.244    508.248    506.244
 64.770   1022.000   1010.564     11.436    506.343   1008.509    506.343    508.306    506.343
 64.870   1024.152    970.281     53.871    506.443    968.292    506.443    508.368    506.443
 64.970    942.000    914.367     27.633    506.542    912.440    506.542    508.433    506.542
 65.070    815.000    852.682    -37.682    506.642    850.811    506.642    508.500    506.642
 65.170    766.646    793.246    -26.600    506.741    791.423    506.741    508.570    506.741
 65.270    692.613    740.761    -48.147    506.840    738.977    506.840    508.643    506.840
 65.370    680.197    696.810    -16.613    506.940    695.056    506.940    508.717    506.940
 65.470    689.000    661.130     27.870    507.039    659.399    507.039    508.794    507.039
 65.570    654.000    632.829     21.171    507.138    631.115    507.138    508.874    507.138
 65.670    587.000    610.894    -23.894    507.236    609.193    507.236    508.955    507.236
 65.770    591.000    594.301     -3.301    507.335    592.610    507.335    509.038    507.335
 65.870    550.000    582.095    -32.095    507.434    580.414    507.434    509.123    507.434
 65.970    581.000    573.464      7.536    507.532    571.790    507.532    509.210    507.532
 66.070    545.000    567.746    -22.746    507.630    566.079    507.630    509.298    507.630
 66.170    559.469    564.408     -4.939    507.728    562.748    507.728    509.389    507.728
 66.270    538.000    563.026    -25.026    507.826    561.371    507.826    509.481    507.826
 66.370    522.929    563.290    -40.361    507.923    561.638    507.923    509.574    507.923
 66.470    560.018    565.037     -5.019    508.021    563.388    508.021    509.670    508.021
 66.570    571.000    568.326      2.674    508.118    566.678    508.118    509.767    508.118
 66.670    572.000    573.562     -1.562    508.215    571.911    508.215    509.866    508.215
 66.770    536.000    581.709    -45.709    508.311    580.055    508.311    509.966    508.311
 66.870    577.260    594.641    -17.381    508.408    592.981    508.408    510.068    508.408
 66.970    634.293    615.605     18.688    508.504    613.935    508.504    510.172    508.504
 67.070    661.000    649.697     11.303    508.600    648.015    508.600    510.277    508.600
 67.170    726.379    704.120     22.259    508.695    702.422    508.695    510.385    508.695
 67.270    789.000    787.835      1.165    508.790    786.118    508.790    510.494    508.790
 67.370    863.171    910.230    -47.059    508.885    908.492    508.885    510.605    508.885
 67.470   1080.000   1078.597      1.403    508.980   1076.841    508.980    510.718    508.980
 67.570   1284.426   1294.699    -10.273    509.074   1292.928    509.074    510.833    509.074
 67.670   1553.000   1551.178      1.822    509.168   1549.400    509.168    510.951    509.168
 67.770   1871.235   1828.863     42.372    509.262   1827.091    509.262    511.071    509.262
 67.870   2166.365   2095.960     70.405    509.355   2094.208    509.355    511.193    509.355
 67.970   2340.000   2310.544     29.456    509.448   2308.822    509.448    511.318    509.448
 68.070   2495.996   2429.337     66.659    509.540   2427.652    509.540    511.445    509.540
 68.170   2450.000   2424.033     25.967    509.633   2422.372    509.633    511.576    509.633
 68.270   2226.820   2296.072    -69.252    509.724   2294.408    509.724    511.710    509.724
 68.370   2071.000   2075.754     -4.754    509.816   2074.051    509.816    511.847    509.816
 68.470   1770.000   1806.719    -36.719    509.907   1804.943    509.907    511.988    509.907
 68.570   1542.000   1530.219     11.781    509.997   1528.347    509.997    512.133    509.997
 68.670   1216.150   1277.009    -60.858    510.087   1275.027    510.087    512.283    510.087
 68.770   1083.000   1065.198     17.802    510.177   1063.101    510.177    512.437    510.177
 68.870    889.000    901.255    -12.255    510.266    899.042    510.266    512.597    510.266
 68.970    796.000    782.816     13.184    510.355    780.489    510.355    512.762    510.355
 69.070    651.700    702.292    -50.593    510.443    699.855    510.443    512.934    510.443
 69.170    658.000    650.259      7.741    510.531    647.711    510.531    513.113    510.531
 69.270    663.000    617.865     45.135    510.618    615.205    510.618    513.300    510.618
 69.370    635.417    598.073     37.343    510.705    595.297    510.705    513.496    510.705
 69.470    567.294    585.934    -18.640    510.791    583.034    510.791    513.701    510.791
 69.570    546.284    578.297    -32.013    510.877    575.264    510.877    513.917    510.877
 69.670    565.000    573.315     -8.315    510.962    570.137    510.962    514.145    510.962
 69.770    600.435    569.976     30.459    511.047    566.640    511.047    514.387    511.047
 69.870    574.000    567.753      6.247    511.131    564.243    511.131    514.645    511.131
 69.970    540.000    566.385    -26.385    511.214    562.682    511.214    514.919    511.214
 70.070    551.349    565.748    -14.399    511.298    561.833    511.298    515.214    511.298
 70.170    610.876    565.809     45.067    511.380    561.658    511.380    515.531    511.380
 70.270    530.203    566.600    -36.398    511.462    562.188    511.462    515.874    511.462
 70.370    576.000    568.250      7.750    511.543    563.545    511.543    516.246    511.543
 70.470    544.000    571.035    -27.035    511.624    566.001    511.624    516.654    511.624
 70.570    551.000    575.488    -24.488    511.704    570.084    511.704    517.102    511.704
 70.670    593.000    582.568     10.432    511.783    576.744    511.783    517.599    511.783
 70.770    597.000    593.885      3.115    511.862    587.580    511.862    518.155    511.862
 70.870    572.732    611.956    -39.224    511.940    605.092    511.940    518.785    511.940
 70.970    620.127    640.396    -20.269    512.018    632.874    512.018    519.511    512.018
 71.070    625.000    683.920    -58.920    512.095    675.605    512.095    520.366    512.095
 71.170    782.430    747.952     34.478    512.171    738.659    512.171    521.400    512.171
 71.270    870.367    837.725     32.641    512.247    827.191    512.247    522.692    512.247
 71.370    959.000    956.835      2.165    512.322    944.684    512.322    524.355    512.322
 71.470   1144.047   1105.470     38.576    512.396   1091.164    512.396    526.552    512.396
 71.570   1325.000   1278.673     46.327    512.469   1261.453    512.469    529.509    512.469
 71.670   1445.000   1465.128    -20.128    512.542   1443.951    512.542    533.515    512.542
 71.770   1578.798   1646.869    -68.071    512.614   1620.344    512.614    538.923    512.614
 71.870   1751.000   1800.464    -49.464    512.686   1766.817    512.686    546.119    512.686
 71.970   1987.000   1901.011     85.989    512.756   1858.088    512.756    555.487    512.756
 72.070   1868.000   1929.890    -61.890    512.826   1875.224    512.826    567.335    512.826
 72.170   1940.379   1883.275     57.104    512.895   1814.238    512.895    581.816    512.895
 72.270   1761.000   1774.263    -13.263    512.964   1688.317    512.964    598.830    512.964
 72.370   1671.935   1626.188     45.748    513.031   1521.242    513.031    617.928    513.031
 72.470   1470.000   1463.428      6.572    513.098   1338.290    513.098    638.209    513.098
 72.570   1251.536   1305.524    -53.987    513.164   1160.447    513.164    658.227    513.164
 72.670   1140.000   1164.956    -24.956    513.229   1002.220    513.229    675.958    513.229
 72.770   1094.046   1047.117     46.929    513.294    871.425    513.294    688.981    513.294
 72.870    928.000    951.772    -23.772    513.358    770.070    513.358    695.053    513.358
 72.970    878.334    875.507      2.827    513.420    695.932    513.420    692.989    513.420
 73.070    734.000    814.132    -80.132    513.482    644.377    513.482    683.231    513.482
 73.170    716.000    764.080    -48.080    513.544    609.997    513.544    667.620    513.544
 73.270    628.000    722.744    -94.744    513.604    587.767    513.604    648.576    513.604
 73.370    690.000    688.335      1.665    513.663    573.647    513.663    628.347    513.663
 73.470    615.768    659.681    -43.913    513.722    564.738    513.722    608.663    513.722
 73.570    586.000    636.052    -50.052    513.780    559.153    513.780    590.678    513.780
 73.670    658.856    616.983     41.873    513.837    555.768    513.837    575.053    513.837
 73.770    635.000    602.117     32.883    513.893    553.969    513.893    562.046    513.893
 73.870    610.000    591.087     18.913    513.948    553.428    513.948    551.616    513.948
 73.970    529.000    583.454    -54.454    514.002    553.948    514.002    543.521    514.002
 74.070    622.195    578.682     43.513    514.056    555.351    514.056    537.405    514.056
 74.170    544.101    576.148    -32.047    514.108    557.404    514.108    532.877    514.108
 74.270    538.962    575.159    -36.197    514.160    559.787    514.160    529.563    514.160
 74.370    587.000    574.976     12.024    514.210    562.082    514.210    527.142    514.210
 74.470    599.000    574.858     24.142    514.260    563.801    514.260    525.358    514.260
 74.570    588.000    574.148     13.852    514.309    564.483    514.309    524.018    514.309
 74.670    620.000    572.421     47.579    514.356    563.836    514.356    522.986    514.356
 74.770    640.000    569.597     70.403    514.403    561.875    514.403    522.168    514.403
 74.870    556.527    565.929     -9.403    514.449    558.916    514.449    521.501    514.449
 74.970    633.000    561.879     71.121    514.494    555.461    514.494    520.944    514.494
 75.070    511.104    557.968    -46.864    514.538    552.061    514.538    520.471    514.538
 75.170    573.526    554.711     18.815    514.581    549.249    514.581    520.063    514.581
 75.270    590.646    552.601     38.046    514.623    547.529    514.623    519.708    514.623
 75.370    532.117    552.123    -20.006    514.664    547.397    514.664    519.397    514.664
 75.470    569.000    553.781     15.219    514.703    549.363    514.703    519.123    514.703
 75.570    546.000    558.094    -12.094    514.742    553.952    514.742    518.880    514.742
 75.670    624.000    565.571     58.429    514.780    561.676    514.780    518.665    514.780
 75.770    533.536    576.625    -43.089    514.817    572.951    514.817    518.473    514.817
 75.870    639.000    591.442     47.558    514.853    587.968    514.853    518.302    514.853
 75.970    573.148    609.823    -36.676    514.888    606.529    514.888    518.148    514.888
 76.070    572.000    631.036    -59.036    514.921    627.904    514.921    518.011    514.921
 76.170    632.000    653.713    -21.713    514.954    650.728    514.954    517.887    514.954
 76.270    682.000    675.827      6.173    514.986    672.978    514.986    517.775    514.986
 76.370    653.359    694.792    -41.434    515.016    692.070    515.016    517.674    515.016
 76.470    742.997    707.786     35.211    515.046    705.183    515.046    517.583    515.046
 76.570    691.000    712.446    -21.446    515.074    709.957    515.074    517.499    515.074
 76.670    658.424    707.789    -49.365    515.102    705.409    515.102    517.424    515.102
 76.770    702.738    694.681      8.057    515.128    692.404    515.128    517.355    515.128
 76.870    663.000    675.408    -12.408    515.153    673.228    515.153    517.292    515.153
 76.970    674.000    652.769     21.231    515.177    650.680    515.177    517.234    515.177
 77.070    617.000    629.357    -12.357    515.200    627.352    515.200    517.181    515.200
 77.170    637.953    607.205     30.748    515.222    605.278    515.222    517.132    515.222
 77.270    630.213    587.677     42.535    515.242    585.821    515.242    517.087    515.242
 77.370    536.000    571.481    -35.481    515.262    569.690    515.262    517.045    515.262
 77.470    555.000    558.759     -3.759    515.280    557.029    515.280    517.006    515.280
 77.570    538.000    549.246    -11.246    515.298    547.571    515.298    516.970    515.298
 77.670    509.674    542.433    -32.760    515.314    540.809    515.314    516.935    515.314
 77.770    539.548    537.728      1.820    515.329    536.152    515.329    516.903    515.329
 77.870    501.949    534.566    -32.617    515.342    533.034    515.342    516.873    515.342
 77.970    544.775    532.471     12.304    515.355    530.981    515.355    516.845    515.355
 78.070    536.000    531.086      4.914    515.367    529.634    515.367    516.818    515.367
 78.170    495.000    530.157    -35.157    515.377    528.741    515.377    516.792    515.377
 78.270    544.000    529.523     14.477    515.386    528.141    515.386    516.767    515.386
 78.370    539.465    529.081     10.384    515.394    527.731    515.394    516.743    515.394
 78.470    540.251    528.762     11.489    515.401    527.441    515.401    516.721    515.401
 78.570    561.295    528.553     32.742    515.406    527.259    515.406    516.699    515.406
 78.670    560.704    528.478     32.226    515.411    527.210    515.411    516.678    515.411
 78.770    520.000    528.523     -8.523    515.414    527.277    515.414    516.658    515.414
 78.870    519.000    528.701     -9.701    515.416    527.476    515.416    516.640    515.416
 78.970    548.652    529.036     19.616    515.416    527.829    515.416    516.622    515.416
 79.070    496.000    529.555    -33.555    515.416    528.363    515.416    516.606    515.416
 79.170    497.000    530.286    -33.286    515.414    529.106    515.414    516.592    515.414
 79.270    566.381    531.256     35.126    515.411    530.084    515.411    516.581    515.411
 79.370    483.000    532.495    -49.495    515.407    531.326    515.407    516.572    515.407
 79.470    507.000    534.030    -27.030    515.401    532.861    515.401    516.567    515.401
 79.570    517.000    535.900    -18.900    515.395    534.723    515.395    516.567    515.395
 79.670    515.769    538.162    -22.392    515.387    536.973    515.387    516.571    515.387
 79.770    536.000    540.912     -4.912    515.378    539.705    515.378    516.579    515.378
 79.870    538.663    544.302     -5.639    515.367    543.071    515.367    516.593    515.367
 79.970    548.000    548.567     -0.567    515.355    547.306    515.355    516.611    515.355
 80.070    597.113    554.040     43.073    515.342    552.745    515.342    516.633    515.342
 80.170    572.914    561.153     11.761    515.328    559.821    515.328    516.657    515.328
 80.270    538.000    570.388    -32.388    515.313    569.018    515.313    516.682    515.313
 80.370    563.140    582.175    -19.035    515.296    580.771    515.296    516.703    515.296
 80.470    566.000    596.788    -30.788    515.278    595.355    515.278    516.717    515.278
 80.570    614.000    614.229     -0.229    515.258    612.778    515.258    516.719    515.258
 80.670    623.967    634.148    -10.181    515.238    632.695    515.238    516.706    515.238
 80.770    619.000    655.805    -36.805    515.216    654.367    515.216    516.675    515.216
 80.870    634.594    678.088    -43.495    515.192    676.682    515.192    516.625    515.192
 80.970    730.000    699.634     30.366    515.168    698.275    515.168    516.560    515.168
 81.070    721.000    719.021      1.979    515.142    717.720    515.142    516.483    515.142
 81.170    740.000    734.958      5.042    515.115    733.721    515.115    516.399    515.115
 81.270    772.000    746.403     25.597    515.086    745.232    515.086    516.311    515.086
 81.370    783.000    752.641     30.359    515.057    751.534    515.057    516.223    515.057
 81.470    754.000    753.368      0.632    515.025    752.320    515.025    516.137    515.025
 81.570    754.000    748.699      5.301    514.993    747.705    514.993    516.054    514.993
 81.670    716.000    739.128    -23.128    514.959    738.182    514.959    515.975    514.959
 81.770    708.000    725.499    -17.499    514.924    724.592    514.924    515.900    514.924
 81.870    688.205    708.971    -20.765    514.888    708.097    514.888    515.830    514.888
 81.970    681.210    690.859     -9.649    514.850    690.011    514.850    515.764    514.850
 82.070    664.000    672.363     -8.363    514.811    671.536    514.811    515.702    514.811
 82.170    674.000    654.354     19.646    514.770    653.543    514.770    515.642    514.770
 82.270    684.719    637.322     47.397    514.728    636.521    514.728    515.584    514.728
 82.370    641.000    621.479     19.521    514.685    620.687    514.685    515.528    514.685
 82.470    575.392    606.934    -31.542    514.641    606.148    514.641    515.473    514.641
 82.570    632.000    593.814     38.186    514.595    593.030    514.595    515.418    514.595
 82.670    600.050    582.286     17.763    514.548    581.503    514.548    515.364    514.548
 82.770    603.000    572.529     30.471    514.499    571.746    514.499    515.309    514.499
 82.870    549.384    564.695    -15.311    514.449    563.910    514.449    515.254    514.449
 82.970    553.968    558.894     -4.926    514.398    558.105    514.398    515.198    514.398
 83.070    523.000    555.179    -32.179    514.346    554.387    514.346    515.142    514.346
 83.170    538.000    553.536    -15.536    514.292    552.740    514.292    515.085    514.292
 83.270    582.857    553.858     28.999    514.236    553.057    514.236    515.027    514.236
 83.370    574.000    555.930     18.070    514.180    555.124    514.180    514.968    514.180
 83.470    562.000    559.417      2.583    514.122    558.605    514.122    514.908    514.122
 83.570    542.000    563.865    -21.865    514.062    563.049    514.062    514.847    514.062
 83.670    564.500    568.716     -4.216    514.001    567.895    514.001    514.785    514.001
 83.770    532.000    573.330    -41.330    513.939    572.506    513.939    514.722    513.939
 83.870    609.960    577.041     32.920    513.876    576.213    513.876    514.658    513.876
 83.970    567.000    579.237    -12.237    513.811    578.409    513.811    514.593    513.811
 84.070    531.000    579.490    -48.490    513.744    578.663    513.744    514.526    513.744
 84.170    585.430    577.671      7.760    513.677    576.845    513.677    514.459    513.677
 84.270    557.000    573.977    -16.977    513.608    573.155    513.608    514.391    513.608
 84.370    535.019    568.854    -33.835    513.537    568.036    513.537    514.322    513.537
 84.470    547.000    562.858    -15.858    513.465    562.043    513.465    514.251    513.465
 84.570    561.000    556.534      4.466    513.392    555.723    513.392    514.180    513.392
 84.670    574.153    550.354     23.799    513.318    549.546    513.318    514.107    513.318
 84.770    558.000    544.675     13.325    513.242    543.868    513.242    514.033    513.242
 84.870    540.777    539.728      1.049    513.164    538.922    513.164    513.958    513.164
 84.970    526.783    535.628     -8.845    513.086    534.822    513.086    513.882    513.086
 85.070    548.798    532.389     16.409    513.006    531.582    513.006    513.805    513.006
 85.170    576.000    529.954     46.046    512.924    529.145    512.924    513.727    512.924
 85.270    535.000    528.222      6.778    512.841    527.411    512.841    513.648    512.841
 85.370    523.000    527.082     -4.082    512.757    526.266    512.757    513.568    512.757
 85.470    519.000    526.428     -7.428    512.672    525.609    512.672    513.486    512.672
 85.570    558.000    526.183     31.817    512.585    525.358    512.585    513.404    512.585
 85.670    520.000    526.302     -6.302    512.496    525.473    512.496    513.320    512.496
 85.770    519.000    526.784     -7.784    512.407    525.948    512.407    513.236    512.407
 85.870    558.702    527.669     31.033    512.315    526.827    512.315    513.150    512.315
 85.970    500.417    529.042    -28.625    512.223    528.191    512.223    513.063    512.223
 86.070    544.665    531.027     13.638    512.129    530.168    512.129    512.976    512.129
 86.170    539.873    533.784      6.089    512.034    532.914    512.034    512.887    512.034
 86.270    555.092    537.493     17.599    511.937    536.611    511.937    512.797    511.937
 86.370    562.000    542.334     19.666    511.839    541.439    511.839    512.706    511.839
 86.470    548.000    548.461     -0.461    511.740    547.551    511.740    512.615    511.740
 86.570    571.000    555.964     15.036    511.639    555.037    511.639    512.522    511.639
 86.670    554.000    564.833    -10.833    511.537    563.887    511.537    512.428    511.537
 86.770    587.000    574.919     12.081    511.434    573.953    511.434    512.333    511.434
 86.870    551.295    585.904    -34.609    511.329    584.916    511.329    512.238    511.329
 86.970    605.000    597.288      7.712    511.223    596.278    511.223    512.141    511.223
 87.070    642.000    608.392     33.608    511.115    607.362    511.115    512.044    511.115
 87.170    606.289    618.389    -12.100    511.006    617.339    511.006    511.946    511.006
 87.270    596.124    626.377    -30.252    510.896    625.310    510.896    511.847    510.896
 87.370    651.675    631.520     20.156    510.784    630.439    510.784    511.747    510.784
 87.470    645.000    633.244     11.756    510.671    632.153    510.671    511.647    510.671
 87.570    583.745    631.404    -47.659    510.557    630.308    510.557    511.545    510.557
 87.670    647.000    626.333     20.667    510.441    625.233    510.441    511.443    510.441
 87.770    666.000    618.732     47.268    510.324    617.630    510.324    511.341    510.324
 87.870    633.000    609.505     23.495    510.206    608.401    510.206    511.237    510.206
 87.970    620.000    599.593     20.407    510.086    598.487    510.086    511.133    510.086
 88.070    664.000    589.913     74.087    509.965    588.803    509.965    511.029    509.965
 88.170    567.285    581.250    -13.966    509.842    580.136    509.842    510.924    509.842
 88.270    626.000    574.215     51.785    509.719    573.093    509.719    510.819    509.719
 88.370    542.000    569.234    -27.234    509.593    568.103    509.593    510.713    509.593
 88.470    645.000    566.540     78.460    509.467    565.397    509.467    510.607    509.467
 88.570    542.208    566.170    -23.963    509.339    565.014    509.339    510.501    509.339
 88.670    591.250    567.978     23.272    509.210    566.806    509.210    510.395    509.210
 88.770    575.445    571.648      3.797    509.080    570.461    509.080    510.288    509.080
 88.870    563.270    576.723    -13.453    508.948    575.518    508.948    510.182    508.948
 88.970    562.000    582.621    -20.621    508.815    581.396    508.815    510.076    508.815
 89.070    586.000    588.668     -2.668    508.681    587.423    508.681    509.970    508.681
 89.170    550.925    594.139    -43.213    508.545    592.870    508.545    509.865    508.545
 89.270    580.000    598.316    -18.316    508.408    597.022    508.408    509.760    508.408
 89.370    584.000    600.587    -16.587    508.270    599.262    508.270    509.656    508.270
 89.470    615.000    600.554     14.446    508.131    599.196    508.131    509.553    508.131
 89.570    545.000    598.135    -53.135    507.990    596.737    507.990    509.451    507.990
 89.670    602.838    593.559      9.278    507.848    592.119    507.848    509.350    507.848
 89.770    595.000    587.296      7.704    507.704    585.807    507.704    509.251    507.704
 89.870    576.000    579.925     -3.925    507.560    578.383    507.560    509.154    507.560
 89.970    527.000    572.030    -45.030    507.414    570.431    507.414    509.059    507.414
 90.070    538.000    564.134    -26.134    507.267    562.473    507.267    508.967    507.267
 90.170    584.923    556.659     28.263    507.118    554.932    507.118    508.878    507.118
 90.270    511.000    549.911    -38.911    506.969    548.113    506.969    508.793    506.969
 90.370    549.000    544.080      4.920    506.818    542.206    506.818    508.712    506.818
 90.470    525.304    539.249    -13.945    506.665    537.293    506.665    508.637    506.665
 90.570    539.043    535.414      3.628    506.512    533.369    506.512    508.569    506.512
 90.670    532.000    532.508     -0.508    506.357    530.364    506.357    508.509    506.357
 90.770    558.073    530.426     27.647    506.202    528.173    506.202    508.460    506.202
 90.870    558.000    529.053     28.947    506.044    526.676    506.044    508.425    506.044
 90.970    527.000    528.281     -1.281    505.886    525.761    505.886    508.407    505.886
 91.070    514.472    528.025    -13.553    505.727    525.339    505.727    508.413    505.727
 91.170    508.000    528.235    -20.235    505.566    525.352    505.566    508.448    505.566
 91.270    565.000    528.901     36.099    505.404    525.782    505.404    508.521    505.404
 91.370    516.000    530.057    -14.057    505.241    526.652    505.241    508.643    505.241
 91.470    548.000    531.785     16.215    505.077    528.031    505.077    508.826    505.077
 91.570    502.000    534.205    -32.205    504.911    530.025    504.911    509.086    504.911
 91.670    496.000    537.452    -41.452    504.745    532.750    504.745    509.438    504.745
 91.770    554.901    541.798     13.103    504.577    536.461    504.577    509.903    504.577
 91.870    590.284    547.467     42.817    504.408    541.361    504.408    510.501    504.408
 91.970    588.319    554.689     33.630    504.238    547.659    504.238    511.250    504.238
 92.070    571.848    563.689      8.159    504.067    555.564    504.067    512.169    504.067
 92.170    605.052    574.659     30.394    503.894    565.250    503.894    513.275    503.894
 92.270    568.000    587.721    -19.721    503.721    576.831    503.721    514.577    503.721
 92.370    587.000    602.903    -15.903    503.546    590.330    503.546    516.079    503.546
 92.470    651.000    620.112     30.888    503.371    605.660    503.371    517.775    503.371
 92.570    685.877    639.107     46.769    503.194    622.598    503.194    519.648    503.194
 92.670    689.000    659.497     29.503    503.016    640.783    503.016    521.668    503.016
 92.770    678.000    680.728     -2.728    502.837    659.707    502.837    523.789    502.837
 92.870    716.678    702.106     14.572    502.657    678.743    502.657    525.945    502.657
 92.970    745.000    722.854     22.146    502.476    697.199    502.476    528.052    502.476
 93.070    713.000    742.205    -29.205    502.293    714.414    502.293    530.003    502.293
 93.170    766.000    759.539      6.461    502.110    729.893    502.110    531.674    502.110
 93.270    787.714    774.489     13.225    501.926    743.399    501.926    532.933    501.926
 93.370    749.906    786.983    -37.078    501.741    754.982    501.741    533.661    501.741
 93.470    778.000    797.195    -19.195    501.554    764.897    501.554    533.773    501.554
 93.570    770.000    805.434    -35.434    501.367    773.482    501.367    533.242    501.367
 93.670    788.760    812.101    -23.341    501.178    781.102    501.178    532.104    501.178
 93.770    907.000    817.670     89.330    500.989    788.138    500.989    530.450    500.989
 93.870    830.273    822.703      7.569    500.799    795.031    500.799    528.402    500.799
 93.970    879.269    827.843     51.426    500.607    802.292    500.607    526.093    500.607
 94.070    833.474    833.726     -0.251    500.415    810.432    500.415    523.645    500.415
 94.170    906.000    840.816     65.184    500.222    819.814    500.222    521.162    500.222
 94.270    862.000    849.243     12.757    500.028    830.486    500.028    518.726    500.028
 94.370    838.889    858.691    -19.802    499.832    842.068    499.832    516.400    499.832
 94.470    873.000    868.374      4.626    499.636    853.732    499.636    514.226    499.636
 94.570    821.741    877.096    -55.355    499.439    864.254    499.439    512.234    499.439
 94.670    908.000    883.389     24.611    499.241    872.151    499.241    510.439    499.241
 94.770    995.000    885.727    109.273    499.042    875.891    499.042    508.845    499.042
 94.870    915.000    882.814     32.186    498.843    874.184    498.843    507.448    498.843
 94.970    948.000    873.894     74.106    498.642    866.283    498.642    506.236    498.642
 95.070    922.000    858.955     63.045    498.441    852.194    498.441    505.194    498.441
 95.170    855.000    838.755     16.245    498.238    832.689    498.238    504.303    498.238
 95.270    877.000    814.653     62.347    498.035    809.149    498.035    503.544    498.035
 95.370    802.000    788.373     13.627    497.831    783.317    497.831    502.896    497.831
 95.470    799.000    761.783     37.217    497.627    757.079    497.627    502.341    497.627
 95.570    769.000    736.743     32.257    497.421    732.312    497.421    501.862    497.421
 95.670    735.000    715.006     19.994    497.215    710.782    497.215    501.446    497.215
 95.770    692.000    698.161     -6.161    497.007    694.093    497.007    501.079    497.007
 95.870    660.000    687.597    -27.597    496.799    683.642    496.799    500.753    496.799
 95.970    686.000    684.545      1.455    496.591    680.669    496.591    500.458    496.591
 96.070    656.878    690.003    -33.125    496.381    686.178    496.381    500.190    496.381
 96.170    701.000    704.762     -3.762    496.171    700.965    496.171    499.942    496.171
 96.270    707.000    729.399    -22.399    495.960    725.610    495.960    499.712    495.960
 96.370    732.572    764.221    -31.650    495.749    760.425    495.749    499.497    495.749
 96.470    835.000    809.201     25.799    495.536    805.382    495.536    499.295    495.536
 96.570    878.000    863.882     14.118    495.323    860.028    495.323    499.106    495.323
 96.670    958.451    927.287     31.164    495.110    923.387    495.110    498.927    495.110
 96.770   1026.000    997.832     28.168    494.895    993.876    494.895    498.760    494.895
 96.870   1107.178   1073.274     33.904    494.680   1069.252    494.680    498.603    494.680
 96.970   1165.000   1150.698     14.302    494.465   1146.603    494.465    498.456    494.465
 97.070   1247.000   1226.556     20.444    494.249   1222.379    494.249    498.321    494.249
 97.170   1288.000   1296.783     -8.783    494.032   1292.517    494.032    498.197    494.032
 97.270   1410.000   1357.041     52.959    493.814   1352.679    493.814    498.085    493.814
 97.370   1397.000   1403.126     -6.126    493.596   1398.660    493.596    497.985    493.596
 97.470   1400.000   1431.560    -31.560    493.378   1426.979    493.378    497.899    493.378
 97.570   1441.000   1440.213      0.787    493.159   1435.506    493.159    497.827    493.159
 97.670   1427.540   1428.740     -1.200    492.939   1423.889    492.939    497.773    492.939
 97.770   1468.000   1398.595     69.405    492.719   1393.580    492.719    497.737    492.719
 97.870   1407.000   1352.661     54.339    492.499   1347.458    492.499    497.722    492.499
 97.970   1282.000   1294.675    -12.675    492.277   1289.254    492.277    497.733    492.277
 98.070   1206.241   1228.717    -22.476    492.056   1223.043    492.056    497.775    492.056
 98.170   1182.170   1158.841     23.330    491.834   1152.873    491.834    497.854    491.834
 98.270   1060.859   1088.837    -27.978    491.611   1082.525    491.611    497.978    491.611
 98.370    998.000   1022.088    -24.088    491.389   1015.371    491.389    498.158    491.389
 98.470    905.010    961.493    -56.483    491.165    954.297    491.165    498.410    491.165
 98.570    873.050    909.447    -36.397    490.942    901.680    490.942    498.751    490.942
 98.670    878.487    867.856     10.631    490.718    859.403    490.718    499.205    490.718
 98.770    850.252    838.179     12.073    490.493    828.899    490.493    499.799    490.493
 98.870    844.264    821.497     22.768    490.268    811.213    490.268    500.568    490.268
 98.970    792.000    818.574    -26.574    490.043    807.071    490.043    501.552    490.043
 99.070    835.804    829.920      5.884    489.818    816.937    489.818    502.798    489.818
 99.170    855.076    855.818     -0.743    489.592    841.041    489.592    504.359    489.592
 99.270    855.000    896.325    -41.325    489.366    879.383    489.366    506.290    489.366
 99.370    938.000    951.225    -13.225    489.140    931.690    489.140    508.653    489.140
 99.470   1043.325   1019.971     23.353    488.914    997.353    488.914    511.508    488.914
 99.570   1088.000   1101.584    -13.584    488.687   1075.336    488.687    514.910    488.687
 99.670   1245.000   1194.608     50.392    488.460   1164.137    488.460    518.910    488.460
 99.770   1302.000   1296.979      5.021    488.233   1261.653    488.233    523.545    488.233
 99.870   1432.712   1405.979     26.733    488.006   1365.147    488.006    528.835    488.006
 99.970   1522.000   1518.249      3.751    487.779   1471.260    487.779    534.778    487.779
100.070   1621.331   1629.858     -8.528    487.551   1576.092    487.551    541.347    487.551
100.170   1814.000   1736.500     77.500    487.324   1675.398    487.324    548.478    487.324
100.270   1867.000   1833.815     33.185    487.096   1764.916    487.096    556.072    487.096
100.370   1926.950   1917.776      9.174    486.868   1840.761    486.868    563.986    486.868
100.470   2022.354   1985.021     37.332    486.640   1899.757    486.640    572.032    486.640
100.570   2111.835   2032.999     78.835    486.413   1939.592    486.413    579.972    486.413
100.670   2137.000   2059.959     77.041    486.185   1958.801    486.185    587.515    486.185
100.770   2038.416   2064.904    -26.487    485.957   1956.725    485.957    594.325    485.957
100.870   1973.155   2047.684    -74.529    485.729   1933.579    485.729    600.036    485.729
100.970   2002.915   2009.231     -6.316    485.501   1890.656    485.501    604.288    485.501
101.070   1916.000   1951.783    -35.783    485.273   1830.502    485.273    606.768    485.273
101.170   1843.964   1878.875    -34.910    485.046   1756.859    485.046    607.273    485.046
101.270   1842.303   1795.022     47.281    484.818   1674.300    484.818    605.745    484.818
101.370   1701.060   1705.179     -4.119    484.591   1587.676    484.591    602.287    484.591
101.470   1615.564   1614.170      1.395    484.363   1501.575    484.363    597.138    484.363
101.570   1484.000   1526.242    -42.242    484.136   1419.912    484.136    590.630    484.136
101.670   1506.290   1444.777     61.514    483.909   1345.703    483.909    583.131    483.909
101.770   1438.000   1372.153     65.847    483.682   1280.968    483.682    575.001    483.682
101.870   1369.492   1309.711     59.781    483.456   1226.722    483.456    566.564    483.456
101.970   1226.000   1257.787    -31.787    483.230   1183.028    483.230    558.095    483.230
102.070   1163.000   1215.806    -52.806    483.004   1149.086    483.004    549.820    483.004
102.170   1161.000   1182.410    -21.410    482.778   1123.365    482.778    541.912    482.778
102.270   1119.000   1155.626    -36.626    482.552   1103.763    482.552    534.500    482.552
102.370   1104.000   1133.081    -29.081    482.327   1087.818    482.327    527.672    482.327
102.470   1101.114   1112.265    -11.151    482.103   1072.967    482.103    521.481    482.103
102.570   1059.000   1090.833    -31.833    481.878   1056.845    481.878    515.947    481.878
102.670   1079.751   1066.913     12.838    481.654   1037.584    481.654    511.066    481.654
102.770   1075.370   1039.329     36.041    481.431   1014.032    481.431    506.812    481.431
102.870    971.000   1007.675    -36.675    481.208    985.825    481.208    503.142    481.208
102.970    928.680    972.237    -43.556    480.985    953.299    480.985    500.005    480.985
103.070    971.333    933.794     37.538    480.763    917.294    480.763    497.343    480.763
103.170    843.000    893.413    -50.413    480.541    878.935    480.541    495.096    480.541
103.270    800.000    852.258    -52.258    480.320    839.447    480.320    493.203    480.320
103.370    763.000    811.471    -48.471    480.100    800.027    480.100    491.610    480.100
103.470    783.000    772.083     10.917    479.880    761.757    479.880    490.265    479.880
103.570    781.000    734.958     46.042    479.660    725.548    479.660    489.123    479.660
103.670    707.000    700.766      6.234    479.442    692.107    479.442    488.147    479.442
103.770    652.345    669.965    -17.621    479.224    661.926    479.224    487.303    479.224
103.870    593.000    642.805    -49.805    479.006    635.280    479.006    486.565    479.006
103.970    638.000    619.343     18.657    478.789    612.249    478.789    485.911    478.789
104.070    642.673    599.475     43.198    478.574    592.746    478.574    485.325    478.574
104.170    571.000    582.972    -11.972    478.358    576.556    478.358    484.792    478.358
104.270    563.000    569.519     -6.519    478.144    563.373    478.144    484.303    478.144
104.370    564.020    558.753      5.268    477.930    552.844    477.930    483.850    477.930
104.470    589.000    550.300     38.700    477.718    544.599    477.718    483.426    477.718
104.570    587.984    543.801     44.183    477.506    538.285    477.506    483.027    477.506
104.670    582.000    538.926     43.074    477.295    533.575    477.295    482.649    477.295
104.770    548.000    535.391     12.609    477.085    530.187    477.085    482.289    477.085
104.870    524.000    532.961     -8.961    476.875    527.889    476.875    481.946    476.875
104.970    544.123    531.474     12.650    476.667    526.521    476.667    481.618    476.667
105.070    557.387    530.805     26.582    476.460    525.958    476.460    481.303    476.460
105.170    553.000    530.881     22.119    476.254    526.129    476.254    481.001    476.254
105.270    539.000    531.678      7.322    476.049    527.010    476.049    480.710    476.049
105.370    540.000    533.210      6.790    475.845    528.617    475.845    480.429    475.845
105.470    537.629    535.525      2.104    475.642    530.997    475.642    480.159    475.642
105.570    519.000    538.698    -19.698    475.440    534.228    475.440    479.898    475.440
105.670    576.224    542.820     33.404    475.239    538.399    475.239    479.646    475.239
105.770    527.000    547.986    -20.986    475.040    543.606    475.040    479.402    475.040
105.870    577.000    554.280     22.720    474.841    549.935    474.841    479.167    474.841
105.970    542.000    561.761    -19.761    474.644    557.444    474.644    478.939    474.644
106.070    589.609    570.452     19.157    474.448    566.155    474.448    478.719    474.448
106.170    603.000    580.323     22.677    474.254    576.041    474.254    478.506    474.254
106.270    579.000    591.285    -12.285    474.061    587.011    474.061    478.301    474.061
106.370    613.000    603.185      9.815    473.869    598.915    473.869    478.102    473.869
106.470    597.617    615.802    -18.186    473.678    611.531    473.678    477.911    473.678
106.570    654.383    628.853     25.531    473.489    624.574    473.489    477.726    473.489
106.670    668.000    641.992     26.008    473.301    637.701    473.301    477.548    473.301
106.770    612.000    654.828    -42.828    473.115    650.522    473.115    477.376    473.115
106.870    698.969    666.941     32.027    472.931    662.615    472.931    477.211    472.931
106.970    679.000    677.905      1.095    472.747    673.554    472.747    477.053    472.747
107.070    674.000    687.327    -13.327    472.566    682.947    472.566    476.901    472.566
107.170    688.856    694.896     -6.040    472.386    690.483    472.386    476.755    472.386
107.270    682.000    700.434    -18.434    472.207    695.984    472.207    476.617    472.207
107.370    682.000    703.931    -21.931    472.031    699.439    472.031    476.485    472.031
107.470    665.666    705.559    -39.892    471.856    701.021    471.856    476.360    471.856
107.570    749.369    705.639     43.729    471.682    701.050    471.682    476.242    471.682
107.670    703.000    704.593     -1.593    471.511    699.947    471.511    476.132    471.511
107.770    644.000    702.874    -58.874    471.341    698.166    471.341    476.028    471.341
107.870    717.000    700.911     16.089    471.173    696.135    471.173    475.932    471.173
107.970    655.000    699.063    -44.063    471.007    694.214    471.007    475.844    471.007
108.070    709.593    697.594     11.999    470.842    692.665    470.842    475.763    470.842
108.170    713.000    696.649     16.351    470.680    691.633    470.680    475.691    470.680
108.270    673.558    696.250    -22.692    470.519    691.142    470.519    475.627    470.519
108.370    688.172    696.298     -8.126    470.361    691.091    470.361    475.571    470.361
108.470    687.000    696.576     -9.576    470.204    691.262    470.204    475.525    470.204
108.570    716.000    696.770     19.230    470.050    691.342    470.050    475.488    470.050
108.670    686.000    696.501    -10.501    469.897    690.950    469.897    475.461    469.897
108.770    687.000    695.364     -8.364    469.747    689.682    469.747    475.444    469.747
108.870    651.919    692.988    -41.069    469.599    687.166    469.599    475.438    469.599
108.970    663.000    689.088    -26.088    469.453    683.118    469.453    475.443    469.453
109.070    664.000    683.514    -19.514    469.309    677.385    469.309    475.460    469.309
109.170    627.000    676.266    -49.266    469.167    669.967    469.167    475.489    469.167
109.270    667.000    667.487     -0.487    469.028    661.007    469.028    475.531    469.028
109.370    626.837    657.430    -30.592    468.891    650.756    468.891    475.588    468.891
109.470    667.000    646.414     20.586    468.756    639.534    468.756    475.659    468.756
109.570    642.000    634.790      7.210    468.624    627.690    468.624    475.745    468.624
109.670    648.000    622.907     25.093    468.494    615.571    468.494    475.849    468.494
109.770    629.000    611.091     17.909    468.366    603.505    468.366    475.971    468.366
109.870    607.302    599.636      7.666    468.241    591.781    468.241    476.112    468.241
109.970    623.000    588.792     34.208    468.119    580.649    468.119    476.275    468.119
110.070    601.750    578.759     22.991    467.999    570.308    467.999    476.462    467.999
110.170    613.146    569.687     43.458    467.881    560.904    467.881    476.675    467.881
110.270    561.000    561.675     -0.675    467.767    552.533    467.767    476.917    467.767
110.370    510.887    554.752    -43.865    467.655    545.221    467.655    477.192    467.655
110.470    583.000    548.958     34.042    467.545    539.003    467.545    477.505    467.545
110.570    597.000    544.287     52.713    467.439    533.867    467.439    477.862    467.439
110.670    577.114    540.667     36.447    467.335    529.734    467.335    478.269    467.335
110.770    559.000    538.024     20.976    467.234    526.521    467.234    478.736    467.234
110.870    564.000    536.276     27.724    467.135    524.136    467.135    479.273    467.135
110.970    587.000    535.336     51.664    467.040    522.479    467.040    479.894    467.040
111.070    501.959    535.120    -33.161    466.947    521.449    466.947    480.615    466.947
111.170    525.000    535.552    -10.552    466.858    520.951    466.858    481.454    466.858
111.270    521.000    536.564    -15.564    466.771    520.894    466.771    482.436    466.771
111.370    542.000    538.104      3.896    466.688    521.197    466.688    483.588    466.688
111.470    554.395    540.133     14.262    466.608    521.791    466.608    484.942    466.608
111.570    525.000    542.628    -17.628    466.530    522.615    466.530    486.535    466.530
111.670    528.720    545.584    -16.865    466.456    523.621    466.456    488.411    466.456
111.770    525.000    549.011    -24.011    466.385    524.769    466.385    490.618    466.385
111.870    560.150    552.935      7.215    466.317    526.034    466.317    493.209    466.317
111.970    620.000    557.395     62.605    466.253    527.400    466.253    496.238    466.253
112.070    538.000    562.457    -24.457    466.192    528.863    466.192    499.776    466.192
112.170    557.783    568.188    -10.405    466.134    530.427    466.134    503.884    466.134
112.270    580.938    574.670      6.268    466.079    532.108    466.079    508.630    466.079
112.370    591.000    581.992      9.008    466.028    533.931    466.028    514.078    466.028
112.470    550.290    590.251    -39.961    465.981    535.928    465.981    520.292    465.981
112.570    591.000    599.545     -8.545    465.937    538.141    465.937    527.328    465.937
112.670    576.850    609.974    -33.124    465.896    540.622    465.896    535.235    465.896
112.770    630.000    621.642      8.358    465.860    543.441    465.860    544.048    465.860
112.870    631.050    634.655     -3.605    465.826    546.681    465.826    553.786    465.826
112.970    617.398    649.124    -31.726    465.797    550.457    465.797    564.449    465.797
113.070    705.504    665.173     40.331    465.771    554.914    465.771    576.013    465.771
113.170    698.061    682.936     15.125    465.749    560.243    465.749    588.423    465.749
113.270    711.000    702.600      8.400    465.730    566.697    465.730    601.614    465.730
113.370    762.000    724.376     37.624    465.716    574.602    465.716    615.467    465.716
113.470    785.000    748.537     36.463    465.705    584.382    465.705    629.836    465.705
113.570    767.000    775.442     -8.442    465.699    596.579    465.699    644.532    465.699
113.670    816.000    805.550     10.450    465.696    611.880    465.696    659.332    465.696
113.770    747.000    839.448    -92.448    465.697    631.141    465.697    673.965    465.697
113.870    831.971    877.878    -45.907    465.703    655.414    465.703    688.120    465.703
113.970    965.000    921.761     43.239    465.712    685.971    465.712    701.446    465.712
114.070    943.000    972.225    -29.225    465.726    724.321    465.726    713.561    465.726
114.170   1044.000   1030.628     13.372    465.744    772.222    465.744    724.067    465.744
114.270   1086.000   1098.585    -12.585    465.766    831.675    465.766    732.574    465.766
114.370   1240.113   1177.972     62.141    465.792    904.909    465.792    738.733    465.792
114.470   1328.284   1270.932     57.352    465.823    994.337    465.823    742.271    465.823
114.570   1319.000   1379.836    -60.836    465.858   1102.497    465.858    743.021    465.858
114.670   1544.210   1507.220     36.990    465.898   1231.959    465.898    740.949    465.898
114.770   1682.816   1655.671     27.145    465.942   1385.210    465.942    736.156    465.942
114.870   1975.000   1827.675    147.325    465.990   1564.512    465.990    728.865    465.990
114.970   2143.000   2025.418    117.582    466.043   1771.738    466.043    719.389    466.043
115.070   2229.940   2250.577    -20.637    466.101   2008.191    466.101    708.105    466.101
115.170   2470.000   2504.100    -34.100    466.163   2274.423    466.163    695.409    466.163
115.270   2820.000   2785.994     34.006    466.230   2570.048    466.230    681.694    466.230
115.370   3160.462   3095.145     65.317    466.301   2893.587    466.301    667.329    466.301
115.470   3480.000   3429.178     50.822    466.378   3242.333    466.378    652.646    466.378
115.570   3766.000   3784.357    -18.357    466.459   3612.263    466.459    637.936    466.459
115.670   4131.043   4155.551    -24.507    466.545   3998.000    466.545    623.446    466.545
115.770   4377.000   4536.251   -159.251    466.636   4392.831    466.636    609.384    466.636
115.870   4716.000   4918.660   -202.660    466.733   4788.792    466.733    595.914    466.733
115.970   5231.000   5293.834    -62.834    466.834   5176.816    466.834    583.168    466.834
116.070   5558.000   5651.913    -93.913    466.940   5546.946    466.940    571.239    466.940
116.170   5852.354   5982.416   -130.062    467.051   5888.640    467.051    560.193    467.051
116.270   6369.000   6274.653     94.347    467.168   6191.172    467.168    550.064    467.168
116.370   6472.000   6518.256    -46.256    467.289   6444.161    467.289    540.866    467.289
116.470   6747.000   6703.831     43.169    467.416   6638.224    467.416    532.587    467.416
116.570   6943.000   6823.711    119.289    467.549   6765.716    467.549    525.200    467.549
116.670   6883.401   6872.680     10.722    467.686   6821.463    467.686    518.662    467.686
116.770   6767.943   6848.541    -80.598    467.829   6803.314    467.829    512.923    467.829
116.870   6698.000   6752.358    -54.358    467.978   6712.390    467.978    507.920    467.978
116.970   6477.190   6588.320   -111.130    468.132   6552.937    468.132    503.590    468.132
117.070   6418.000   6363.248     54.752    468.291   6331.841    468.291    499.865    468.291
117.170   5983.000   6085.903   -102.903    468.457   6057.924    468.457    496.681    468.457
117.270   5866.673   5766.235    100.438    468.628   5741.200    468.628    493.973    468.628
117.370   5254.000   5414.693   -160.693    468.804   5392.178    468.804    491.681    468.804
117.470   4871.000   5041.683   -170.683    468.987   5021.318    468.987    489.748    468.987
117.570   4603.003   4657.162    -54.159    469.175   4638.629    469.175    488.123    469.175
117.670   4279.000   4270.222      8.778    469.369   4253.251    469.369    486.763    469.369
117.770   3835.472   3888.932    -53.460    469.569   3873.292    469.569    485.625    469.569
117.870   3620.000   3520.161     99.839    469.775   3505.661    469.775    484.676    469.775
117.970   3370.000   3169.491    200.509    469.987   3155.970    469.987    483.886    469.987
118.070   2953.000   2841.194    111.806    470.205   2828.518    470.205    483.229    470.205
118.170   2555.000   2538.270     16.730    470.430   2526.329    470.430    482.685    470.430
118.270   2329.000   2262.533     66.467    470.660   2251.236    470.660    482.235    470.660
118.370   1985.000   2014.732    -29.732    470.897   2004.005    470.897    481.866    470.897
118.470   1711.000   1794.708    -83.708    471.140   1784.490    471.140    481.564    471.140
118.570   1573.000   1601.549    -28.549    471.389   1591.788    471.389    481.322    471.389
118.670   1380.793   1433.761    -52.968    471.645   1424.416    471.645    481.131    471.645
118.770   1249.000   1289.433    -40.433    471.907   1280.470    471.907    480.984    471.907
118.870   1139.922   1166.390    -26.468    472.176   1157.777    472.176    480.877    472.176
118.970   1035.000   1062.325    -27.325    472.451   1054.039    472.451    480.806    472.451
119.070    956.000    974.925    -18.925    472.733    966.942    472.733    480.767    472.733
119.170    887.873    901.950    -14.076    473.022    894.250    473.022    480.758    473.022
119.270    878.000    841.309     36.691    473.318    833.874    473.318    480.778    473.318
119.370    791.000    791.099     -0.099    473.620    783.913    473.620    480.823    473.620
119.470    779.000    749.631     29.369    473.929    742.678    473.929    480.894    473.929
119.570    701.000    715.436    -14.436    474.245    708.699    474.245    480.989    474.245
119.670    709.000    687.258     21.742    474.568    680.723    474.568    481.107    474.568
119.770    659.000    664.044     -5.044    474.898    657.696    474.898    481.248    474.898
119.870    644.000    644.918     -0.918    475.235    638.742    475.235    481.412    475.235
119.970    616.323    629.166    -12.844    475.579    623.148    475.579    481.598    475.579
120.070    633.000    616.210     16.790    475.930    610.335    475.930    481.806    475.930
120.170    549.000    605.584    -56.584    476.289    599.837    476.289    482.037    476.289
120.270    584.000    596.920    -12.920    476.655    591.285    476.655    482.291    476.655
120.370    560.000    589.923    -29.923    477.028    584.386    477.028    482.567    477.028
120.470    569.000    584.364    -15.364    477.409    578.909    477.409    482.867    477.409
120.570    572.000    580.061     -8.061    477.797    574.672    477.797    483.190    477.797
120.670    554.950    576.872    -21.922    478.193    571.532    478.193    483.536    478.193
120.770    536.000    574.686    -38.686    478.596    569.379    478.596    483.908    478.596
120.870    553.000    573.412    -20.412    479.007    568.121    479.007    484.304    479.007
120.970    571.000    572.979     -1.979    479.426    567.687    479.426    484.725    479.426
121.070    547.000    573.325    -26.325    479.853    568.015    479.853    485.171    479.853
121.170    590.000    574.397     15.603    480.287    569.051    480.287    485.642    480.287
121.270    575.000    576.144     -1.144    480.729    570.745    480.729    486.139    480.729
121.370    550.000    578.515    -28.515    481.180    573.046    481.180    486.660    481.180
121.470    610.000    581.456     28.544    481.638    575.901    481.638    487.207    481.638
121.570    568.123    584.909    -16.786    482.104    579.252    482.104    487.777    482.104
121.670    542.000    588.810    -46.810    482.579    583.036    482.579    488.371    482.579
121.770    545.000    593.085    -48.085    483.062    587.181    483.062    488.986    483.062
121.870    604.928    597.653      7.274    483.553    591.607    483.553    489.622    483.553
121.970    558.730    602.426    -43.696    484.052    596.228    484.052    490.276    484.052
122.070    576.000    607.306    -31.306    484.560    600.947    484.560    490.947    484.560
122.170    625.000    612.188     12.812    485.076    605.664    485.076    491.631    485.076
122.270    604.732    616.961    -12.229    485.601    610.269    485.601    492.327    485.601
122.370    605.567    621.512    -15.945    486.134    614.653    486.134    493.029    486.134
122.470    645.000    625.727     19.273    486.676    618.706    486.676    493.736    486.676
122.570    630.000    629.495      0.505    487.227    622.321    487.227    494.442    487.227
122.670    641.000    632.717      8.283    487.786    625.403    487.786    495.143    487.786
122.770    670.000    635.307     34.693    488.354    627.871    488.354    495.836    488.354
122.870    643.686    637.199      6.486    488.932    629.664    488.932    496.514    488.932
122.970    657.404    638.355     19.049    489.518    630.747    489.518    497.174    489.518
123.070    650.116    638.761     11.355    490.113    631.110    490.113    497.811    490.113
123.170    626.000    638.429    -12.429    490.717    630.770    490.717    498.424    490.717
123.270    666.044    637.399     28.645    491.331    629.767    491.331    499.009    491.331
123.370    600.987    635.726    -34.739    491.953    628.158    491.953    499.567    491.953
123.470    667.000    633.482     33.518    492.585    626.015    492.585    500.097    492.585
123.570    637.918    630.748      7.170    493.227    623.416    493.227    500.601    493.227
123.670    655.000    627.609     27.391    493.878    620.443    493.878    501.083    493.878
123.770    615.530    624.151     -8.621    494.538    617.180    494.538    501.546    494.538
123.870    613.239    620.458     -7.219    495.208    613.706    495.208    501.994    495.208
123.970    571.983    616.608    -44.625    495.887    610.094    495.887    502.432    495.887
124.070    590.000    612.672    -22.672    496.576    606.411    496.576    502.865    496.576
124.170    631.000    608.712     22.288    497.275    602.716    497.275    503.297    497.275
124.270    569.891    604.780    -34.889    497.984    599.054    497.984    503.731    497.984
124.370    604.847    600.915      3.932    498.703    595.464    498.703    504.173    498.703
124.470    613.000    597.148     15.852    499.432    591.971    499.432    504.624    499.432
124.570    614.000    593.498     20.502    500.170    588.593    500.170    505.089    500.170
124.670    565.000    589.976    -24.976    500.919    585.338    500.919    505.569    500.919
124.770    624.172    586.587     37.585    501.678    582.208    501.678    506.067    501.678
124.870    560.000    583.329    -23.329    502.447    579.199    502.447    506.585    502.447
124.970    586.000    580.197      5.803    503.227    576.306    503.227    507.124    503.227
