neutron_powder_diffraction_0189
R_wp: 3.935
Temperature (K): 1074.000
Counts: 83615.00
Wavelength (Ã…): 2.52098
COMMENTS
Test file for demonstrating the .xyy file format in Reel1.0
END OF HEADER
   tth       Y_obs     Y_calc      Y_res    Background    Phase_1_Nuc    Phase_1_Mag    Phase_2_Nuc    Phase_2_Mag
  9.970    619.000    576.832     42.168    576.224    576.775    576.224    576.281    576.224
 10.070    588.000    576.868     11.132    576.211    576.811    576.211    576.269    576.211
 10.170    600.000    576.907     23.093    576.194    576.849    576.194    576.251    576.194
 10.270    595.224    576.949     18.274    576.171    576.891    576.171    576.229    576.171
 10.370    588.000    576.999     11.001    576.145    576.941    576.145    576.203    576.145
 10.470    602.000    577.072     24.928    576.113    577.014    576.113    576.172    576.113
 10.570    584.746    577.144      7.601    576.078    577.085    576.078    576.136    576.078
 10.670    611.000    577.229     33.771    576.037    577.169    576.037    576.096    576.037
 10.770    574.000    577.334     -3.334    575.993    577.274    575.993    576.052    575.993
 10.870    573.000    577.469     -4.469    575.944    577.409    575.944    576.003    575.944
 10.970    582.000    577.644      4.356    575.890    577.583    575.890    575.950    575.890
 11.070    635.000    577.873     57.127    575.833    577.812    575.833    575.892    575.833
 11.170    574.000    578.181     -4.181    575.771    578.119    575.771    575.831    575.771
 11.270    581.000    578.600      2.400    575.705    578.538    575.705    575.765    575.705
 11.370    590.000    579.189     10.811    575.635    579.126    575.635    575.695    575.635
 11.470    578.000    580.072     -2.072    575.560    580.009    575.560    575.621    575.560
 11.570    589.574    581.608      7.967    575.482    581.543    575.482    575.543    575.482
 11.670    628.000    584.885     43.115    575.400    584.819    575.400    575.461    575.400
 11.770    599.216    592.660      6.557    575.313    592.588    575.313    575.375    575.313
 11.870    600.996    609.744     -8.748    575.223    609.662    575.223    575.285    575.223
 11.970    659.000    640.315     18.685    575.129    640.215    575.129    575.192    575.129
 12.070    666.000    680.746    -14.746    575.031    680.622    575.031    575.095    575.031
 12.170    672.513    712.954    -40.441    574.929    712.811    574.929    574.994    574.929
 12.270    682.000    713.910    -31.910    574.824    713.766    574.824    574.889    574.824
 12.370    683.000    682.638      0.362    574.715    682.511    574.715    574.780    574.715
 12.470    622.453    641.771    -19.317    574.602    641.667    574.602    574.667    574.602
 12.570    586.015    610.234    -24.218    574.485    610.148    574.485    574.551    574.485
 12.670    612.000    592.308     19.692    574.365    592.232    574.365    574.431    574.365
 12.770    590.000    583.989      6.011    574.242    583.917    574.242    574.308    574.242
 12.870    620.754    580.369     40.386    574.114    580.298    574.114    574.181    574.114
 12.970    599.618    578.578     21.040    573.984    578.508    573.984    574.051    573.984
 13.070    560.000    577.468    -17.468    573.850    577.399    573.850    573.917    573.850
 13.170    533.000    576.663    -43.663    573.712    576.594    573.712    573.780    573.712
 13.270    558.000    576.033    -18.033    573.572    575.963    573.572    573.640    573.572
 13.370    536.000    575.517    -39.517    573.428    575.448    573.428    573.496    573.428
 13.470    550.000    575.081    -25.081    573.280    575.012    573.280    573.349    573.280
 13.570    585.168    574.703     10.465    573.130    574.633    573.130    573.199    573.130
 13.670    589.000    574.366     14.634    572.976    574.296    572.976    573.045    572.976
 13.770    561.221    574.059    -12.839    572.819    573.989    572.819    572.889    572.819
 13.870    495.000    573.776    -78.776    572.659    573.705    572.659    572.729    572.659
 13.970    617.285    573.510     43.775    572.496    573.439    572.496    572.566    572.496
 14.070    548.000    573.258    -25.258    572.330    573.186    572.330    572.401    572.330
 14.170    597.000    573.015     23.985    572.161    572.944    572.161    572.232    572.161
 14.270    520.000    572.780    -52.780    571.989    572.709    571.989    572.060    571.989
 14.370    569.296    572.551     -3.255    571.814    572.479    571.814    571.886    571.814
 14.470    583.000    572.327     10.673    571.636    572.254    571.636    571.708    571.636
 14.570    536.000    572.105    -36.105    571.455    572.032    571.455    571.528    571.455
 14.670    577.000    571.886      5.114    571.272    571.813    571.272    571.345    571.272
 14.770    564.000    571.669     -7.669    571.085    571.595    571.085    571.159    571.085
 14.870    589.539    571.452     18.087    570.896    571.378    570.896    570.970    570.896
 14.970    569.000    571.236     -2.236    570.705    571.161    570.705    570.779    570.705
 15.070    575.000    571.020      3.980    570.510    570.945    570.510    570.586    570.510
 15.170    551.000    570.808    -19.808    570.314    570.729    570.314    570.393    570.314
 15.270    606.000    570.596     35.404    570.114    570.514    570.114    570.196    570.114
 15.370    543.000    570.380    -27.380    569.912    570.298    569.912    569.994    569.912
 15.470    575.000    570.162      4.838    569.707    570.079    569.707    569.790    569.707
 15.570    609.000    569.943     39.057    569.500    569.859    569.500    569.584    569.500
 15.670    573.000    569.722      3.278    569.291    569.639    569.291    569.374    569.291
 15.770    529.608    569.501    -39.893    569.079    569.416    569.079    569.163    569.079
 15.870    562.802    569.278     -6.476    568.864    569.193    568.864    568.949    568.864
 15.970    597.000    569.053     27.947    568.648    568.968    568.648    568.733    568.648
 16.070    580.000    568.828     11.172    568.429    568.742    568.429    568.515    568.429
 16.170    572.653    568.603      4.051    568.208    568.516    568.208    568.294    568.208
 16.270    538.000    568.374    -30.374    567.984    568.287    567.984    568.071    567.984
 16.370    600.788    568.143     32.644    567.758    568.056    567.758    567.846    567.758
 16.470    561.000    567.911     -6.911    567.531    567.823    567.531    567.618    567.531
 16.570    547.000    567.678    -20.678    567.301    567.589    567.301    567.389    567.301
 16.670    572.908    567.442      5.465    567.069    567.353    567.069    567.158    567.069
 16.770    554.000    567.205    -13.205    566.835    567.116    566.835    566.924    566.835
 16.870    562.000    566.967     -4.967    566.598    566.877    566.598    566.688    566.598
 16.970    614.000    566.727     47.273    566.360    566.636    566.360    566.451    566.360
 17.070    513.000    566.485    -53.485    566.120    566.394    566.120    566.211    566.120
 17.170    576.000    566.242      9.758    565.878    566.150    565.878    565.970    565.878
 17.270    523.000    565.998    -42.998    565.634    565.905    565.634    565.726    565.634
 17.370    547.218    565.751    -18.534    565.388    565.658    565.388    565.481    565.388
 17.470    578.000    565.504     12.496    565.141    565.410    565.141    565.234    565.141
 17.570    526.824    565.255    -38.431    564.891    565.160    564.891    564.985    564.891
 17.670    569.714    565.004      4.710    564.640    564.909    564.640    564.735    564.640
 17.770    544.406    564.752    -20.345    564.387    564.656    564.387    564.482    564.387
 17.870    565.000    564.498      0.502    564.132    564.402    564.132    564.228    564.132
 17.970    589.165    564.245     24.920    563.876    564.148    563.876    563.973    563.876
 18.070    586.458    563.989     22.468    563.618    563.892    563.618    563.715    563.618
 18.170    523.000    563.732    -40.732    563.358    563.633    563.358    563.456    563.358
 18.270    562.000    563.472     -1.472    563.097    563.374    563.097    563.196    563.097
 18.370    576.000    563.213     12.787    562.834    563.113    562.834    562.934    562.834
 18.470    538.151    562.951    -24.801    562.570    562.851    562.570    562.670    562.570
 18.570    558.000    562.688     -4.688    562.304    562.587    562.304    562.405    562.304
 18.670    583.000    562.424     20.576    562.037    562.322    562.037    562.139    562.037
 18.770    573.000    562.159     10.841    561.768    562.056    561.768    561.871    561.768
 18.870    526.000    561.892    -35.892    561.498    561.789    561.498    561.601    561.498
 18.970    555.000    561.625     -6.625    561.227    561.521    561.227    561.331    561.227
 19.070    551.000    561.356    -10.356    560.954    561.251    560.954    561.059    560.954
 19.170    577.291    561.086     16.204    560.680    560.981    560.680    560.785    560.680
 19.270    565.000    560.816      4.184    560.404    560.709    560.404    560.511    560.404
 19.370    574.000    560.544     13.456    560.127    560.437    560.127    560.235    560.127
 19.470    545.000    560.272    -15.272    559.849    560.164    559.849    559.958    559.849
 19.570    540.761    559.999    -19.238    559.570    559.890    559.570    559.679    559.570
 19.670    627.000    559.726     67.274    559.290    559.616    559.290    559.400    559.290
 19.770    519.702    559.451    -39.749    559.008    559.340    559.008    559.119    559.008
 19.870    573.000    559.175     13.825    558.726    559.063    558.726    558.838    558.726
 19.970    517.152    558.901    -41.749    558.442    558.786    558.442    558.557    558.442
 20.070    520.000    558.624    -38.624    558.157    558.507    558.157    558.274    558.157
 20.170    560.963    558.347      2.616    557.872    558.228    557.872    557.990    557.872
 20.270    519.000    558.068    -39.068    557.585    557.949    557.585    557.704    557.585
 20.370    548.000    557.789     -9.789    557.297    557.669    557.297    557.417    557.297
 20.470    516.924    557.511    -40.587    557.008    557.390    557.008    557.130    557.008
 20.570    553.000    557.244     -4.244    556.719    557.122    556.719    556.841    556.719
 20.670    562.000    556.974      5.026    556.428    556.850    556.428    556.552    556.428
 20.770    565.858    556.694      9.163    556.137    556.570    556.137    556.261    556.137
 20.870    517.000    556.414    -39.414    555.844    556.288    555.844    555.970    555.844
 20.970    585.796    556.142     29.654    555.551    556.015    555.551    555.678    555.551
 21.070    549.000    555.946     -6.946    555.257    555.818    555.257    555.386    555.257
 21.170    574.000    555.688     18.312    554.962    555.558    554.962    555.092    554.962
 21.270    560.000    555.409      4.591    554.667    555.278    554.667    554.798    554.667
 21.370    518.000    555.130    -37.130    554.371    554.997    554.371    554.503    554.371
 21.470    556.287    554.850      1.437    554.074    554.716    554.074    554.208    554.074
 21.570    537.000    554.572    -17.572    553.776    554.436    553.776    553.912    553.776
 21.670    523.427    554.294    -30.866    553.478    554.156    553.478    553.615    553.478
 21.770    530.000    554.016    -24.016    553.179    553.878    553.179    553.318    553.179
 21.870    600.000    553.741     46.259    552.880    553.600    552.880    553.020    552.880
 21.970    598.009    553.468     44.541    552.580    553.326    552.580    552.722    552.580
 22.070    542.000    553.216    -11.216    552.279    553.072    552.279    552.423    552.279
 22.170    536.063    552.972    -16.910    551.978    552.827    551.978    552.124    551.978
 22.270    562.539    552.707      9.833    551.676    552.559    551.676    551.824    551.676
 22.370    577.217    552.441     24.776    551.374    552.291    551.374    551.524    551.374
 22.470    512.729    552.178    -39.449    551.072    552.027    551.072    551.223    551.072
 22.570    509.000    551.920    -42.920    550.769    551.766    550.769    550.922    550.769
 22.670    542.000    551.666     -9.666    550.465    551.510    550.465    550.621    550.465
 22.770    526.000    551.417    -25.417    550.162    551.260    550.162    550.319    550.162
 22.870    573.000    551.182     21.818    549.857    551.022    549.857    550.018    549.857
 22.970    561.000    550.996     10.004    549.553    550.833    549.553    549.715    549.553
 23.070    530.000    550.790    -20.790    549.248    550.626    549.248    549.413    549.248
 23.170    559.943    550.581      9.361    548.943    550.414    548.943    549.111    548.943
 23.270    581.000    550.387     30.613    548.638    550.217    548.638    548.808    548.638
 23.370    590.000    550.212     39.788    548.332    550.040    548.332    548.505    548.332
 23.470    549.000    550.064     -1.064    548.026    549.888    548.026    548.202    548.026
 23.570    528.000    549.949    -21.949    547.720    549.771    547.720    547.899    547.720
 23.670    567.000    549.882     17.118    547.414    549.701    547.414    547.596    547.414
 23.770    551.000    549.880      1.120    547.107    549.695    547.107    547.293    547.107
 23.870    579.289    549.965     29.324    546.801    549.778    546.801    546.990    546.801
 23.970    504.000    550.189    -46.189    546.494    549.999    546.494    546.687    546.494
 24.070    585.000    550.669     34.331    546.187    550.475    546.187    546.384    546.187
 24.170    570.000    551.743     18.257    545.881    551.546    545.881    546.081    545.881
 24.270    531.697    554.373    -22.676    545.574    554.174    545.574    545.778    545.574
 24.370    560.000    560.676     -0.676    545.267    560.477    545.267    545.475    545.267
 24.470    600.374    573.736     26.638    544.960    573.542    544.960    545.173    544.960
 24.570    560.000    595.238    -35.238    544.653    595.055    544.653    544.871    544.653
 24.670    643.120    620.986     22.135    544.346    620.816    544.346    544.569    544.346
 24.770    634.000    638.122     -4.122    544.039    637.959    544.039    544.267    544.039
 24.870    599.180    633.921    -34.741    543.732    633.750    543.732    543.966    543.732
 24.970    552.000    611.840    -59.840    543.425    611.647    543.425    543.665    543.425
 25.070    619.000    586.173     32.827    543.118    585.956    543.118    543.365    543.118
 25.170    550.101    566.911    -16.810    542.812    566.674    542.812    543.065    542.812
 25.270    566.242    555.829     10.413    542.505    555.577    542.505    542.766    542.505
 25.370    562.000    550.455     11.545    542.199    550.191    542.199    542.467    542.199
 25.470    559.000    547.964     11.036    541.893    547.690    541.893    542.169    541.893
 25.570    558.000    546.637     11.363    541.587    546.354    541.587    541.872    541.587
 25.670    599.000    545.762     53.238    541.281    545.469    541.281    541.576    541.281
 25.770    541.000    545.105     -4.105    540.976    544.801    540.976    541.281    540.976
 25.870    548.000    544.579      3.421    540.671    544.265    540.671    540.986    540.671
 25.970    591.000    544.143     46.857    540.366    543.817    540.366    540.693    540.366
 26.070    565.000    543.780     21.220    540.061    543.441    540.061    540.401    540.061
 26.170    524.866    543.475    -18.609    539.757    543.122    539.757    540.110    539.757
 26.270    562.000    543.219     18.781    539.453    542.851    539.453    539.821    539.453
 26.370    578.225    543.010     35.215    539.149    542.626    539.149    539.533    539.149
 26.470    548.000    542.849      5.151    538.845    542.447    538.845    539.247    538.845
 26.570    486.000    542.737    -56.737    538.542    542.316    538.542    538.963    538.542
 26.670    574.900    542.679     32.221    538.240    542.237    538.240    538.682    538.240
 26.770    588.749    542.688     46.061    537.938    542.222    537.938    538.403    537.938
 26.870    553.000    542.795     10.205    537.636    542.304    537.636    538.126    537.636
 26.970    534.969    542.992     -8.023    537.335    542.473    537.335    537.853    537.335
 27.070    557.000    543.287     13.713    537.034    542.736    537.034    537.584    537.034
 27.170    510.872    543.735    -32.862    536.733    543.149    536.733    537.318    536.733
 27.270    571.000    544.395     26.605    536.433    543.769    536.433    537.058    536.433
 27.370    510.765    545.357    -34.592    536.134    544.687    536.134    536.803    536.134
 27.470    542.000    546.770     -4.770    535.835    546.049    535.835    536.554    535.835
 27.570    533.437    549.021    -15.585    535.537    548.243    535.537    536.312    535.537
 27.670    580.000    553.549     26.451    535.239    552.705    535.239    536.080    535.239
 27.770    597.000    565.102     31.898    534.942    564.178    534.942    535.858    534.942
 27.870    593.000    595.464     -2.464    534.645    594.442    534.645    535.648    534.645
 27.970    666.000    662.698      3.302    534.349    661.551    534.349    535.454    534.349
 28.070    809.401    774.352     35.049    534.053    773.052    534.053    535.278    534.053
 28.170    863.000    898.664    -35.664    533.759    897.192    533.759    535.126    533.759
 28.270    966.000    959.829      6.171    533.464    958.186    533.464    535.004    533.464
 28.370    891.000    907.991    -16.991    533.171    906.176    533.171    534.919    533.171
 28.470    755.000    796.241    -41.241    532.878    794.203    532.878    534.886    532.878
 28.570    764.000    709.641     54.359    532.586    707.287    532.586    534.926    532.586
 28.670    716.000    692.559     23.441    532.294    689.763    532.294    535.072    532.294
 28.770    750.000    740.497      9.503    532.004    737.094    532.004    535.384    532.004
 28.870    800.668    812.326    -11.657    531.714    808.069    531.714    535.954    531.714
 28.970    836.000    846.300    -10.300    531.424    840.806    531.424    536.916    531.424
 29.070    799.000    805.939     -6.939    531.136    798.638    531.136    538.446    531.136
 29.170    719.000    723.203     -4.203    530.848    713.333    530.848    540.728    530.848
 29.270    647.000    647.510     -0.510    530.561    634.179    530.561    543.898    530.561
 29.370    579.083    601.044    -21.960    530.275    583.395    530.275    547.927    530.275
 29.470    627.284    580.629     46.654    529.990    558.218    529.990    552.401    529.990
 29.570    587.000    574.024     12.976    529.705    547.490    529.705    556.238    529.705
 29.670    622.000    571.202     50.798    529.421    542.799    529.421    557.824    529.421
 29.770    580.000    567.343     12.657    529.138    540.285    529.138    556.196    529.138
 29.870    540.834    561.867    -21.033    528.857    538.640    528.857    552.082    528.857
 29.970    528.000    555.975    -27.975    528.575    537.475    528.575    547.075    528.575
 30.070    548.861    550.735     -1.875    528.295    536.663    528.295    542.366    528.295
 30.170    509.898    546.634    -36.736    528.016    536.178    528.016    538.470    528.016
 30.270    526.000    543.853    -17.853    527.737    536.118    527.737    535.471    527.737
 30.370    580.000    542.698     37.302    527.460    536.902    527.460    533.253    527.460
 30.470    523.506    544.146    -20.640    527.183    539.687    527.183    531.635    527.183
 30.570    554.000    550.250      3.750    526.908    546.705    526.908    530.440    526.908
 30.670    545.000    563.409    -18.409    526.633    560.494    526.633    529.525    526.633
 30.770    608.000    583.588     24.412    526.359    581.120    526.359    528.789    526.359
 30.870    595.000    604.701     -9.701    526.087    602.565    526.087    528.170    526.087
 30.970    585.000    614.360    -29.360    525.815    612.489    525.815    527.628    525.815
 31.070    625.000    604.381     20.619    525.544    602.737    525.544    527.142    525.544
 31.170    536.956    582.351    -45.395    525.274    580.900    525.274    526.696    525.274
 31.270    545.000    560.652    -15.652    525.006    559.360    525.006    526.281    525.006
 31.370    581.349    545.630     35.720    524.738    544.468    524.738    525.892    524.738
 31.470    550.000    537.444     12.556    524.471    536.389    524.471    525.522    524.471
 31.570    545.000    533.597     11.403    524.206    532.633    524.206    525.168    524.206
 31.670    538.851    531.807      7.044    523.941    530.918    523.941    524.828    523.941
 31.770    544.000    530.836     13.164    523.678    530.013    523.678    524.500    523.678
 31.870    548.000    530.202     17.798    523.416    529.436    523.416    524.181    523.416
 31.970    555.000    529.750     25.250    523.154    529.033    523.154    523.870    523.154
 32.070    528.000    529.426     -1.426    522.894    528.753    522.894    523.566    522.894
 32.170    518.269    529.210    -10.941    522.635    528.576    522.635    523.269    522.635
 32.270    560.565    529.095     31.471    522.377    528.494    522.377    522.977    522.377
 32.370    483.786    529.080    -45.294    522.121    528.510    522.121    522.690    522.121
 32.470    541.000    529.173     11.827    521.865    528.630    521.865    522.407    521.865
 32.570    505.872    529.389    -23.517    521.610    528.871    521.610    522.128    521.610
 32.670    527.425    529.752     -2.327    521.357    529.255    521.357    521.853    521.357
 32.770    572.000    530.297     41.703    521.105    529.819    521.105    521.582    521.105
 32.870    549.990    531.074     18.916    520.854    530.614    520.854    521.313    520.854
 32.970    502.000    532.159    -30.159    520.604    531.714    520.604    521.047    520.604
 33.070    513.000    533.665    -20.665    520.356    533.235    520.356    520.784    520.356
 33.170    555.000    535.804     19.196    520.108    535.387    520.108    520.524    520.108
 33.270    512.928    539.060    -26.131    519.862    538.654    519.862    520.266    519.862
 33.370    557.228    544.777     12.451    519.617    544.382    519.617    520.010    519.617
 33.470    571.000    556.662     14.338    519.374    556.274    519.374    519.756    519.374
 33.570    582.000    583.130     -1.130    519.131    582.746    519.131    519.504    519.131
 33.670    674.015    638.098     35.916    518.890    637.712    518.890    519.255    518.890
 33.770    743.000    734.877      8.123    518.650    734.481    518.650    519.007    518.650
 33.870    896.000    870.411     25.589    518.411    870.002    518.411    518.762    518.411
 33.970   1053.000   1007.390     45.610    518.174   1006.975    518.174    518.518    518.174
 34.070   1120.724   1074.700     46.024    517.938   1074.300    517.938    518.276    517.938
 34.170   1006.259   1024.144    -17.886    517.703   1023.778    517.703    518.036    517.703
 34.270    874.000    893.477    -19.477    517.469    893.143    517.469    517.797    517.469
 34.370    765.000    754.274     10.726    517.237    753.957    517.237    517.560    517.237
 34.470    625.000    649.898    -24.898    517.006    649.587    517.006    517.325    517.006
 34.570    548.000    588.081    -40.081    516.776    587.770    516.776    517.092    516.776
 34.670    544.018    557.168    -13.151    516.548    556.858    516.548    516.860    516.548
 34.770    527.000    542.863    -15.863    516.321    542.554    516.321    516.630    516.321
 34.870    510.333    535.835    -25.502    516.095    535.529    516.095    516.402    516.095
 34.970    519.000    531.732    -12.732    515.871    531.428    515.871    516.175    515.871
 35.070    531.000    528.907      2.093    515.648    528.605    515.648    515.949    515.648
 35.170    499.000    526.771    -27.771    515.426    526.472    515.426    515.726    515.426
 35.270    510.077    525.083    -15.006    515.206    524.785    515.206    515.504    515.206
 35.370    534.000    523.712     10.288    514.987    523.416    514.987    515.283    514.987
 35.470    559.634    522.574     37.060    514.770    522.280    514.770    515.064    514.770
 35.570    506.817    521.614    -14.797    514.553    521.321    514.553    514.847    514.553
 35.670    550.511    520.790     29.721    514.339    520.498    514.339    514.631    514.339
 35.770    535.805    520.074     15.731    514.125    519.782    514.125    514.416    514.125
 35.870    519.000    519.443     -0.443    513.913    519.153    513.913    514.204    513.913
 35.970    533.000    518.883     14.117    513.703    518.593    513.703    513.992    513.703
 36.070    511.000    518.381     -7.381    513.493    518.091    513.493    513.783    513.493
 36.170    538.564    517.927     20.637    513.285    517.638    513.285    513.574    513.285
 36.270    536.000    517.516     18.484    513.079    517.227    513.079    513.368    513.079
 36.370    531.000    517.143     13.857    512.874    516.854    512.874    513.163    512.874
 36.470    509.000    516.804     -7.804    512.670    516.515    512.670    512.959    512.670
 36.570    523.000    516.499      6.501    512.468    516.210    512.468    512.757    512.468
 36.670    524.627    516.229      8.398    512.268    515.940    512.268    512.557    512.268
 36.770    476.404    515.999    -39.595    512.068    515.709    512.068    512.358    512.068
 36.870    497.000    515.826    -18.826    511.870    515.535    511.870    512.161    511.870
 36.970    503.000    515.759    -12.759    511.674    515.469    511.674    511.965    511.674
 37.070    522.000    515.921      6.079    511.479    515.630    511.479    511.771    511.479
 37.170    529.000    516.552     12.448    511.286    516.260    511.286    511.578    511.286
 37.270    544.000    518.004     25.996    511.093    517.711    511.093    511.387    511.093
 37.370    540.000    520.578     19.422    510.903    520.285    510.903    511.197    510.903
 37.470    519.000    524.188     -5.188    510.714    523.894    510.714    511.009    510.714
 37.570    558.000    527.996     30.004    510.526    527.702    510.526    510.823    510.526
 37.670    569.643    530.396     39.247    510.340    530.102    510.340    510.638    510.340
 37.770    556.000    530.057     25.943    510.155    529.764    510.155    510.454    510.155
 37.870    594.000    527.318     66.682    509.972    527.026    509.972    510.273    509.972
 37.970    528.430    523.634      4.796    509.790    523.342    509.790    510.092    509.790
 38.070    546.000    520.148     25.852    509.610    519.855    509.610    509.914    509.610
 38.170    484.000    517.314    -33.314    509.431    517.018    509.431    509.737    509.431
 38.270    496.081    515.227    -19.146    509.254    514.926    509.254    509.561    509.254
 38.370    500.879    513.801    -12.923    509.078    513.496    509.078    509.387    509.078
 38.470    570.000    512.867     57.133    508.903    512.558    508.903    509.215    508.903
 38.570    495.622    512.259    -16.637    508.731    511.946    508.731    509.044    508.731
 38.670    540.029    511.845     28.184    508.559    511.530    508.559    508.875    508.559
 38.770    526.000    511.539     14.461    508.389    511.221    508.389    508.708    508.389
 38.870    540.000    511.288     28.712    508.221    510.968    508.221    508.542    508.221
 38.970    507.000    511.068     -4.068    508.054    510.745    508.054    508.377    508.054
 39.070    503.976    510.866     -6.891    507.889    510.541    507.889    508.215    507.889
 39.170    507.418    510.679     -3.261    507.725    510.351    507.725    508.053    507.725
 39.270    521.000    510.503     10.497    507.563    510.173    507.563    507.894    507.563
 39.370    468.000    510.337    -42.337    507.402    510.004    507.402    507.736    507.402
 39.470    529.000    510.180     18.820    507.243    509.843    507.243    507.580    507.243
 39.570    522.000    510.031     11.969    507.085    509.691    507.085    507.425    507.085
 39.670    486.000    509.889    -23.889    506.929    509.546    506.929    507.272    506.929
 39.770    495.253    509.755    -14.501    506.774    509.408    506.774    507.121    506.774
 39.870    547.013    509.628     37.386    506.621    509.278    506.621    506.971    506.621
 39.970    529.000    509.508     19.492    506.469    509.155    506.469    506.823    506.469
 40.070    487.000    509.396    -22.396    506.319    509.039    506.319    506.676    506.319
 40.170    481.000    509.291    -28.291    506.171    508.931    506.171    506.531    506.171
 40.270    532.000    509.196     22.804    506.023    508.832    506.023    506.388    506.023
 40.370    468.055    509.109    -41.054    505.878    508.741    505.878    506.246    505.878
 40.470    511.000    509.033      1.967    505.734    508.661    505.734    506.106    505.734
 40.570    483.000    508.968    -25.968    505.591    508.591    505.591    505.968    505.591
 40.670    538.000    508.916     29.084    505.450    508.535    505.450    505.832    505.450
 40.770    533.773    508.878     24.895    505.311    508.493    505.311    505.697    505.311
 40.870    519.456    508.859     10.597    505.173    508.469    505.173    505.563    505.173
 40.970    484.000    508.859    -24.859    505.037    508.464    505.037    505.432    505.037
 41.070    467.062    508.885    -41.822    504.902    508.485    504.902    505.302    504.902
 41.170    499.000    508.940     -9.940    504.768    508.536    504.768    505.174    504.768
 41.270    533.759    509.034     24.725    504.637    508.624    504.637    505.047    504.637
 41.370    499.993    509.176     -9.182    504.506    508.760    504.506    504.922    504.506
 41.470    471.648    509.380    -37.732    504.378    508.959    504.378    504.799    504.378
 41.570    506.000    509.669     -3.669    504.250    509.242    504.250    504.678    504.250
 41.670    528.963    510.083     18.880    504.125    509.651    504.125    504.558    504.125
 41.770    509.000    510.714     -1.714    504.001    510.276    504.001    504.440    504.001
 41.870    484.000    511.787    -27.787    503.878    511.343    503.878    504.324    503.878
 41.970    477.000    513.842    -36.842    503.757    513.392    503.757    504.210    503.757
 42.070    520.158    517.997      2.161    503.637    517.542    503.637    504.097    503.637
 42.170    498.000    526.099    -28.099    503.519    525.641    503.519    503.986    503.519
 42.270    510.000    540.339    -30.339    503.403    539.880    503.403    503.877    503.403
 42.370    539.912    561.943    -22.031    503.288    561.486    503.288    503.770    503.288
 42.470    576.000    589.160    -13.160    503.174    588.708    503.174    503.665    503.174
 42.570    588.000    615.558    -27.558    503.062    615.113    503.062    503.561    503.062
 42.670    643.000    630.683     12.317    502.952    630.240    502.952    503.459    502.952
 42.770    587.000    626.580    -39.580    502.843    626.129    502.843    503.359    502.843
 42.870    578.000    605.667    -27.667    502.736    605.198    502.736    503.261    502.736
 42.970    563.000    577.880    -14.880    502.630    577.388    502.630    503.165    502.630
 43.070    594.055    552.333     41.722    502.526    551.817    502.526    503.071    502.526
 43.170    566.000    533.497     32.503    502.423    532.959    502.423    502.978    502.423
 43.270    538.291    521.731     16.559    502.322    521.175    502.322    502.888    502.322
 43.370    482.000    515.251    -33.251    502.222    514.679    502.222    502.799    502.222
 43.470    521.000    511.926      9.074    502.124    511.340    502.124    502.713    502.124
 43.570    545.625    510.197     35.429    502.027    509.597    502.027    502.628    502.027
 43.670    490.000    509.201    -19.201    501.932    508.588    501.932    502.546    501.932
 43.770    518.000    508.543      9.457    501.838    507.917    501.838    502.466    501.838
 43.870    510.293    508.061      2.232    501.746    507.420    501.746    502.387    501.746
 43.970    523.630    507.689     15.942    501.655    507.033    501.655    502.311    501.655
 44.070    533.000    507.394     25.606    501.566    506.722    501.566    502.238    501.566
 44.170    471.668    507.158    -35.489    501.478    506.470    501.478    502.166    501.478
 44.270    453.000    506.968    -53.968    501.392    506.263    501.392    502.097    501.392
 44.370    481.243    506.816    -25.573    501.307    506.094    501.307    502.030    501.307
 44.470    521.195    506.695     14.499    501.224    505.954    501.224    501.965    501.224
 44.570    485.000    506.602    -21.602    501.142    505.841    501.142    501.903    501.142
 44.670    494.000    506.531    -12.531    501.062    505.749    501.062    501.844    501.062
 44.770    513.000    506.481      6.519    500.983    505.677    500.983    501.787    500.983
 44.870    509.000    506.450      2.550    500.905    505.623    500.905    501.733    500.905
 44.970    501.000    506.437     -5.437    500.830    505.585    500.830    501.681    500.830
 45.070    540.791    506.440     34.350    500.755    505.563    500.755    501.633    500.755
 45.170    507.373    506.460      0.913    500.682    505.555    500.682    501.588    500.682
 45.270    548.437    506.496     41.941    500.611    505.561    500.611    501.545    500.611
 45.370    486.000    506.548    -20.548    500.541    505.582    500.541    501.507    500.541
 45.470    549.273    506.617     42.656    500.472    505.618    500.472    501.471    500.472
 45.570    466.527    506.703    -40.176    500.405    505.669    500.405    501.440    500.405
 45.670    525.000    506.808     18.192    500.340    505.736    500.340    501.412    500.340
 45.770    551.000    506.932     44.068    500.276    505.819    500.276    501.389    500.276
 45.870    484.000    507.078    -23.078    500.213    505.922    500.213    501.369    500.213
 45.970    519.130    507.248     11.882    500.152    506.044    500.152    501.355    500.152
 46.070    513.000    507.444      5.556    500.092    506.189    500.092    501.346    500.092
 46.170    466.000    507.670    -41.670    500.034    506.360    500.034    501.342    500.034
 46.270    476.212    507.930    -31.717    499.977    506.561    499.977    501.345    499.977
 46.370    475.000    508.230    -33.230    499.921    506.796    499.921    501.354    499.921
 46.470    474.057    508.576    -34.520    499.867    507.072    499.867    501.370    499.867
 46.570    525.010    508.977     16.033    499.814    507.397    499.814    501.394    499.814
 46.670    498.000    509.451    -11.451    499.763    507.786    499.763    501.427    499.763
 46.770    526.000    510.022     15.978    499.713    508.264    499.713    501.469    499.713
 46.870    526.000    510.741     15.259    499.665    508.881    499.665    501.523    499.665
 46.970    507.000    511.724     -4.724    499.618    509.751    499.618    501.589    499.618
 47.070    493.169    513.233    -20.064    499.572    511.134    499.572    501.668    499.572
 47.170    495.000    515.786    -20.786    499.528    513.545    499.528    501.764    499.528
 47.270    537.000    520.245     16.755    499.485    517.844    499.485    501.878    499.485
 47.370    510.000    527.723    -17.723    499.444    525.139    499.444    502.013    499.444
 47.470    563.000    539.145     23.855    499.404    536.354    499.404    502.174    499.404
 47.570    560.183    554.466      5.717    499.365    551.435    499.365    502.363    499.365
 47.670    565.267    571.817     -6.550    499.328    568.513    499.328    502.586    499.328
 47.770    566.124    587.070    -20.946    499.292    583.455    499.292    502.851    499.292
 47.870    574.501    594.746    -20.245    499.257    590.777    499.257    503.167    499.257
 47.970    535.000    591.635    -56.635    499.224    587.260    499.224    503.545    499.224
 48.070    538.140    579.931    -41.791    499.192    575.076    499.192    504.003    499.192
 48.170    565.685    564.972      0.713    499.162    559.536    499.162    504.567    499.162
 48.270    602.000    551.410     50.590    499.132    545.244    499.132    505.278    499.132
 48.370    537.000    541.758     -4.758    499.105    534.646    499.105    506.204    499.105
 48.470    551.000    536.597     14.403    499.078    528.215    499.078    507.452    499.078
 48.570    515.701    535.392    -19.691    499.053    525.249    499.053    509.191    499.053
 48.670    526.000    537.345    -11.345    499.029    524.705    499.029    511.665    499.029
 48.770    563.282    541.932     21.350    499.007    525.734    499.007    515.201    499.007
 48.870    574.000    549.058     24.942    498.985    527.857    498.985    520.183    498.985
 48.970    533.000    558.969    -25.969    498.965    530.937    498.965    526.993    498.965
 49.070    562.439    572.105     -9.666    498.947    535.153    498.947    535.894    498.947
 49.170    525.000    589.122    -64.122    498.930    541.173    498.930    546.874    498.930
 49.270    564.000    611.316    -47.316    498.914    550.811    498.914    559.411    498.914
 49.370    639.000    641.887     -2.887    498.899    568.596    498.899    572.177    498.899
 49.470    718.000    688.449     29.551    498.885    604.493    498.885    582.816    498.885
 49.570    774.000    766.527      7.473    498.873    676.962    498.873    588.393    498.873
 49.670    879.529    901.405    -21.877    498.862    813.211    498.862    586.977    498.862
 49.770   1183.578   1122.068     61.510    498.853   1041.681    498.853    579.113    498.853
 49.870   1503.000   1442.610     60.390    498.844   1373.935    498.844    567.347    498.844
 49.970   1860.000   1837.105     22.895    498.837   1781.269    498.837    554.480    498.837
 50.070   2324.000   2223.885    100.115    498.831   2180.095    498.831    542.456    498.831
 50.170   2460.000   2478.688    -18.688    498.826   2445.181    498.826    532.256    498.826
 50.270   2414.000   2494.168    -80.168    498.823   2468.853    498.823    524.180    498.823
 50.370   2227.000   2259.778    -32.778    498.821   2240.622    498.821    518.113    498.821
 50.470   1826.000   1872.265    -46.265    498.820   1857.528    498.820    513.731    498.820
 50.570   1526.963   1460.533     66.430    498.820   1448.873    498.820    510.643    498.820
 50.670   1089.000   1117.528    -28.528    498.821   1107.994    498.821    508.484    498.821
 50.770    914.788    880.306     34.483    498.824    872.263    498.824    506.957    498.824
 50.870    692.368    741.106    -48.738    498.828    734.146    498.828    505.849    498.828
 50.970    661.104    670.283     -9.179    498.833    664.144    498.833    505.018    498.833
 51.070    671.000    636.355     34.645    498.839    630.861    498.839    504.372    498.839
 51.170    589.000    616.706    -27.706    498.846    611.731    498.846    503.856    498.846
 51.270    638.000    600.096     37.904    498.855    595.544    498.855    503.435    498.855
 51.370    625.024    583.773     41.250    498.865    579.574    498.865    503.087    498.865
 51.470    561.298    568.686     -7.388    498.875    564.781    498.875    502.797    498.875
 51.570    594.000    556.206     37.794    498.887    552.551    498.887    502.554    498.887
 51.670    599.000    546.974     52.026    498.901    543.531    498.901    502.351    498.901
 51.770    583.385    540.828     42.557    498.915    537.568    498.915    502.180    498.915
 51.870    531.476    537.143     -5.667    498.930    534.039    498.930    502.037    498.930
 51.970    575.000    535.214     39.786    498.947    532.245    498.947    501.918    498.947
 52.070    548.000    534.497     13.503    498.964    531.643    498.964    501.820    498.964
 52.170    511.915    534.690    -22.776    498.983    531.934    498.983    501.740    498.983
 52.270    513.290    535.731    -22.440    499.003    533.058    499.003    501.677    499.003
 52.370    582.525    537.816     44.709    499.024    535.214    499.024    501.627    499.024
 52.470    513.089    541.559    -28.470    499.046    539.015    499.046    501.590    499.046
 52.570    583.000    548.348     34.652    499.069    545.853    499.069    501.565    499.069
 52.670    599.000    560.919     38.081    499.093    558.461    499.093    501.550    499.093
 52.770    539.000    583.916    -44.916    499.118    581.487    499.118    501.545    499.118
 52.870    633.000    623.916      9.084    499.144    621.507    499.144    501.549    499.144
 52.970    742.000    688.091     53.909    499.172    685.695    499.172    501.561    499.172
 53.070    802.427    781.038     21.389    499.200    778.649    499.200    501.582    499.200
 53.170    963.000    900.258     62.742    499.229    897.869    499.229    501.609    499.229
 53.270    976.948   1031.909    -54.961    499.260   1029.519    499.260    501.645    499.260
 53.370   1127.000   1149.068    -22.068    499.291   1146.675    499.291    501.687    499.291
 53.470   1263.685   1216.800     46.885    499.323   1214.402    499.323    501.736    499.323
 53.570   1227.244   1209.620     17.624    499.357   1207.212    499.357    501.792    499.357
 53.670   1139.000   1130.730      8.270    499.391   1128.302    499.391    501.854    499.391
 53.770   1014.174   1009.063      5.112    499.427   1006.602    499.427    501.923    499.427
 53.870    921.083    878.760     42.322    499.463    876.255    499.463    501.999    499.463
 53.970    815.000    764.359     50.641    499.500    761.801    499.500    502.082    499.500
 54.070    641.000    677.365    -36.365    499.539    674.748    499.539    502.172    499.539
 54.170    657.432    618.632     38.800    499.578    615.951    499.578    502.269    499.578
 54.270    597.000    582.806     14.194    499.618    580.056    499.618    502.374    499.618
 54.370    591.122    562.670     28.452    499.659    559.846    499.659    502.487    499.659
 54.470    573.000    551.974     21.026    499.701    549.071    499.701    502.607    499.701
 54.570    580.000    546.453     33.547    499.744    543.463    499.744    502.736    499.744
 54.670    556.183    543.660     12.523    499.788    540.575    499.788    502.875    499.788
 54.770    519.000    542.369    -23.369    499.833    539.180    499.833    503.023    499.833
 54.870    568.182    542.026     26.156    499.879    538.724    499.879    503.181    499.879
 54.970    570.000    542.405     27.595    499.925    538.980    499.925    503.351    499.925
 55.070    525.000    543.423    -18.423    499.973    539.864    499.973    503.532    499.973
 55.170    571.000    545.072     25.928    500.021    541.367    500.021    503.726    500.021
 55.270    550.000    547.390      2.610    500.070    543.526    500.070    503.935    500.070
 55.370    506.000    550.464    -44.464    500.120    546.425    500.120    504.159    500.120
 55.470    553.765    554.451     -0.686    500.171    550.222    500.171    504.400    500.171
 55.570    540.597    559.653    -19.056    500.223    555.215    500.223    504.660    500.223
 55.670    594.000    566.698     27.302    500.275    562.033    500.275    504.941    500.275
 55.770    568.000    576.973     -8.973    500.329    572.056    500.329    505.244    500.329
 55.870    610.000    593.450     16.550    500.383    588.256    500.383    505.574    500.383
 55.970    636.000    622.044     13.956    500.438    616.543    500.438    505.932    500.438
 56.070    633.000    673.233    -40.233    500.494    667.390    500.494    506.323    500.494
 56.170    709.000    762.975    -53.975    500.550    756.750    500.550    506.750    500.550
 56.270    870.000    911.172    -41.172    500.608    904.519    500.608    507.220    500.608
 56.370   1139.000   1135.868      3.132    500.666   1128.738    500.666    507.737    500.666
 56.470   1397.000   1443.049    -46.049    500.725   1435.391    500.725    508.309    500.725
 56.570   1748.140   1814.855    -66.715    500.785   1806.620    500.785    508.944    500.785
 56.670   2270.311   2201.156     69.154    500.845   2192.296    500.845    509.653    500.845
 56.770   2545.803   2520.199     25.605    500.906   2510.658    500.906    510.449    500.906
 56.870   2637.000   2678.883    -41.883    500.968   2668.590    500.968    511.345    500.968
 56.970   2548.102   2621.495    -73.394    501.031   2610.334    501.031    512.362    501.031
 57.070   2292.113   2370.754    -78.641    501.094   2358.550    501.094    513.525    501.094
 57.170   1955.634   2008.901    -53.267    501.158   1995.433    501.158    514.868    501.158
 57.270   1646.000   1626.432     19.568    501.223   1611.434    501.223    516.439    501.223
 57.370   1312.300   1289.160     23.140    501.288   1272.312    501.288    518.310    501.288
 57.470   1060.000   1029.702     30.298    501.354   1010.585    501.354    520.596    501.354
 57.570    856.000    852.344      3.656    501.421    830.370    501.421    523.475    501.421
 57.670    733.038    744.002    -10.964    501.488    718.311    501.488    527.227    501.488
 57.770    688.018    685.817      2.201    501.556    655.126    501.556    532.273    501.556
 57.870    694.000    661.416     32.584    501.625    623.841    501.625    539.211    501.625
 57.970    653.000    660.448     -7.448    501.694    613.305    501.694    548.837    501.694
 58.070    650.653    678.723    -28.069    501.764    618.364    501.764    562.113    501.764
 58.170    716.000    716.465     -0.465    501.835    638.211    501.835    580.069    501.835
 58.270    825.000    775.915     49.085    501.906    674.172    501.906    603.619    501.906
 58.370    820.082    858.891    -38.809    501.978    727.521    501.978    633.306    501.978
 58.470    987.616    964.584     23.032    502.050    797.617    502.050    668.967    502.050
 58.570   1112.000   1087.788     24.212    502.123    880.531    502.123    709.326    502.123
 58.670   1162.000   1218.051    -56.051    502.196    968.721    502.196    751.476    502.196
 58.770   1376.000   1340.802     35.198    502.270   1052.694    502.270    790.339    502.270
 58.870   1403.000   1440.425    -37.425    502.345   1123.954    502.345    818.793    502.345
 58.970   1551.561   1502.907     48.653    502.420   1175.598    502.420    829.726    502.420
 59.070   1614.000   1518.142     95.858    502.496   1200.723    502.496    819.932    502.496
 59.170   1551.000   1484.456     66.544    502.572   1194.701    502.572    792.359    502.572
 59.270   1458.000   1412.301     45.699    502.649   1160.971    502.649    754.014    502.649
 59.370   1317.484   1321.118     -3.635    502.726   1111.798    502.726    712.070    502.726
 59.470   1240.000   1231.586      8.414    502.803   1062.676    502.803    671.712    502.803
 59.570   1202.000   1161.411     40.589    502.882   1028.310    502.882    635.945    502.882
 59.670   1153.000   1125.731     27.269    502.960   1022.492    502.960    606.115    502.960
 59.770   1214.000   1136.171     77.829    503.039   1056.642    503.039    582.431    503.039
 59.870   1260.136   1196.072     64.064    503.119   1134.614    503.119    564.381    503.119
 59.970   1283.405   1295.768    -12.363    503.199   1247.654    503.199    551.062    503.199
 60.070   1380.000   1411.197    -31.197    503.279   1372.739    503.279    541.445    503.279
 60.170   1588.000   1506.707     81.293    503.360   1475.196    503.360    534.564    503.360
 60.270   1471.316   1544.597    -73.281    503.441   1518.136    503.441    529.617    503.441
 60.370   1531.000   1502.896     28.104    503.523   1480.192    503.523    525.995    503.523
 60.470   1440.000   1388.632     51.368    503.605   1368.797    503.605    523.274    503.605
 60.570   1304.000   1230.916     73.084    503.688   1213.328    503.688    521.172    503.688
 60.670   1040.259   1063.447    -23.187    503.770   1047.650    503.770    519.511    503.770
 60.770    901.908    912.503    -10.595    503.854    898.148    503.854    518.183    503.854
 60.870    804.000    792.827     11.173    503.937    779.629    503.937    517.125    503.937
 60.970    718.000    708.435      9.565    504.021    696.154    504.021    516.296    504.021
 61.070    641.000    656.226    -15.226    504.106    644.649    504.106    515.675    504.106
 61.170    636.058    630.524      5.534    504.190    619.459    504.190    515.242    504.190
 61.270    627.506    626.862      0.644    504.275    616.133    504.275    514.984    504.275
 61.370    618.000    644.062    -26.062    504.360    633.512    504.360    514.878    504.360
 61.470    681.969    684.405     -2.436    504.446    673.905    504.446    514.895    504.446
 61.570    713.000    752.057    -39.057    504.532    741.522    504.532    514.990    504.532
 61.670    805.368    850.084    -44.716    504.618    839.499    504.618    515.096    504.618
 61.770    990.000    976.772     13.228    504.704    966.208    504.704    515.127    504.704
 61.870   1038.000   1122.355    -84.355    504.791   1111.974    504.791    515.000    504.791
 61.970   1214.417   1267.411    -52.993    504.878   1257.428    504.878    514.668    504.878
 62.070   1391.334   1384.184      7.150    504.965   1374.808    504.965    514.148    504.965
 62.170   1358.000   1443.259    -85.259    505.053   1434.635    505.053    513.508    505.053
 62.270   1451.171   1426.820     24.352    505.140   1419.010    505.140    512.823    505.140
 62.370   1274.000   1339.722    -65.722    505.228   1332.713    505.228    512.157    505.228
 62.470   1176.000   1206.029    -30.029    505.316   1199.757    505.316    511.550    505.316
 62.570   1026.000   1055.555    -29.555    505.404   1049.925    505.404    511.023    505.404
 62.670    858.141    913.094    -54.953    505.493    908.008    505.493    510.584    505.493
 62.770    722.000    794.080    -72.080    505.582    789.443    505.582    510.229    505.582
 62.870    716.000    704.449     11.551    505.670    700.179    505.670    509.950    505.670
 62.970    597.768    642.845    -45.077    505.759    638.874    505.759    509.736    505.759
 63.070    624.000    603.837     20.163    505.848    600.113    505.848    509.575    505.848
 63.170    556.519    580.910    -24.391    505.938    577.392    505.938    509.455    505.938
 63.270    578.000    568.434      9.566    506.027    565.091    506.027    509.366    506.027
 63.370    580.704    562.519     18.186    506.117    559.328    506.117    509.302    506.117
 63.470    545.000    561.090    -16.090    506.206    558.032    506.206    509.257    506.206
 63.570    563.483    563.649     -0.166    506.296    560.709    506.296    509.226    506.296
 63.670    570.000    570.998     -0.998    506.386    568.163    506.386    509.208    506.386
 63.770    582.000    584.978     -2.978    506.476    582.235    506.476    509.199    506.476
 63.870    633.000    608.107     24.893    506.566    605.444    506.566    509.199    506.566
 63.970    697.000    642.957     54.043    506.656    640.362    506.656    509.206    506.656
 64.070    708.000    691.199     16.801    506.746    688.662    506.746    509.220    506.746
 64.170    801.000    752.442     48.558    506.836    749.953    506.836    509.240    506.836
 64.270    820.000    823.141     -3.141    506.926    820.695    506.926    509.266    506.926
 64.370    903.000    895.943      7.057    507.017    893.539    507.017    509.296    507.017
 64.470   1006.000    959.988     46.012    507.107    957.629    507.107    509.331    507.107
 64.570   1037.000   1003.242     33.758    507.197   1000.935    507.197    509.370    507.197
 64.670    982.000   1017.191    -35.191    507.287   1014.946    507.287    509.413    507.287
 64.770    996.000   1000.666     -4.666    507.378    998.488    507.378    509.460    507.378
 64.870    998.000    959.330     38.670    507.468    957.221    507.468    509.510    507.468
 64.970    974.000    902.636     71.364    507.558    900.592    507.558    509.563    507.558
 65.070    873.000    840.715     32.285    507.648    838.731    507.648    509.619    507.648
 65.170    760.470    781.671    -21.202    507.738    779.737    507.738    509.678    507.738
 65.270    720.073    730.085    -10.012    507.828    728.191    507.828    509.740    507.828
 65.370    693.000    687.288      5.712    507.918    685.426    507.918    509.804    507.918
 65.470    674.527    652.760     21.766    508.008    650.922    508.008    509.871    508.008
 65.570    580.235    625.434    -45.199    508.098    623.614    508.098    509.940    508.098
 65.670    634.720    604.239     30.481    508.188    602.433    508.188    510.011    508.188
 65.770    576.000    588.177    -12.177    508.277    586.382    508.277    510.084    508.277
 65.870    559.793    576.362    -16.569    508.367    574.576    508.367    510.159    508.367
 65.970    552.000    568.040    -16.040    508.456    566.263    508.456    510.236    508.456
 66.070    558.000    562.574     -4.574    508.545    560.805    508.545    510.315    508.545
 66.170    547.603    559.423    -11.819    508.634    557.660    508.634    510.396    508.634
 66.270    539.000    558.137    -19.137    508.723    556.380    508.723    510.479    508.723
 66.370    581.000    558.379     22.621    508.812    556.626    508.812    510.564    508.812
 66.470    532.605    559.961    -27.356    508.901    558.211    508.901    510.651    508.901
 66.570    524.102    562.908    -38.806    508.989    561.158    508.989    510.739    508.989
 66.670    575.000    567.565      7.435    509.077    565.813    509.077    510.829    509.077
 66.770    595.205    574.801     20.405    509.165    573.045    509.165    510.921    509.165
 66.870    577.598    586.350     -8.752    509.253    584.587    509.253    511.015    509.253
 66.970    627.000    605.292     21.708    509.341    603.520    509.341    511.111    509.341
 67.070    651.668    636.589     15.079    509.428    634.803    509.428    511.208    509.428
 67.170    646.000    687.424    -41.424    509.515    685.622    509.515    511.308    509.515
 67.270    738.400    766.970    -28.570    509.602    765.147    509.602    511.410    509.602
 67.370    839.000    885.110    -46.110    509.689    883.264    509.689    511.513    509.689
 67.470   1097.236   1049.868     47.368    509.775   1047.998    509.775    511.619    509.775
 67.570   1215.722   1263.756    -48.034    509.861   1261.867    509.861    511.728    509.861
 67.670   1509.000   1519.877    -10.877    509.947   1517.976    509.947    511.838    509.947
 67.770   1746.339   1798.964    -52.625    510.032   1797.065    510.032    511.952    510.032
 67.870   1996.000   2068.544    -72.544    510.118   2066.660    510.118    512.068    510.118
 67.970   2305.000   2285.658     19.342    510.203   2283.802    510.203    512.186    510.203
 68.070   2459.000   2405.997     53.003    510.287   2404.174    510.287    512.308    510.287
 68.170   2435.905   2400.604     35.301    510.371   2398.805    510.371    512.433    510.371
 68.270   2285.000   2270.955     14.045    510.455   2269.151    510.455    512.562    510.455
 68.370   1979.000   2048.042    -69.042    510.539   2046.198    510.539    512.694    510.539
 68.470   1735.471   1776.554    -41.083    510.622   1774.636    510.622    512.831    510.622
 68.570   1513.000   1498.758     14.242    510.705   1496.743    510.705    512.971    510.705
 68.670   1234.000   1246.045    -12.045    510.787   1243.918    510.787    513.117    510.787
 68.770   1024.000   1036.567    -12.567    510.869   1034.321    510.869    513.268    510.869
 68.870    930.835    876.295     54.540    510.951    873.931    510.951    513.424    510.951
 68.970    799.120    762.105     37.015    511.032    759.624    511.032    513.587    511.032
 69.070    648.000    685.694    -37.694    511.113    683.099    511.113    513.757    511.113
 69.170    635.163    637.166     -2.004    511.193    634.456    511.193    513.934    511.193
 69.270    642.000    607.485     34.515    511.273    604.658    511.273    514.120    511.273
 69.370    584.249    589.647     -5.398    511.353    586.697    511.353    514.315    511.353
 69.470    602.000    578.848     23.152    511.432    575.767    511.432    514.521    511.432
 69.570    564.000    572.106     -8.106    511.511    568.885    511.511    514.738    511.511
 69.670    567.126    567.719     -0.593    511.589    564.344    511.589    514.968    511.589
 69.770    603.719    564.778     38.941    511.667    561.235    511.667    515.213    511.667
 69.870    584.000    562.817     21.183    511.744    559.090    511.744    515.473    511.744
 69.970    528.000    561.614    -33.614    511.821    557.683    511.821    515.753    511.821
 70.070    553.000    561.062     -8.062    511.897    556.905    511.897    516.054    511.897
 70.170    593.000    561.127     31.873    511.972    556.720    511.972    516.379    511.972
 70.270    570.000    561.841      8.159    512.048    557.156    512.048    516.732    512.048
 70.370    571.000    563.313      7.687    512.122    558.316    512.122    517.118    512.122
 70.470    529.184    565.781    -36.598    512.196    560.435    512.196    517.540    512.196
 70.570    612.578    569.720     42.857    512.270    563.980    512.270    518.005    512.270
 70.670    532.424    576.004    -43.579    512.343    569.817    512.343    518.522    512.343
 70.770    619.919    586.138     33.781    512.416    579.441    512.416    519.102    512.416
 70.870    562.427    602.539    -40.112    512.488    595.250    512.488    519.759    512.488
 70.970    663.418    628.766     34.652    512.559    620.782    512.559    520.515    512.559
 71.070    674.000    669.576      4.424    512.630    660.757    512.630    521.406    512.630
 71.170    752.000    730.591     21.409    512.700    720.744    512.700    522.485    512.700
 71.270    835.954    817.407     18.547    512.769    806.256    512.769    523.833    512.769
 71.370    899.000    934.101    -35.101    512.838    921.244    512.838    525.578    512.838
 71.470   1136.882   1081.318     55.564    512.907   1066.169    512.907    527.905    512.907
 71.570   1161.000   1254.382    -93.382    512.974   1236.097    512.974    531.077    512.974
 71.670   1447.000   1441.955      5.045    513.041   1419.345    513.041    535.443    513.041
 71.770   1569.000   1625.750    -56.750    513.108   1597.198    513.108    541.437    513.108
 71.870   1782.311   1781.855      0.456    513.173   1745.253    513.173    549.556    513.173
 71.970   1958.780   1884.900     73.880    513.239   1837.640    513.239    560.300    513.239
 72.070   1896.831   1915.973    -19.142    513.303   1855.016    513.303    574.097    513.303
 72.170   1870.000   1871.251     -1.251    513.367   1793.314    513.367    591.183    513.367
 72.270   1748.000   1764.132    -16.132    513.430   1666.002    513.430    611.479    513.430
 72.370   1698.000   1618.410     79.590    513.492   1497.394    513.492    634.460    513.492
 72.470   1508.000   1458.874     49.126    513.554   1313.376    513.554    659.027    513.554
 72.570   1364.000   1305.234     58.766    513.615   1135.440    513.615    683.400    513.615
 72.670   1126.000   1169.720    -43.720    513.675    978.323    513.675    705.070    513.675
 72.770   1053.000   1057.023     -4.023    513.735    849.732    513.735    721.028    513.735
 72.870    973.000    965.976      7.024    513.793    751.300    513.793    728.472    513.793
 72.970    867.000    892.386    -25.386    513.851    680.326    513.851    725.914    513.851
 73.070    763.000    831.761    -68.761    513.909    631.760    513.909    713.911    513.909
 73.170    815.116    780.728     34.388    513.965    599.927    513.965    694.768    513.965
 73.270    649.000    737.174    -88.174    514.021    579.699    514.021    671.498    514.021
 73.370    618.000    699.873    -81.873    514.076    567.057    514.076    646.893    514.076
 73.470    652.000    668.151    -16.151    514.130    559.194    514.130    623.089    514.130
 73.570    615.000    641.651    -26.651    514.184    554.333    514.184    601.506    514.184
 73.670    572.979    620.143    -47.163    514.236    551.450    514.236    582.934    514.236
 73.770    623.282    603.371     19.911    514.288    550.010    514.288    567.656    514.288
 73.870    619.000    590.971     28.029    514.339    549.747    514.339    555.573    514.339
 73.970    627.000    582.438     44.562    514.389    550.503    514.389    546.339    514.389
 74.070    602.000    577.143     24.857    514.439    552.126    514.439    539.475    514.439
 74.170    568.743    574.359     -5.615    514.487    554.394    514.487    534.477    514.487
 74.270    615.263    573.296     41.968    514.535    556.987    514.535    530.875    514.535
 74.370    593.910    573.135     20.775    514.582    559.476    514.582    528.278    514.582
 74.470    590.000    573.072     16.928    514.628    561.360    514.628    526.381    514.628
 74.570    592.000    572.410     19.590    514.673    562.163    514.673    524.965    514.673
 74.670    607.000    570.697     36.303    514.717    561.586    514.717    523.873    514.717
 74.770    635.000    567.844     67.156    514.761    559.641    514.761    523.006    514.761
 74.870    644.000    564.107     79.893    514.803    556.653    514.803    522.296    514.803
 74.970    606.000    559.954     46.046    514.845    553.131    514.845    521.701    514.845
 75.070    620.000    555.916     64.084    514.886    549.636    514.886    521.192    514.886
 75.170    591.000    552.510     38.490    514.925    546.703    514.925    520.753    514.925
 75.270    555.884    550.225      5.659    514.964    544.833    514.964    520.369    514.964
 75.370    596.000    549.538     46.462    515.002    544.515    515.002    520.032    515.002
 75.470    528.962    550.945    -21.982    515.039    546.251    515.039    519.735    515.039
 75.570    546.000    554.972     -8.972    515.076    550.572    515.076    519.471    515.076
 75.670    563.000    562.150      0.850    515.111    558.013    515.111    519.237    515.111
 75.770    556.497    572.934    -16.436    515.145    569.034    515.145    519.028    515.145
 75.870    626.672    587.562     39.110    515.178    583.875    515.178    518.841    515.178
 75.970    582.752    605.882    -23.130    515.211    602.386    515.211    518.673    515.211
 76.070    660.461    627.181     33.280    515.242    623.858    515.242    518.522    515.242
 76.170    652.661    650.074      2.587    515.273    646.908    515.273    518.386    515.273
 76.270    669.000    672.482     -3.482    515.302    669.461    515.302    518.263    515.302
 76.370    645.000    691.745    -46.745    515.331    688.859    515.331    518.152    515.331
 76.470    711.574    704.966      6.608    515.358    702.207    515.358    518.051    515.358
 76.570    687.001    709.727    -22.726    515.385    707.088    515.385    517.959    515.385
 76.670    633.000    705.019    -72.019    515.410    702.496    515.410    517.876    515.410
 76.770    717.019    691.731     25.288    515.435    689.317    515.435    517.799    515.435
 76.870    660.000    672.205    -12.205    515.458    669.894    515.458    517.729    515.458
 76.970    611.000    649.316    -38.316    515.481    647.101    515.481    517.664    515.481
 77.070    609.000    625.733    -16.733    515.502    623.607    515.502    517.605    515.502
 77.170    608.031    603.546      4.484    515.522    601.502    515.522    517.550    515.522
 77.270    567.000    584.141    -17.141    515.542    582.173    515.542    517.500    515.542
 77.370    538.210    568.208    -29.998    515.560    566.308    515.560    517.453    515.560
 77.470    535.539    555.845    -20.306    515.577    554.009    515.577    517.409    515.577
 77.570    582.413    546.729     35.684    515.594    544.951    515.594    517.369    515.594
 77.670    522.000    540.304    -18.304    515.609    538.580    515.609    517.331    515.609
 77.770    572.143    535.941     36.202    515.623    534.267    515.623    517.295    515.623
 77.870    554.000    533.057     20.943    515.636    531.430    515.636    517.261    515.636
 77.970    515.000    531.180    -16.180    515.648    529.597    515.648    517.230    515.648
 78.070    543.000    529.955     13.045    515.659    528.414    515.659    517.200    515.659
 78.170    561.000    529.144     31.856    515.669    527.640    515.669    517.171    515.669
 78.270    521.220    528.591     -7.371    515.677    527.123    515.677    517.144    515.677
 78.370    525.000    528.190     -3.190    515.685    526.756    515.685    517.118    515.685
 78.470    526.000    527.905     -1.905    515.691    526.502    515.691    517.094    515.691
 78.570    485.000    527.748    -42.748    515.697    526.374    515.697    517.070    515.697
 78.670    508.000    527.691    -19.691    515.701    526.344    515.701    517.048    515.701
 78.770    500.000    527.742    -27.742    515.704    526.419    515.704    517.027    515.704
 78.870    540.000    527.918     12.082    515.706    526.617    515.706    517.007    515.706
 78.970    526.000    528.246     -2.246    515.707    526.963    515.707    516.989    515.707
 79.070    509.000    528.753    -19.753    515.707    527.487    515.707    516.972    515.707
 79.170    515.000    529.474    -14.474    515.706    528.219    515.706    516.959    515.706
 79.270    533.000    530.438      2.562    515.703    529.191    515.703    516.948    515.703
 79.370    567.000    531.673     35.327    515.700    530.429    515.700    516.941    515.700
 79.470    534.000    533.209      0.791    515.695    531.962    515.695    516.939    515.695
 79.570    562.090    535.081     27.009    515.689    533.824    515.689    516.942    515.689
 79.670    482.000    537.341    -55.341    515.682    536.067    515.682    516.951    515.682
 79.770    538.000    540.079     -2.079    515.674    538.781    515.674    516.966    515.674
 79.870    529.000    543.440    -14.440    515.664    542.110    515.664    516.989    515.664
 79.970    521.000    547.652    -26.652    515.654    546.283    515.654    517.017    515.654
 80.070    582.000    553.046     28.954    515.642    551.632    515.642    517.051    515.642
 80.170    577.000    560.055     16.945    515.629    558.591    515.629    517.089    515.629
 80.270    548.000    569.163    -21.163    515.615    567.649    515.615    517.127    515.615
 80.370    590.000    580.812      9.188    515.599    579.250    515.599    517.162    515.599
 80.470    555.000    595.284    -40.284    515.583    593.683    515.583    517.188    515.583
 80.570    631.000    612.594     18.406    515.565    610.967    515.565    517.201    515.565
 80.670    667.395    632.405     34.990    515.546    630.770    515.546    517.193    515.546
 80.770    660.000    653.983      6.017    515.526    652.363    515.526    517.164    515.526
 80.870    659.000    676.220    -17.220    515.505    674.638    515.505    517.111    515.505
 80.970    679.000    697.751    -18.751    515.482    696.224    515.482    517.039    515.482
 81.070    733.057    717.142     15.914    515.458    715.685    515.458    516.952    515.458
 81.170    740.000    733.090      6.910    515.434    731.710    515.434    516.857    515.434
 81.270    684.000    744.532    -60.532    515.407    743.232    515.407    516.757    515.407
 81.370    796.000    750.736     45.264    515.380    749.513    515.380    516.658    515.380
 81.470    776.642    751.384     25.258    515.351    750.233    515.351    516.563    515.351
 81.570    770.798    746.594     24.204    515.321    745.508    515.321    516.472    515.321
 81.670    784.000    736.871     47.129    515.290    735.840    515.290    516.387    515.290
 81.770    694.000    723.073    -29.073    515.258    722.089    515.258    516.308    515.258
 81.870    742.805    706.379     36.426    515.224    705.434    515.224    516.235    515.224
 81.970    717.000    688.125     28.875    515.190    687.211    515.190    516.167    515.190
 82.070    662.537    669.531     -6.994    515.154    668.641    515.154    516.104    515.154
 82.170    656.959    651.479      5.480    515.116    650.607    515.116    516.045    515.116
 82.270    623.000    634.468    -11.468    515.078    633.610    515.078    515.989    515.078
 82.370    580.558    618.713    -38.154    515.038    617.864    515.038    515.935    515.038
 82.470    601.000    604.312     -3.312    514.997    603.470    514.997    515.883    514.997
 82.570    586.000    591.377     -5.377    514.954    590.539    514.954    515.831    514.954
 82.670    571.000    580.057     -9.057    514.911    579.220    514.911    515.779    514.911
 82.770    569.000    570.512     -1.512    514.866    569.674    514.866    515.728    514.866
 82.870    595.000    562.882     32.118    514.820    562.043    514.820    515.676    514.820
 82.970    600.828    557.270     43.558    514.773    556.429    514.773    515.624    514.773
 83.070    557.453    553.733      3.721    514.724    552.888    514.724    515.572    514.724
 83.170    548.000    552.258     -4.258    514.674    551.410    514.674    515.518    514.674
 83.270    582.000    552.748     29.252    514.623    551.896    514.623    515.464    514.623
 83.370    565.000    554.993     10.007    514.570    554.135    514.570    515.409    514.570
 83.470    545.000    558.660    -13.660    514.517    557.797    514.517    515.353    514.517
 83.570    527.000    563.293    -36.293    514.462    562.425    514.462    515.297    514.462
 83.670    534.000    568.326    -34.326    514.405    567.453    514.405    515.239    514.405
 83.770    606.000    573.106     32.894    514.348    572.229    514.348    515.181    514.348
 83.870    581.000    576.951      4.049    514.289    576.072    514.289    515.122    514.289
 83.970    543.392    579.239    -35.847    514.229    578.359    514.229    515.061    514.229
 84.070    627.000    579.531     47.469    514.167    578.651    514.167    515.000    514.167
 84.170    622.127    577.695     44.431    514.105    576.818    514.105    514.938    514.105
 84.270    610.481    573.940     36.542    514.041    573.066    514.041    514.875    514.041
 84.370    610.169    568.723     41.446    513.975    567.853    513.975    514.810    513.975
 84.470    565.000    562.617      2.383    513.909    561.751    513.909    514.745    513.909
 84.570    560.000    556.188      3.812    513.841    555.325    513.841    514.679    513.841
 84.670    545.000    549.916     -4.916    513.772    549.057    513.772    514.612    513.772
 84.770    545.363    544.168      1.194    513.701    543.311    513.701    514.544    513.701
 84.870    549.372    539.179     10.193    513.629    538.322    513.629    514.475    513.629
 84.970    506.762    535.060    -28.298    513.556    534.203    513.556    514.405    513.556
 85.070    543.000    531.820     11.180    513.482    530.961    513.482    514.334    513.482
 85.170    493.000    529.392    -36.392    513.407    528.531    513.407    514.262    513.407
 85.270    552.000    527.669     24.331    513.330    526.805    513.330    514.189    513.330
 85.370    513.276    526.531    -13.255    513.251    525.663    513.251    514.115    513.251
 85.470    574.000    525.868     48.132    513.172    524.996    513.172    514.040    513.172
 85.570    554.833    525.596     29.237    513.091    524.719    513.091    513.964    513.091
 85.670    498.000    525.667    -27.667    513.009    524.784    513.009    513.887    513.009
 85.770    487.000    526.074    -39.074    512.926    525.185    512.926    513.809    512.926
 85.870    511.000    526.856    -15.856    512.841    525.959    512.841    513.730    512.841
 85.970    548.770    528.093     20.677    512.755    527.188    512.755    513.650    512.755
 86.070    556.000    529.910     26.090    512.668    528.996    512.668    513.570    512.668
 86.170    520.000    532.470    -12.470    512.579    531.545    512.579    513.488    512.579
 86.270    577.000    535.960     41.040    512.489    535.023    512.489    513.406    512.489
 86.370    486.000    540.572    -54.572    512.398    539.622    512.398    513.322    512.398
 86.470    570.000    546.465     23.535    512.306    545.500    512.306    513.238    512.306
 86.570    558.000    553.765      4.235    512.212    552.782    512.212    513.153    512.212
 86.670    572.000    562.482      9.518    512.117    561.480    512.117    513.067    512.117
 86.770    557.000    572.472    -15.472    512.021    571.448    512.021    512.980    512.021
 86.870    595.894    583.418     12.476    511.923    582.372    511.923    512.893    511.923
 86.970    612.840    594.816     18.024    511.825    593.748    511.825    512.804    511.825
 87.070    633.000    605.972     27.028    511.725    604.882    511.725    512.715    511.725
 87.170    569.784    616.039    -46.254    511.623    614.928    511.623    512.625    511.623
 87.270    662.916    624.096     38.820    511.520    622.968    511.520    512.535    511.520
 87.370    651.000    629.291     21.709    511.417    628.148    511.417    512.443    511.417
 87.470    656.000    631.036     24.964    511.311    629.882    511.311    512.351    511.311
 87.570    675.771    629.179     46.592    511.205    628.018    511.205    512.259    511.205
 87.670    635.000    624.052     10.948    511.097    622.887    511.097    512.166    511.097
 87.770    639.000    616.366     22.634    510.988    615.198    510.988    512.072    510.988
 87.870    572.018    607.038    -35.020    510.878    605.867    510.878    511.978    510.878
 87.970    600.000    597.039      2.961    510.766    595.865    510.766    511.883    510.766
 88.070    568.501    587.291    -18.790    510.653    586.113    510.653    511.788    510.653
 88.170    627.588    578.593     48.995    510.539    577.407    510.539    511.693    510.539
 88.270    595.622    571.573     24.049    510.424    570.378    510.424    511.598    510.424
 88.370    571.444    566.665      4.779    510.307    565.460    510.307    511.502    510.307
 88.470    575.000    564.101     10.899    510.189    562.882    510.189    511.406    510.189
 88.570    549.000    563.910    -14.910    510.070    562.676    510.070    511.310    510.070
 88.670    605.000    565.935     39.065    509.950    564.685    509.950    511.214    509.950
 88.770    590.000    569.852     20.148    509.828    568.583    509.828    511.118    509.828
 88.870    592.665    575.186     17.479    509.706    573.897    509.706    511.023    509.706
 88.970    612.191    581.341     30.850    509.581    580.031    509.581    510.928    509.581
 89.070    615.109    587.630     27.479    509.456    586.296    509.456    510.833    509.456
 89.170    632.028    593.311     38.717    509.330    591.952    509.330    510.739    509.330
 89.270    568.000    597.656    -29.656    509.202    596.268    509.202    510.645    509.202
 89.370    615.556    600.042     15.514    509.073    598.622    509.073    510.553    509.073
 89.470    566.000    600.070    -34.070    508.943    598.613    508.943    510.462    508.943
 89.570    586.454    597.657    -11.203    508.811    596.160    508.811    510.372    508.811
 89.670    546.550    593.046    -46.496    508.679    591.501    508.679    510.284    508.679
 89.770    605.000    586.715     18.285    508.545    585.119    508.545    510.198    508.545
 89.870    589.564    579.262     10.302    508.410    577.610    508.410    510.113    508.410
 89.970    527.620    571.287    -43.667    508.274    569.574    508.274    510.032    508.274
 90.070    586.000    563.326     22.674    508.136    561.547    508.136    509.953    508.136
 90.170    528.971    555.810    -26.839    507.997    553.961    507.997    509.878    507.997
 90.270    544.392    549.052     -4.660    507.858    547.127    507.858    509.808    507.858
 90.370    489.000    543.238    -54.238    507.717    541.233    507.717    509.742    507.717
 90.470    578.618    538.448     40.169    507.574    536.356    507.574    509.682    507.574
 90.570    561.000    534.669     26.331    507.431    532.482    507.431    509.629    507.431
 90.670    484.000    531.824    -47.824    507.287    529.532    507.287    509.586    507.287
 90.770    528.000    529.797     -1.797    507.141    527.389    507.141    509.554    507.141
 90.870    533.000    528.429      4.571    506.994    525.889    506.994    509.536    506.994
 90.970    526.000    527.672     -1.672    506.846    524.982    506.846    509.537    506.846
 91.070    555.000    527.429     27.571    506.697    524.563    506.697    509.563    506.697
 91.170    560.739    527.633     33.106    506.547    524.557    506.547    509.621    506.547
 91.270    494.611    528.270    -33.659    506.395    524.942    506.395    509.721    506.395
 91.370    509.323    529.375    -20.052    506.243    525.741    506.243    509.874    506.243
 91.470    554.054    531.030     23.024    506.089    527.019    506.089    510.097    506.089
 91.570    529.000    533.364     -4.364    505.934    528.887    505.934    510.407    505.934
 91.670    577.627    536.550     41.077    505.779    531.496    505.779    510.825    505.779
 91.770    502.999    540.801    -37.802    505.622    535.037    505.622    511.376    505.622
 91.870    505.591    546.365    -40.774    505.463    539.730    505.463    512.086    505.463
 91.970    577.041    553.492     23.549    505.304    545.800    505.304    512.979    505.304
 92.070    586.411    562.426     23.985    505.144    553.467    505.144    514.082    505.144
 92.170    565.000    573.376     -8.376    504.983    562.915    504.983    515.417    504.983
 92.270    586.000    586.478     -0.478    504.820    574.266    504.820    516.999    504.820
 92.370    614.000    601.773     12.227    504.657    587.553    504.657    518.836    504.657
 92.470    648.000    619.172     28.828    504.492    602.694    504.492    520.923    504.492
 92.570    629.000    638.439     -9.439    504.327    619.471    504.327    523.241    504.327
 92.670    634.689    659.176    -24.487    504.160    637.523    504.160    525.751    504.160
 92.770    647.371    680.817    -33.446    503.992    656.343    503.992    528.399    503.992
 92.870    698.450    702.652     -4.203    503.824    675.302    503.824    531.101    503.824
 92.970    747.023    723.872     23.151    503.654    693.696    503.654    533.752    503.654
 93.070    765.000    743.683     21.317    503.483    710.866    503.483    536.219    503.483
 93.170    742.135    761.429    -19.294    503.312    726.314    503.312    538.345    503.312
 93.270    797.628    776.698     20.931    503.139    739.791    503.139    539.964    503.139
 93.370    794.000    789.375      4.625    502.965    751.336    502.965    540.925    502.965
 93.470    829.000    799.600     29.400    502.790    761.193    502.790    541.118    502.790
 93.570    834.767    807.680     27.086    502.615    769.709    502.615    540.510    502.615
 93.670    811.000    814.037     -3.037    502.438    777.256    502.438    539.146    502.438
 93.770    828.000    819.181      8.819    502.261    784.228    502.261    537.143    502.261
 93.870    789.000    823.724    -34.724    502.082    791.082    502.082    534.656    502.082
 93.970    784.409    828.362    -43.953    501.903    798.345    501.903    531.852    501.903
 94.070    858.000    833.773     24.227    501.722    806.545    501.722    528.885    501.722
 94.170    868.000    840.461     27.539    501.541    816.054    501.541    525.884    501.541
 94.270    865.589    848.577     17.012    501.359    826.922    501.359    522.953    501.359
 94.370    886.000    857.818     28.182    501.175    838.766    501.175    520.168    501.175
 94.470    825.203    867.394    -42.191    500.991    850.745    500.991    517.584    500.991
 94.570    843.803    876.094    -32.291    500.806    861.612    500.806    515.236    500.806
 94.670    918.000    882.420     35.580    500.621    869.854    500.621    513.140    500.621
 94.770    887.686    884.804      2.882    500.434    873.898    500.434    511.300    500.434
 94.870    837.379    881.908    -44.529    500.246    872.416    500.246    509.707    500.246
 94.970    869.329    872.935     -3.606    500.058    864.626    500.058    508.344    500.058
 95.070    900.000    857.851     42.149    499.869    850.516    499.869    507.190    499.869
 95.170    849.419    837.398     12.021    499.679    830.853    499.679    506.218    499.679
 95.270    864.000    812.939     51.061    499.488    807.023    499.488    505.403    499.488
 95.370    739.827    786.200    -46.373    499.296    780.781    499.296    504.719    499.296
 95.470    709.000    759.044    -50.044    499.104    754.012    499.104    504.143    499.104
 95.570    721.000    733.366    -12.366    498.911    728.630    498.911    503.654    498.911
 95.670    699.000    710.918    -11.918    498.717    706.405    498.717    503.234    498.717
 95.770    658.134    693.291    -35.156    498.522    688.945    498.522    502.870    498.522
 95.870    647.000    681.894    -34.894    498.326    677.668    498.326    502.549    498.326
 95.970    636.996    677.943    -40.947    498.130    673.801    498.130    502.263    498.130
 96.070    639.778    682.462    -42.684    497.933    678.374    497.933    502.004    497.933
 96.170    659.734    696.281    -36.547    497.735    692.222    497.735    501.768    497.735
 96.270    695.000    720.021    -25.021    497.537    715.971    497.537    501.550    497.537
 96.370    701.036    754.051    -53.015    497.338    749.992    497.338    501.348    497.338
 96.470    776.669    798.398    -21.729    497.138    794.315    497.138    501.160    497.138
 96.570    829.804    852.656    -22.852    496.938    848.536    496.938    500.985    496.938
 96.670    870.656    915.884    -45.229    496.737    911.714    496.737    500.822    496.737
 96.770    996.000    986.509      9.491    496.535    982.278    496.535    500.670    496.535
 96.870   1079.520   1062.267     17.252    496.333   1057.966    496.333    500.530    496.333
 96.970   1077.145   1140.193    -63.048    496.130   1135.812    496.130    500.401    496.130
 97.070   1223.421   1216.665      6.756    495.926   1212.195    495.926    500.285    495.926
 97.170   1328.000   1287.531     40.469    495.722   1282.965    495.722    500.180    495.722
 97.270   1287.000   1348.364    -61.364    495.517   1343.693    495.517    500.088    495.517
 97.370   1401.000   1394.878      6.122    495.312   1390.095    495.312    500.009    495.312
 97.470   1420.000   1423.529     -3.529    495.106   1418.624    495.106    499.943    495.106
 97.570   1449.993   1432.151     17.842    494.899   1427.109    494.899    499.894    494.899
 97.670   1374.000   1420.389    -46.389    494.692   1415.193    494.692    499.863    494.692
 97.770   1365.000   1389.717    -24.717    494.485   1384.345    494.485    499.852    494.485
 97.870   1345.000   1343.060      1.940    494.277   1337.487    494.277    499.864    494.277
 97.970   1329.000   1284.220     44.780    494.069   1278.415    494.069    499.903    494.069
 98.070   1211.000   1217.357     -6.357    493.860   1211.283    493.860    499.974    493.860
 98.170   1111.904   1146.602    -34.698    493.650   1140.216    493.650    500.083    493.650
 98.270   1108.000   1075.811     32.189    493.440   1069.061    493.440    500.241    493.440
 98.370   1039.315   1008.415     30.900    493.230   1001.236    493.230    500.458    493.230
 98.470    941.000    947.330     -6.330    493.019    939.643    493.019    500.751    493.019
 98.570    908.000    894.942     13.058    492.808    886.649    492.808    501.141    492.808
 98.670    843.000    853.125    -10.125    492.597    844.101    492.597    501.652    492.597
 98.770    778.676    823.298    -44.622    492.385    813.386    492.385    502.319    492.385
 98.870    792.000    806.493    -14.493    492.173    795.497    492.173    503.181    492.173
 98.970    848.666    803.432     45.234    491.960    791.108    491.960    504.286    491.960
 99.070    804.000    814.631    -10.631    491.748    800.680    491.748    505.692    491.748
 99.170    785.677    840.382    -54.705    491.534    824.439    491.534    507.462    491.534
 99.270    841.990    880.766    -38.776    491.321    862.396    491.321    509.669    491.321
 99.370    938.000    935.620      2.380    491.107    914.310    491.107    512.388    491.107
 99.470   1038.000   1004.459     33.541    490.893    979.621    490.893    515.699    490.893
 99.570   1117.422   1086.385     31.036    490.679   1057.355    490.679    519.676    490.679
 99.670   1189.000   1179.986      9.014    490.464   1146.032    490.464    524.388    490.464
 99.770   1282.000   1283.244     -1.244    490.250   1243.581    490.250    529.888    490.250
 99.870   1386.672   1393.474     -6.802    490.035   1347.286    490.035    536.209    490.035
 99.970   1554.000   1507.314     46.686    489.820   1453.779    489.820    543.354    489.820
100.070   1599.357   1620.791    -21.434    489.605   1559.120    489.605    551.293    489.605
100.170   1678.000   1729.523    -51.523    489.389   1658.996    489.389    559.954    489.389
100.270   1812.094   1829.039    -16.945    489.174   1749.060    489.174    569.216    489.174
100.370   1943.000   1915.187     27.813    488.958   1825.330    488.958    578.905    488.958
100.470   2008.778   1984.469     24.308    488.742   1884.541    488.742    588.786    488.742
100.570   2096.582   2034.211     62.371    488.526   1924.315    488.526    598.563    488.526
100.670   2130.000   2062.554     67.446    488.311   1943.152    488.311    607.876    488.311
100.770   2129.000   2068.419     60.581    488.095   1940.389    488.095    616.306    488.095
100.870   2109.034   2051.591     57.443    487.879   1916.268    487.879    623.397    487.879
100.970   2059.000   2012.965     46.035    487.663   1872.135    487.663    628.699    487.663
101.070   1958.000   1954.775      3.225    487.447   1810.610    487.447    631.822    487.447
101.170   1912.174   1880.596     31.578    487.231   1735.526    487.231    632.508    487.231
101.270   1850.000   1795.029     54.971    487.015   1651.559    487.015    630.687    487.015
101.370   1694.000   1703.157     -9.157    486.800   1563.662    486.800    626.485    486.800
101.470   1596.307   1609.969    -13.662    486.584   1476.524    486.584    620.206    486.584
101.570   1534.000   1519.885     14.115    486.368   1394.152    486.368    612.264    486.368
101.670   1471.000   1436.454     34.546    486.153   1319.636    486.153    603.116    486.153
101.770   1407.445   1362.188     45.257    485.938   1255.043    485.938    593.213    485.938
101.870   1233.000   1298.513    -65.513    485.722   1201.395    485.722    582.957    485.722
101.970   1270.940   1245.802     25.137    485.507   1158.723    485.507    572.690    485.507
102.070   1201.547   1203.466     -1.919    485.293   1126.160    485.293    562.691    485.293
102.170   1132.218   1170.090    -37.872    485.078   1102.076    485.078    553.176    485.078
102.270   1147.000   1143.621      3.379    484.864   1084.261    484.864    544.303    484.864
102.370   1056.000   1121.593    -65.593    484.650   1070.141    484.650    536.178    484.650
102.470   1076.000   1101.401    -25.401    484.436   1057.053    484.436    528.860    484.436
102.570   1056.000   1080.620    -24.620    484.223   1042.549    484.223    522.371    484.223
102.670   1050.000   1057.311     -7.311    484.010   1024.704    484.010    516.695    484.010
102.770   1006.016   1030.253    -24.237    483.797   1002.335    483.797    511.795    483.797
102.870    994.000    999.020     -5.020    483.584    975.073    483.584    507.611    483.584
102.970    956.000    963.893     -7.893    483.372    943.271    483.372    504.073    483.372
103.070    917.000    925.668     -8.668    483.161    907.802    483.161    501.104    483.161
103.170    897.000    885.439     11.561    482.950    869.836    482.950    498.626    482.950
103.270    889.000    844.408     44.592    482.739    830.652    482.739    496.564    482.739
103.370    808.000    803.754      4.246    482.529    791.498    482.529    494.848    482.529
103.470    749.825    764.541    -14.716    482.319    753.502    482.319    493.415    482.319
103.570    744.000    727.659     16.341    482.110    717.609    482.110    492.211    482.110
103.670    674.000    693.793    -19.793    481.901    684.548    481.901    491.190    481.901
103.770    652.026    663.398    -11.372    481.693    654.813    481.693    490.315    481.693
103.870    617.000    636.724    -19.724    481.485    628.686    481.485    489.554    481.485
103.970    651.000    613.807     37.193    481.279    606.227    481.279    488.884    481.279
104.070    629.000    594.519     34.481    481.072    587.327    481.072    488.285    481.072
104.170    544.939    578.605    -33.666    480.867    571.745    480.867    487.743    480.867
104.270    600.000    565.729     34.271    480.662    559.156    480.662    487.246    480.662
104.370    606.000    555.509     50.491    480.457    549.188    480.457    486.787    480.457
104.470    524.000    547.556    -23.556    480.254    541.458    480.254    486.358    480.254
104.570    568.455    541.499     26.957    480.051    535.598    480.051    485.955    480.051
104.670    559.657    537.004     22.653    479.849    531.281    479.849    485.575    479.849
104.770    534.188    533.789      0.399    479.648    528.224    479.648    485.213    479.648
104.870    557.918    531.625     26.293    479.447    526.202    479.447    484.870    479.447
104.970    543.000    530.341     12.659    479.248    525.046    479.248    484.541    479.248
105.070    533.000    529.822      3.178    479.049    524.640    479.049    484.227    479.049
105.170    554.192    530.000     24.191    478.851    524.921    478.851    483.925    478.851
105.270    631.000    530.858    100.142    478.655    525.870    478.655    483.636    478.655
105.370    489.554    532.415    -42.861    478.459    527.508    478.459    483.358    478.459
105.470    586.000    534.728     51.272    478.264    529.891    478.264    483.090    478.264
105.570    527.000    537.877    -10.877    478.070    533.102    478.070    482.832    478.070
105.670    581.138    541.961     39.177    477.877    537.239    477.877    482.584    477.877
105.770    530.000    547.085    -17.085    477.685    542.408    477.685    482.344    477.685
105.870    571.551    553.339     18.212    477.494    548.700    477.494    482.113    477.494
105.970    578.000    560.792     17.208    477.304    556.182    477.304    481.891    477.304
106.070    561.000    569.471     -8.471    477.116    564.884    477.116    481.676    477.116
106.170    607.000    579.351     27.649    476.928    574.780    476.928    481.469    476.928
106.270    580.805    590.345     -9.540    476.742    585.785    476.742    481.269    476.742
106.370    583.000    602.299    -19.299    476.557    597.742    476.557    481.076    476.557
106.470    553.000    614.986    -61.986    476.373    610.428    476.373    480.891    476.373
106.570    607.000    628.114    -21.114    476.190    623.548    476.190    480.712    476.190
106.670    605.435    641.327    -35.892    476.009    636.749    476.009    480.541    476.009
106.770    605.000    654.222    -49.222    475.829    649.627    475.829    480.376    475.829
106.870    672.994    666.365      6.629    475.650    661.749    475.650    480.218    475.650
106.970    637.000    677.321    -40.321    475.473    672.679    475.473    480.067    475.473
107.070    660.000    686.689    -26.689    475.297    682.015    475.297    479.923    475.297
107.170    679.000    694.152    -15.152    475.123    689.444    475.123    479.785    475.123
107.270    690.000    699.532     -9.532    474.950    694.784    474.950    479.655    474.950
107.370    680.370    702.827    -22.457    474.778    698.034    474.778    479.531    474.778
107.470    671.803    704.216    -32.413    474.608    699.374    474.608    479.414    474.608
107.570    691.000    704.037    -13.037    474.440    699.140    474.440    479.305    474.440
107.670    669.000    702.726    -33.726    474.273    697.769    474.273    479.203    474.273
107.770    714.010    700.754     13.255    474.107    695.731    474.107    479.108    474.107
107.870    697.000    698.568     -1.568    473.944    693.473    473.944    479.021    473.944
107.970    726.606    696.542     30.064    473.782    691.367    473.782    478.942    473.782
108.070    661.000    694.947    -33.947    473.621    689.688    473.621    478.871    473.621
108.170    689.000    693.936     -4.936    473.463    688.585    473.463    478.808    473.463
108.270    692.252    693.532     -1.279    473.306    688.081    473.306    478.754    473.306
108.370    703.767    693.628     10.139    473.151    688.071    473.151    478.709    473.151
108.470    680.000    693.999    -13.999    472.997    688.328    472.997    478.674    472.997
108.570    693.000    694.321     -1.321    472.846    688.528    472.846    478.648    472.846
108.670    713.000    694.200     18.800    472.696    688.276    472.696    478.632    472.696
108.770    670.000    693.220    -23.220    472.548    687.156    472.548    478.627    472.548
108.870    677.000    690.998    -13.998    472.402    684.785    472.402    478.633    472.402
108.970    666.000    687.240    -21.240    472.258    680.868    472.258    478.650    472.258
109.070    659.825    681.788    -21.963    472.117    675.246    472.117    478.680    472.117
109.170    711.604    674.639     36.965    471.977    667.915    471.977    478.723    471.977
109.270    673.000    665.932      7.068    471.839    659.015    471.839    478.779    471.839
109.370    640.411    655.902    -15.491    471.703    648.777    471.703    478.850    471.703
109.470    631.000    644.901    -13.901    471.570    637.556    471.570    478.936    471.570
109.570    640.169    633.304      6.865    471.438    625.724    471.438    479.038    471.438
109.670    656.000    621.447     34.553    471.309    613.621    471.309    479.154    471.309
109.770    649.000    609.673     39.327    471.182    601.580    471.182    479.292    471.182
109.870    625.000    598.282     26.718    471.057    589.903    471.057    479.452    471.057
109.970    620.000    587.530     32.470    470.934    578.844    470.934    479.634    470.934
110.070    627.000    577.621     49.379    470.814    568.607    470.814    479.840    470.814
110.170    589.000    568.708     20.292    470.696    559.340    470.696    480.074    470.696
110.270    562.686    560.888      1.797    470.581    551.139    470.581    480.338    470.581
110.370    559.000    554.210      4.790    470.468    544.047    470.468    480.636    470.468
110.470    556.000    548.677      7.323    470.357    538.065    470.357    480.973    470.357
110.570    550.000    544.257      5.743    470.249    533.153    470.249    481.355    470.249
110.670    542.000    540.890      1.110    470.143    529.244    470.143    481.790    470.143
110.770    547.000    538.498      8.502    470.040    526.251    470.040    482.286    470.040
110.870    575.000    536.985     38.015    469.939    524.076    469.939    482.847    469.939
110.970    564.456    536.278     28.179    469.842    522.612    469.842    483.504    469.842
111.070    524.000    536.283    -12.283    469.746    521.757    469.746    484.268    469.746
111.170    554.000    536.923     17.077    469.654    521.413    469.654    485.159    469.654
111.270    545.000    538.134      6.866    469.564    521.489    469.564    486.203    469.564
111.370    565.000    539.868     25.132    469.477    521.906    469.477    487.432    469.477
111.470    543.000    542.091      0.909    469.392    522.593    469.392    488.883    469.392
111.570    565.000    544.791     20.209    469.311    523.494    469.311    490.600    469.311
111.670    534.000    547.969    -13.969    469.232    524.560    469.232    492.633    469.232
111.770    520.000    551.649    -31.649    469.157    525.757    469.157    495.040    469.157
111.870    528.075    555.871    -27.796    469.084    527.059    469.084    497.887    469.084
111.970    601.755    560.692     41.063    469.014    528.452    469.014    501.244    469.014
112.070    533.000    566.185    -33.185    468.948    529.933    468.948    505.190    468.948
112.170    562.000    572.442    -10.442    468.884    531.509    468.884    509.806    468.884
112.270    544.000    579.561    -35.561    468.823    533.196    468.823    515.178    468.823
112.370    590.000    587.653      2.347    468.766    535.018    468.766    521.391    468.766
112.470    638.000    596.832     41.168    468.711    537.007    468.711    528.527    468.711
112.570    563.830    607.217    -43.387    468.660    539.204    468.660    536.663    468.660
112.670    620.305    618.926      1.379    468.613    541.663    468.613    545.865    468.613
112.770    639.000    632.074      6.926    468.568    544.448    468.568    556.184    468.568
112.870    631.000    646.779    -15.779    468.527    547.644    468.527    567.650    468.527
112.970    638.000    663.156    -25.156    468.489    551.361    468.489    580.272    468.489
113.070    664.298    681.325    -17.027    468.454    555.739    468.454    594.028    468.454
113.170    689.000    701.419    -12.419    468.423    560.968    468.423    608.861    468.423
113.270    748.000    723.589     24.411    468.396    567.292    468.396    624.679    468.396
113.370    706.000    748.023    -42.023    468.371    575.032    468.371    641.347    468.371
113.470    730.669    774.955    -44.286    468.351    584.604    468.351    658.684    468.351
113.570    752.000    804.691    -52.691    468.334    596.541    468.334    676.463    468.334
113.670    816.000    837.630    -21.630    468.321    611.521    468.321    694.404    468.321
113.770    826.000    874.287    -48.287    468.311    630.392    468.311    712.176    468.311
113.870    914.000    915.322     -1.322    468.305    654.196    468.305    729.393    468.305
113.970    993.955    961.567     32.389    468.303    684.200    468.303    745.623    468.303
114.070   1071.374   1014.054     57.321    468.304    721.906    468.304    760.393    468.304
114.170   1113.620   1074.049     39.571    468.310    769.073    468.310    773.213    468.310
114.270   1193.493   1143.075     50.418    468.319    827.705    468.319    783.598    468.319
114.370   1241.907   1222.938     18.969    468.333    900.042    468.333    791.116    468.333
114.470   1376.544   1315.730     60.814    468.350    988.514    468.350    795.427    468.350
114.570   1386.000   1423.810    -37.810    468.371   1095.687    468.371    796.324    468.371
114.670   1523.000   1549.738    -26.738    468.396   1224.163    468.396    793.765    468.396
114.770   1746.000   1696.172     49.828    468.426   1376.476    468.426    787.875    468.426
114.870   1892.876   1865.699     27.177    468.459   1554.936    468.459    778.930    468.459
114.970   2147.000   2060.641     86.359    468.497   1761.472    468.497    767.322    468.497
115.070   2288.000   2282.822      5.178    468.539   1997.448    468.539    753.515    468.539
115.170   2558.000   2533.340     24.660    468.585   2263.470    468.585    738.000    468.585
115.270   2912.175   2812.347     99.828    468.635   2559.206    468.635    721.263    468.635
115.370   3088.000   3118.857    -30.857    468.690   2883.217    468.690    703.760    468.690
115.470   3343.951   3450.598   -106.647    468.749   3232.823    468.749    685.899    468.749
115.570   3775.604   3803.911    -28.306    468.813   3604.007    468.813    668.041    468.813
115.670   4097.000   4173.705    -76.705    468.881   3991.377    468.881    650.490    468.881
115.770   4456.000   4553.483    -97.483    468.953   4388.183    468.953    633.501    468.953
115.870   4763.000   4935.418   -172.418    469.030   4786.395    469.030    617.278    469.030
115.970   5291.000   5310.509    -19.509    469.112   5176.860    469.112    601.978    469.112
116.070   5606.853   5668.805    -61.953    469.198   5549.513    469.198    587.715    469.198
116.170   5907.000   5999.713    -92.713    469.290   5893.688    469.290    574.564    469.290
116.270   6165.584   6292.407   -126.823    469.385   6198.523    469.385    562.561    469.385
116.370   6593.238   6536.365     56.873    469.486   6453.488    469.486    551.716    469.486
116.470   6806.000   6722.054     83.946    469.592   6649.067    469.592    542.008    469.592
116.570   6830.000   6841.712    -11.712    469.702   6777.540    469.702    533.395    469.702
116.670   6864.000   6890.013    -26.013    469.817   6833.635    469.817    525.818    469.817
116.770   6733.844   6864.708   -130.863    469.937   6815.170    469.937    519.207    469.937
116.870   6693.000   6766.862    -73.862    470.063   6723.286    470.063    513.481    470.063
116.970   6588.000   6600.711    -12.711    470.193   6562.296    470.193    508.555    470.193
117.070   6378.700   6373.163      5.538    470.329   6339.191    470.329    504.345    470.329
117.170   5990.000   6093.088   -103.088    470.469   6062.922    470.469    500.767    470.469
117.270   5700.696   5770.562    -69.866    470.615   5743.640    470.615    497.740    470.615
117.370   5445.617   5416.164     29.453    470.766   5392.002    470.766    495.189    470.766
117.470   4993.000   5040.416    -47.416    470.923   5018.595    470.923    493.047    470.923
117.570   4750.977   4653.341     97.636    471.084   4633.504    471.084    491.253    471.084
117.670   4232.000   4264.132    -32.132    471.251   4245.979    471.251    489.751    471.251
117.770   3876.877   3880.921     -4.044    471.424   3864.198    471.424    488.496    471.424
117.870   3628.000   3510.614    117.386    471.602   3495.112    471.602    487.446    471.602
117.970   3243.224   3158.809     84.414    471.786   3144.353    471.786    486.567    471.786
118.070   2928.000   2829.771     98.229    471.975   2816.217    471.975    485.831    471.975
118.170   2691.000   2526.475    164.525    472.170   2513.705    472.170    485.214    472.170
118.270   2306.000   2250.693     55.307    472.371   2238.610    472.371    484.696    472.371
118.370   2070.202   2003.126     67.076    472.577   1991.653    472.577    484.263    472.577
118.470   1650.000   1783.559   -133.559    472.789   1772.629    472.789    483.900    472.789
118.570   1530.663   1591.021    -60.359    473.007   1580.582    473.007    483.597    473.007
118.670   1355.426   1423.966    -68.540    473.231   1413.973    473.231    483.347    473.231
118.770   1277.000   1280.433     -3.433    473.461   1270.849    473.461    483.143    473.461
118.870   1125.000   1158.204    -33.204    473.697   1148.997    473.697    482.980    473.697
118.970    997.000   1054.942    -57.942    473.938   1046.085    473.938    482.853    473.938
119.070    968.601    968.307      0.294    474.186    959.776    474.186    482.759    474.186
119.170    918.000    896.045     21.955    474.441    887.819    474.441    482.696    474.441
119.270    806.000    836.055    -30.055    474.701    828.115    474.701    482.662    474.701
119.370    750.313    786.432    -36.119    474.967    778.758    474.967    482.655    474.967
119.470    716.000    745.488    -29.488    475.240    738.063    475.240    482.673    475.240
119.570    719.502    711.755      7.747    475.520    704.563    475.520    482.716    475.520
119.670    690.040    683.984      6.056    475.805    677.008    475.805    482.783    475.805
119.770    635.225    661.127    -25.902    476.097    654.350    476.097    482.874    476.097
119.870    644.000    642.314      1.686    476.396    635.722    476.396    482.988    476.396
119.970    609.000    626.836    -17.836    476.701    620.412    476.701    483.125    476.701
120.070    606.000    614.119     -8.119    477.013    607.846    477.013    483.286    477.013
120.170    608.000    603.702      4.298    477.332    597.563    477.332    483.470    477.332
120.270    589.000    595.217     -6.217    477.657    589.197    477.657    483.677    477.657
120.370    595.555    588.377      7.178    477.989    582.457    477.989    483.909    477.989
120.470    556.000    582.952    -26.952    478.328    577.115    478.328    484.166    478.328
120.570    569.000    578.763     -9.763    478.674    572.992    478.674    484.447    478.674
120.670    605.000    575.672     29.328    479.026    569.947    479.026    484.755    479.026
120.770    567.000    573.569     -6.569    479.386    567.870    479.386    485.088    479.386
120.870    566.000    572.367     -6.367    479.753    566.676    479.753    485.449    479.753
120.970    606.799    571.997     34.802    480.127    566.293    480.127    485.837    480.127
121.070    617.000    572.401     44.599    480.508    566.663    480.508    486.253    480.508
121.170    565.664    573.527     -7.863    480.896    567.734    480.896    486.696    480.896
121.270    608.000    575.326     32.674    481.292    569.459    481.292    487.168    481.292
121.370    600.000    577.751     22.249    481.695    571.789    481.695    487.668    481.695
121.470    608.605    580.751     27.854    482.105    574.673    482.105    488.196    482.105
121.570    600.837    584.267     16.570    482.523    578.054    482.523    488.750    482.523
121.670    557.000    588.235    -31.235    482.948    581.870    482.948    489.330    482.948
121.770    566.486    592.583    -26.097    483.381    586.050    483.381    489.934    483.381
121.870    589.000    597.230     -8.230    483.822    590.513    483.822    490.561    483.822
121.970    622.655    602.085     20.569    484.270    595.172    484.270    491.208    484.270
122.070    586.000    607.049    -21.049    484.726    599.930    484.726    491.872    484.726
122.170    577.027    612.015    -34.988    485.190    604.683    485.190    492.551    485.190
122.270    598.000    616.871    -18.871    485.661    609.323    485.661    493.241    485.661
122.370    600.000    621.500    -21.500    486.141    613.738    486.141    493.938    486.141
122.470    669.648    625.784     43.864    486.628    617.814    486.628    494.636    486.628
122.570    672.000    629.613     42.387    487.124    621.445    487.124    495.331    487.124
122.670    694.000    632.881     61.119    487.628    624.532    487.628    496.018    487.628
122.770    616.000    635.502    -19.502    488.139    626.994    488.139    496.691    488.139
122.870    654.000    637.408     16.592    488.659    628.769    488.659    497.343    488.659
122.970    589.000    638.559    -49.559    489.188    629.821    489.188    497.971    489.188
123.070    630.000    638.939     -8.939    489.724    630.141    489.724    498.568    489.724
123.170    666.000    638.562     27.438    490.269    629.746    490.269    499.131    490.269
123.270    637.488    637.467      0.021    490.823    628.677    490.823    499.659    490.823
123.370    640.000    635.712      4.288    491.385    626.993    491.385    500.148    491.385
123.470    652.000    633.371     18.629    491.956    624.767    491.956    500.601    491.956
123.570    626.000    630.525     -4.525    492.535    622.080    492.535    501.020    492.535
123.670    630.000    627.264      2.736    493.123    619.016    493.123    501.408    493.123
123.770    620.000    623.676     -3.676    493.719    615.661    493.719    501.770    493.719
123.870    603.888    619.849    -15.961    494.325    612.095    494.325    502.111    494.325
123.970    619.229    615.862      3.367    494.939    608.394    494.939    502.437    494.939
124.070    642.369    611.791     30.578    495.563    604.627    495.563    502.753    495.563
124.170    622.000    607.698     14.302    496.195    600.851    496.195    503.065    496.195
124.270    575.672    603.636    -27.964    496.837    597.116    496.837    503.378    496.837
124.370    606.000    599.649      6.351    497.487    593.457    497.487    503.696    497.487
124.470    616.000    595.764     20.236    498.147    589.901    498.147    504.025    498.147
124.570    593.000    592.000      1.000    498.816    586.462    498.816    504.366    498.816
124.670    547.000    588.373    -41.373    499.495    583.154    499.495    504.725    499.495
124.770    584.000    584.886     -0.886    500.182    579.974    500.182    505.102    500.182
124.870    612.000    581.534     30.466    500.880    576.919    500.880    505.501    500.880
124.970    606.893    578.313     28.580    501.587    573.981    501.587    505.923    501.587
