neutron_powder_diffraction_0195
R_wp: 3.944
Temperature (K): 1074.000
Counts: 84442.00
Wavelength (Ã…): 2.52098
COMMENTS
Test file for demonstrating the .xyy file format in Reel1.0
END OF HEADER
   tth       Y_obs     Y_calc      Y_res    Background    Phase_1_Nuc    Phase_1_Mag    Phase_2_Nuc    Phase_2_Mag
  9.970    618.683    576.786     41.897    576.048    576.717    576.048    576.117    576.048
 10.070    603.467    576.925     26.542    576.111    576.855    576.111    576.180    576.111
 10.170    565.234    577.054    -11.820    576.167    576.984    576.167    576.237    576.167
 10.270    620.637    577.184     43.453    576.218    577.114    576.218    576.288    576.218
 10.370    554.918    577.322    -22.404    576.263    577.251    576.263    576.333    576.263
 10.470    585.000    577.469      7.531    576.302    577.398    576.302    576.373    576.302
 10.570    596.134    577.631     18.503    576.336    577.559    576.336    576.407    576.336
 10.670    572.000    577.811     -5.811    576.364    577.739    576.364    576.435    576.364
 10.770    589.000    578.018     10.982    576.387    577.946    576.387    576.458    576.387
 10.870    594.000    578.260     15.740    576.404    578.187    576.404    576.476    576.404
 10.970    597.000    578.550     18.450    576.416    578.477    576.416    576.488    576.416
 11.070    628.000    578.908     49.092    576.422    578.834    576.422    576.495    576.422
 11.170    585.000    579.359      5.641    576.423    579.285    576.423    576.496    576.423
 11.270    591.326    579.946     11.381    576.419    579.871    576.419    576.492    576.419
 11.370    631.000    580.742     50.258    576.410    580.666    576.410    576.483    576.410
 11.470    563.741    581.908    -18.166    576.395    581.831    576.395    576.469    576.395
 11.570    637.000    583.886     53.114    576.376    583.807    576.376    576.450    576.376
 11.670    617.000    587.870     29.130    576.351    587.789    576.351    576.425    576.351
 11.770    579.000    596.493    -17.493    576.321    596.407    576.321    576.396    576.321
 11.870    632.000    613.784     18.216    576.287    613.688    576.287    576.362    576.287
 11.970    648.000    642.625      5.375    576.247    642.512    576.247    576.323    576.247
 12.070    672.000    679.129     -7.129    576.203    678.995    576.203    576.279    576.203
 12.170    700.000    707.586     -7.586    576.154    707.435    576.154    576.230    576.154
 12.270    697.000    708.458    -11.458    576.100    708.307    576.100    576.177    576.100
 12.370    652.000    680.924    -28.924    576.042    680.788    576.042    576.118    576.042
 12.470    623.000    644.175    -21.175    575.978    644.059    575.978    576.056    575.978
 12.570    581.000    614.607    -33.607    575.911    614.507    575.911    575.988    575.911
 12.670    557.460    596.644    -39.184    575.838    596.554    575.838    575.916    575.838
 12.770    569.000    587.582    -18.582    575.761    587.497    575.761    575.840    575.761
 12.870    576.000    583.343     -7.343    575.680    583.260    575.680    575.759    575.680
 12.970    603.471    581.203     22.268    575.595    581.120    575.595    575.674    575.595
 13.070    582.000    579.914      2.086    575.505    579.827    575.505    575.589    575.505
 13.170    544.092    579.005    -34.913    575.410    578.916    575.410    575.497    575.410
 13.270    578.402    578.310      0.092    575.312    578.221    575.312    575.399    575.312
 13.370    569.000    577.753     -8.753    575.209    577.664    575.209    575.297    575.209
 13.470    599.000    577.294     21.706    575.102    577.205    575.102    575.190    575.102
 13.570    540.429    576.904    -36.475    574.991    576.815    574.991    575.080    574.991
 13.670    620.160    576.565     43.596    574.876    576.475    574.876    574.965    574.876
 13.770    566.380    576.262     -9.882    574.757    576.172    574.757    574.846    574.757
 13.870    554.000    575.988    -21.988    574.634    575.898    574.634    574.724    574.634
 13.970    560.749    575.735    -14.986    574.507    575.644    574.507    574.597    574.507
 14.070    584.629    575.498      9.131    574.376    575.406    574.376    574.467    574.376
 14.170    566.000    575.273     -9.273    574.241    575.181    574.241    574.332    574.241
 14.270    613.311    575.057     38.254    574.103    574.965    574.103    574.194    574.103
 14.370    543.854    574.848    -30.994    573.960    574.755    573.960    574.053    573.960
 14.470    611.506    574.644     36.861    573.815    574.551    573.815    573.907    573.815
 14.570    608.905    574.445     34.460    573.665    574.351    573.665    573.758    573.665
 14.670    542.000    574.250    -32.250    573.512    574.157    573.512    573.605    573.512
 14.770    555.795    574.057    -18.261    573.355    573.962    573.355    573.449    573.355
 14.870    559.000    573.862    -14.862    573.195    573.767    573.195    573.289    573.195
 14.970    598.315    573.668     24.647    573.031    573.573    573.031    573.126    573.031
 15.070    567.000    573.474     -6.474    572.864    573.378    572.864    572.960    572.864
 15.170    577.000    573.279      3.721    572.693    573.183    572.693    572.790    572.693
 15.270    593.000    573.084     19.916    572.519    572.987    572.519    572.616    572.519
 15.370    556.000    572.888    -16.888    572.342    572.790    572.342    572.439    572.342
 15.470    526.199    572.690    -46.491    572.162    572.592    572.162    572.260    572.162
 15.570    556.000    572.491    -16.491    571.978    572.393    571.978    572.076    571.978
 15.670    552.000    572.290    -20.290    571.791    572.191    571.791    571.890    571.791
 15.770    560.000    572.089    -12.089    571.601    571.989    571.601    571.701    571.601
 15.870    616.209    571.886     44.323    571.408    571.786    571.408    571.508    571.408
 15.970    566.000    571.680     -5.680    571.212    571.580    571.212    571.313    571.212
 16.070    550.710    571.472    -20.762    571.013    571.371    571.013    571.114    571.013
 16.170    572.000    571.262      0.738    570.811    571.160    570.811    570.913    570.811
 16.270    507.000    571.050    -64.050    570.606    570.948    570.606    570.708    570.606
 16.370    567.000    570.836     -3.836    570.398    570.733    570.398    570.501    570.398
 16.470    547.000    570.619    -23.619    570.187    570.516    570.187    570.291    570.187
 16.570    567.834    570.401     -2.567    569.974    570.296    569.974    570.078    569.974
 16.670    609.000    570.180     38.820    569.758    570.075    569.758    569.862    569.758
 16.770    540.000    569.957    -29.957    569.539    569.851    569.539    569.644    569.539
 16.870    606.000    569.732     36.268    569.317    569.626    569.317    569.423    569.317
 16.970    547.300    569.505    -22.205    569.093    569.398    569.093    569.199    569.093
 17.070    587.828    569.276     18.552    568.866    569.168    568.866    568.973    568.866
 17.170    599.000    569.045     29.955    568.636    568.936    568.636    568.744    568.636
 17.270    601.000    568.813     32.187    568.404    568.704    568.404    568.513    568.404
 17.370    570.763    568.578      2.185    568.170    568.468    568.170    568.279    568.170
 17.470    568.000    568.340     -0.340    567.933    568.230    567.933    568.043    567.933
 17.570    574.000    568.101      5.899    567.693    567.990    567.693    567.804    567.693
 17.670    563.000    567.859     -4.859    567.451    567.747    567.451    567.563    567.451
 17.770    499.000    567.615    -68.615    567.207    567.502    567.207    567.320    567.207
 17.870    582.143    567.369     14.774    566.961    567.256    566.961    567.074    566.961
 17.970    599.483    567.122     32.362    566.712    567.007    566.712    566.826    566.712
 18.070    538.000    566.872    -28.872    566.462    566.757    566.462    566.576    566.462
 18.170    570.190    566.620      3.569    566.209    566.505    566.209    566.324    566.209
 18.270    592.227    566.367     25.860    565.953    566.251    565.953    566.070    565.953
 18.370    562.000    566.114     -4.114    565.696    565.995    565.696    565.816    565.696
 18.470    566.000    565.858      0.142    565.437    565.737    565.437    565.558    565.437
 18.570    532.615    565.601    -32.986    565.175    565.478    565.175    565.298    565.175
 18.670    589.000    565.342     23.658    564.912    565.218    564.912    565.035    564.912
 18.770    566.000    565.080      0.920    564.647    564.956    564.647    564.771    564.647
 18.870    552.000    564.817    -12.817    564.379    564.691    564.379    564.504    564.379
 18.970    542.000    564.551    -22.551    564.110    564.425    564.110    564.236    564.110
 19.070    606.223    564.285     41.938    563.839    564.157    563.839    563.966    563.839
 19.170    541.000    564.016    -23.016    563.566    563.888    563.566    563.694    563.566
 19.270    548.000    563.746    -15.746    563.291    563.617    563.291    563.421    563.291
 19.370    608.000    563.475     44.525    563.015    563.345    563.015    563.145    563.015
 19.470    559.000    563.203     -4.203    562.737    563.071    562.737    562.868    562.737
 19.570    524.766    562.929    -38.163    562.457    562.796    562.457    562.589    562.457
 19.670    606.693    562.653     44.040    562.176    562.520    562.176    562.309    562.176
 19.770    575.000    562.378     12.622    561.892    562.244    561.892    562.027    561.892
 19.870    584.011    562.114     21.897    561.608    561.978    561.608    561.743    561.608
 19.970    519.640    561.845    -42.206    561.321    561.708    561.321    561.458    561.321
 20.070    555.000    561.566     -6.566    561.034    561.428    561.034    561.172    561.034
 20.170    575.758    561.286     14.472    560.744    561.146    560.744    560.884    560.744
 20.270    564.000    561.004      2.996    560.454    560.864    560.454    560.594    560.454
 20.370    576.000    560.721     15.279    560.162    560.580    560.162    560.303    560.162
 20.470    559.000    560.438     -1.438    559.868    560.295    559.868    560.011    559.868
 20.570    529.495    560.154    -30.659    559.573    560.009    559.573    559.718    559.573
 20.670    561.260    559.869      1.391    559.277    559.723    559.277    559.423    559.277
 20.770    570.967    559.584     11.384    558.979    559.436    558.979    559.127    558.979
 20.870    598.716    559.298     39.419    558.681    559.149    558.681    558.829    558.681
 20.970    546.000    559.011    -13.011    558.381    558.861    558.381    558.531    558.381
 21.070    527.000    558.725    -31.725    558.079    558.573    558.079    558.231    558.079
 21.170    526.576    558.438    -31.862    557.777    558.285    557.777    557.930    557.777
 21.270    533.000    558.151    -25.151    557.473    557.996    557.473    557.628    557.473
 21.370    543.000    557.864    -14.864    557.169    557.707    557.169    557.325    557.169
 21.470    561.000    557.577      3.423    556.863    557.419    556.863    557.021    556.863
 21.570    564.000    557.291      6.709    556.556    557.131    556.556    556.716    556.556
 21.670    544.000    557.005    -13.005    556.249    556.843    556.249    556.411    556.249
 21.770    560.000    556.728      3.272    555.940    556.564    555.940    556.104    555.940
 21.870    550.000    556.523     -6.523    555.630    556.357    555.630    555.796    555.630
 21.970    553.000    556.261     -3.261    555.319    556.093    555.319    555.487    555.319
 22.070    517.000    555.981    -38.981    555.008    555.812    555.008    555.178    555.008
 22.170    557.000    555.702      1.298    554.695    555.530    554.695    554.867    554.695
 22.270    609.000    555.426     53.574    554.382    555.252    554.382    554.556    554.382
 22.370    562.935    555.154      7.781    554.068    554.978    554.068    554.244    554.068
 22.470    553.459    554.888     -1.428    553.753    554.709    553.753    553.932    553.753
 22.570    514.836    554.624    -39.787    553.437    554.443    553.437    553.619    553.437
 22.670    592.000    554.386     37.614    553.121    554.203    553.121    553.305    553.121
 22.770    557.086    554.201      2.884    552.804    554.015    552.804    552.990    552.804
 22.870    585.350    553.975     31.375    552.486    553.786    552.486    552.675    552.486
 22.970    539.000    553.740    -14.740    552.168    553.548    552.168    552.360    552.168
 23.070    549.054    553.515     -4.461    551.849    553.320    551.849    552.044    551.849
 23.170    603.000    553.305     49.695    551.529    553.108    551.529    551.727    551.529
 23.270    535.854    553.116    -17.261    551.209    552.915    551.209    551.410    551.209
 23.370    573.192    552.947     20.245    550.888    552.744    550.888    551.093    550.888
 23.470    519.000    552.809    -33.809    550.567    552.602    550.567    550.775    550.567
 23.570    522.000    552.711    -30.711    550.245    552.501    550.245    550.457    550.245
 23.670    562.000    552.667      9.333    549.923    552.453    549.923    550.138    549.923
 23.770    550.000    552.698     -2.698    549.601    552.480    549.601    549.819    549.601
 23.870    563.000    552.835     10.165    549.278    552.614    549.278    549.500    549.278
 23.970    589.000    553.140     35.860    548.954    552.915    548.954    549.181    548.954
 24.070    595.364    553.754     41.610    548.630    553.525    548.630    548.862    548.630
 24.170    541.000    555.070    -14.070    548.306    554.837    548.306    548.543    548.306
 24.270    588.877    558.078     30.799    547.982    557.843    547.982    548.223    547.982
 24.370    581.000    564.744     16.256    547.657    564.508    547.657    547.904    547.657
 24.470    602.848    577.638     25.210    547.332    577.406    547.332    547.584    547.332
 24.570    576.000    597.860    -21.860    547.007    597.638    547.007    547.265    547.007
 24.670    612.027    621.418     -9.391    546.682    621.207    546.682    546.945    546.682
 24.770    608.000    636.892    -28.892    546.356    636.686    546.356    546.626    546.356
 24.870    613.000    633.060    -20.060    546.030    632.844    546.030    546.307    546.030
 24.970    616.000    612.972      3.028    545.705    612.735    545.705    545.988    545.705
 25.070    619.736    589.231     30.505    545.379    588.970    545.379    545.670    545.379
 25.170    582.000    570.781     11.219    545.052    570.499    545.052    545.352    545.052
 25.270    524.000    559.576    -35.576    544.726    559.278    544.726    545.034    544.726
 25.370    528.000    553.775    -25.775    544.400    553.464    544.400    544.717    544.400
 25.470    554.000    550.904      3.096    544.074    550.581    544.074    544.400    544.074
 25.570    534.000    549.326    -15.326    543.748    548.992    543.748    544.085    543.748
 25.670    562.244    548.296     13.948    543.421    547.949    543.421    543.770    543.421
 25.770    509.426    547.526    -38.100    543.095    547.168    543.095    543.455    543.095
 25.870    536.971    546.907     -9.936    542.769    546.535    542.769    543.142    542.769
 25.970    518.196    546.393    -28.197    542.443    546.007    542.443    542.830    542.443
 26.070    522.000    545.957    -23.957    542.117    545.556    542.117    542.519    542.117
 26.170    589.330    545.585     43.745    541.792    545.168    541.792    542.209    541.792
 26.270    579.998    545.267     34.731    541.466    544.833    541.466    541.901    541.466
 26.370    539.000    545.004     -6.004    541.141    544.550    541.141    541.594    541.141
 26.470    551.000    544.813      6.187    540.815    544.339    540.815    541.290    540.815
 26.570    571.000    544.668     26.332    540.490    544.171    540.490    540.988    540.490
 26.670    509.329    544.557    -35.228    540.166    544.035    540.166    540.688    540.166
 26.770    527.000    544.497    -17.497    539.841    543.947    539.841    540.390    539.841
 26.870    526.000    544.510    -18.510    539.517    543.931    539.517    540.096    539.517
 26.970    578.000    544.616     33.384    539.193    544.003    539.193    539.805    539.193
 27.070    578.827    544.815     34.012    538.869    544.165    538.869    539.519    538.869
 27.170    555.203    545.151     10.052    538.546    544.460    538.546    539.237    538.546
 27.270    566.524    545.683     20.841    538.223    544.945    538.223    538.960    538.223
 27.370    582.587    546.485     36.102    537.901    545.695    537.901    538.690    537.901
 27.470    567.039    547.654     19.384    537.579    546.805    537.579    538.427    537.579
 27.570    541.000    549.553     -8.553    537.257    548.636    537.257    538.172    537.257
 27.670    596.000    553.452     42.548    536.936    552.457    536.936    537.927    536.936
 27.770    607.000    563.910     43.090    536.615    562.823    536.615    537.695    536.615
 27.870    608.000    593.103     14.897    536.294    591.904    536.294    537.477    536.294
 27.970    669.000    660.935      8.065    535.975    659.595    535.975    537.276    535.975
 28.070    767.076    777.276    -10.200    535.655    775.763    535.655    537.097    535.655
 28.170    879.152    908.858    -29.706    535.336    907.150    535.336    536.946    535.336
 28.270    959.066    973.726    -14.659    535.018    971.819    535.018    536.828    535.018
 28.370    867.524    918.131    -50.607    534.700    916.018    534.700    536.755    534.700
 28.470    826.000    798.852     27.148    534.383    796.471    534.383    536.743    534.383
 28.570    704.997    707.353     -2.356    534.067    704.595    534.067    536.816    534.067
 28.670    676.000    690.189    -14.189    533.751    686.911    533.751    537.016    533.751
 28.770    709.992    741.039    -31.047    533.436    737.051    533.436    537.405    533.436
 28.870    858.000    816.222     41.778    533.121    811.253    533.121    538.079    533.121
 28.970    824.102    851.952    -27.851    532.807    845.594    532.807    539.170    532.807
 29.070    848.692    810.957     37.735    532.494    802.631    532.494    540.834    532.494
 29.170    702.000    726.317    -24.317    532.181    715.282    532.181    543.230    532.181
 29.270    657.000    649.125      7.875    531.870    634.544    531.870    546.459    531.870
 29.370    593.000    602.168     -9.168    531.559    583.271    531.559    550.458    531.559
 29.470    556.000    581.806    -25.806    531.248    558.259    531.248    554.795    531.248
 29.570    571.000    575.301     -4.301    530.939    547.810    530.939    558.428    530.939
 29.670    590.981    572.570     18.410    530.630    543.314    530.630    559.884    530.630
 29.770    613.126    568.908     44.218    530.322    540.918    530.322    558.310    530.322
 29.870    599.000    563.686     35.314    530.015    539.350    530.015    554.348    530.015
 29.970    512.045    557.976    -45.931    529.708    538.238    529.708    549.444    529.708
 30.070    582.000    552.796     29.204    529.403    537.463    529.403    544.734    529.403
 30.170    559.000    548.651     10.349    529.098    537.005    529.098    540.743    529.098
 30.270    562.000    545.763     16.237    528.795    536.968    528.795    537.587    528.795
 30.370    569.000    544.479     24.521    528.492    537.781    528.492    535.186    528.492
 30.470    536.000    545.809     -9.809    528.190    540.605    528.190    533.389    528.190
 30.570    581.000    551.817     29.183    527.889    547.659    527.889    532.034    527.889
 30.670    570.000    564.864      5.136    527.589    561.443    527.589    530.987    527.589
 30.770    610.000    584.867     25.133    527.290    581.974    527.290    530.145    527.290
 30.870    568.778    605.762    -36.983    526.991    603.262    526.991    529.439    526.991
 30.970    639.000    615.279     23.721    526.694    613.092    526.694    528.825    526.694
 31.070    621.000    605.333     15.667    526.398    603.409    526.398    528.277    526.398
 31.170    569.127    583.411    -14.285    526.103    581.710    526.103    527.775    526.103
 31.270    592.435    561.769     30.665    525.809    560.252    525.809    527.310    525.809
 31.370    528.000    546.722    -18.722    525.516    545.356    525.516    526.874    525.516
 31.470    529.000    538.471     -9.471    525.223    537.229    525.223    526.461    525.223
 31.570    520.000    534.563    -14.563    524.932    533.426    524.932    526.067    524.932
 31.670    551.000    532.725     18.275    524.642    531.677    524.642    525.688    524.642
 31.770    548.000    531.720     16.280    524.354    530.749    524.354    525.323    524.354
 31.870    545.000    531.062     13.938    524.066    530.158    524.066    524.968    524.066
 31.970    572.458    530.590     41.868    523.779    529.744    523.779    524.623    523.779
 32.070    550.000    530.250     19.750    523.494    529.456    523.494    524.287    523.494
 32.170    486.841    530.021    -43.180    523.209    529.272    523.209    523.957    523.209
 32.270    546.783    529.897     16.886    522.926    529.188    522.926    523.634    522.926
 32.370    554.408    529.880     24.528    522.644    529.207    522.644    523.316    522.644
 32.470    564.000    529.976     34.024    522.363    529.335    522.363    523.003    522.363
 32.570    547.000    530.199     16.801    522.083    529.586    522.083    522.695    522.083
 32.670    550.000    530.575     19.425    521.804    529.988    521.804    522.390    521.804
 32.770    552.939    531.143     21.797    521.527    530.579    521.527    522.090    521.527
 32.870    555.000    531.955     23.045    521.251    531.412    521.251    521.793    521.251
 32.970    548.000    533.091     14.909    520.976    532.567    520.976    521.499    520.976
 33.070    524.000    534.675    -10.675    520.702    534.168    520.702    521.208    520.702
 33.170    516.477    536.930    -20.453    520.429    536.438    520.429    520.920    520.429
 33.270    509.982    540.372    -30.391    520.158    539.894    520.158    520.634    520.158
 33.370    603.000    546.430     56.570    519.888    545.963    519.888    520.352    519.888
 33.470    577.183    558.925     18.258    519.620    558.468    519.620    520.071    519.620
 33.570    602.563    586.288     16.275    519.352    585.836    519.352    519.793    519.352
 33.670    619.000    642.063    -23.063    519.086    641.611    519.086    519.517    519.086
 33.770    780.000    738.743     41.257    518.821    738.284    518.821    519.243    518.821
 33.870    824.914    872.695    -47.781    518.558    872.226    518.558    518.971    518.558
 33.970   1009.478   1007.273      2.205    518.296   1006.802    518.296    518.702    518.296
 34.070   1033.000   1073.220    -40.220    518.035   1072.765    518.035    518.434    518.035
 34.170   1080.200   1023.658     56.542    517.775   1023.236    517.775    518.168    517.775
 34.270    936.000    895.303     40.697    517.517    894.912    517.517    517.904    517.517
 34.370    706.000    757.831    -51.831    517.260    757.457    517.260    517.642    517.260
 34.470    658.000    653.724      4.276    517.005    653.356    517.005    517.382    517.005
 34.570    623.000    591.146     31.854    516.751    590.779    516.751    517.123    516.751
 34.670    574.000    559.273     14.727    516.498    558.907    516.498    516.867    516.498
 34.770    535.000    544.256     -9.256    516.247    543.892    516.247    516.612    516.247
 34.870    533.000    536.800     -3.800    515.997    536.438    515.997    516.359    515.997
 34.970    535.000    532.440      2.560    515.749    532.081    515.749    516.107    515.749
 35.070    498.995    529.442    -30.448    515.502    529.086    515.502    515.858    515.502
 35.170    505.000    527.178    -22.178    515.256    526.824    515.256    515.610    515.256
 35.270    536.772    525.385     11.386    515.012    525.034    515.012    515.363    515.012
 35.370    497.000    523.927    -26.927    514.770    523.578    514.770    515.119    514.770
 35.470    492.006    522.716    -30.710    514.528    522.368    514.528    514.876    514.528
 35.570    488.688    521.691    -33.003    514.289    521.345    514.289    514.634    514.289
 35.670    558.000    520.811     37.189    514.050    520.466    514.050    514.395    514.050
 35.770    527.000    520.044      6.956    513.813    519.700    513.813    514.157    513.813
 35.870    521.000    519.368      1.632    513.578    519.025    513.578    513.921    513.578
 35.970    539.000    518.766     20.234    513.344    518.424    513.344    513.686    513.344
 36.070    533.000    518.226     14.774    513.112    517.884    513.112    513.453    513.112
 36.170    521.000    517.738      3.262    512.881    517.397    512.881    513.222    512.881
 36.270    522.059    517.295      4.764    512.652    516.954    512.652    512.992    512.652
 36.370    519.000    516.892      2.108    512.424    516.552    512.424    512.764    512.424
 36.470    545.993    516.527     29.466    512.197    516.186    512.197    512.538    512.197
 36.570    457.000    516.199    -59.199    511.973    515.858    511.973    512.314    511.973
 36.670    552.852    515.908     36.944    511.749    515.567    511.749    512.091    511.749
 36.770    523.000    515.662      7.338    511.528    515.320    511.528    511.869    511.528
 36.870    512.000    515.481     -3.481    511.307    515.139    511.307    511.650    511.307
 36.970    518.000    515.418      2.582    511.089    515.075    511.089    511.432    511.089
 37.070    519.000    515.595      3.405    510.872    515.251    510.872    511.216    510.872
 37.170    539.271    516.240     23.032    510.656    515.895    510.656    511.001    510.656
 37.270    525.000    517.668      7.332    510.442    517.323    510.442    510.788    510.442
 37.370    539.934    520.132     19.802    510.230    519.786    510.230    510.577    510.230
 37.470    519.000    523.529     -4.529    510.019    523.183    510.019    510.368    510.019
 37.570    497.000    527.088    -30.088    509.810    526.741    509.810    510.160    509.810
 37.670    546.000    529.327     16.673    509.602    528.980    509.602    509.954    509.602
 37.770    539.596    529.004     10.592    509.396    528.658    509.396    509.749    509.396
 37.870    531.000    526.433      4.567    509.192    526.087    509.192    509.546    509.192
 37.970    545.000    522.952     22.048    508.989    522.606    508.989    509.345    508.989
 38.070    458.000    519.598    -61.598    508.788    519.250    508.788    509.146    508.788
 38.170    499.000    516.795    -17.795    508.588    516.444    508.588    508.949    508.588
 38.270    475.033    514.671    -39.638    508.390    514.315    508.390    508.753    508.390
 38.370    507.606    513.182     -5.576    508.193    512.821    508.193    508.559    508.193
 38.470    547.000    512.185     34.815    507.999    511.820    507.999    508.366    507.999
 38.570    500.198    511.523    -11.324    507.806    511.154    507.806    508.175    507.806
 38.670    539.000    511.065     27.935    507.614    510.693    507.614    507.987    507.614
 38.770    548.536    510.721     37.815    507.424    510.346    507.424    507.799    507.424
 38.870    501.000    510.438     -9.438    507.236    510.061    507.236    507.614    507.236
 38.970    507.000    510.189     -3.189    507.049    509.809    507.049    507.430    507.049
 39.070    497.000    509.962    -12.962    506.864    509.579    506.864    507.248    506.864
 39.170    544.489    509.751     34.738    506.681    509.364    506.681    507.068    506.681
 39.270    472.621    509.552    -36.931    506.499    509.162    506.499    506.889    506.499
 39.370    526.459    509.364     17.095    506.319    508.970    506.319    506.713    506.319
 39.470    516.000    509.185      6.815    506.141    508.788    506.141    506.538    506.141
 39.570    528.000    509.016     18.984    505.964    508.615    505.964    506.365    505.964
 39.670    478.173    508.855    -30.682    505.789    508.451    505.789    506.193    505.789
 39.770    461.000    508.702    -47.702    505.615    508.294    505.615    506.024    505.615
 39.870    501.000    508.557     -7.557    505.444    508.145    505.444    505.856    505.444
 39.970    532.000    508.420     23.580    505.273    508.003    505.273    505.690    505.273
 40.070    506.000    508.291     -2.291    505.105    507.870    505.105    505.526    505.105
 40.170    519.000    508.171     10.829    504.938    507.746    504.938    505.363    504.938
 40.270    509.025    508.060      0.965    504.773    507.630    504.773    505.203    504.773
 40.370    518.407    507.959     10.448    504.610    507.525    504.610    505.044    504.610
 40.470    495.000    507.869    -12.869    504.448    507.430    504.448    504.887    504.448
 40.570    515.000    507.792      7.208    504.288    507.348    504.288    504.732    504.288
 40.670    490.000    507.729    -17.729    504.129    507.280    504.129    504.579    504.129
 40.770    529.791    507.681     22.110    503.973    507.227    503.973    504.427    503.973
 40.870    484.000    507.653    -23.653    503.818    507.193    503.818    504.278    503.818
 40.970    501.000    507.647     -6.647    503.664    507.182    503.664    504.130    503.664
 41.070    514.000    507.668      6.332    503.513    507.197    503.513    503.984    503.513
 41.170    478.000    507.722    -29.722    503.363    507.245    503.363    503.840    503.363
 41.270    503.110    507.817     -4.708    503.214    507.334    503.214    503.698    503.214
 41.370    485.000    507.965    -22.965    503.068    507.476    503.068    503.558    503.068
 41.470    542.451    508.181     34.270    502.923    507.685    502.923    503.420    502.923
 41.570    493.000    508.490    -15.490    502.779    507.987    502.779    503.283    502.779
 41.670    498.964    508.936     -9.972    502.638    508.427    502.638    503.149    502.638
 41.770    516.000    509.620      6.380    502.498    509.104    502.498    503.016    502.498
 41.870    534.284    510.785     23.499    502.360    510.261    502.360    502.886    502.360
 41.970    522.000    512.991      9.009    502.223    512.460    502.223    502.757    502.223
 42.070    477.251    517.359    -40.108    502.088    516.822    502.088    502.630    502.088
 42.170    553.529    525.683     27.846    501.955    525.142    501.955    502.506    501.955
 42.270    578.344    540.021     38.323    501.823    539.477    501.823    502.383    501.823
 42.370    530.385    561.443    -31.058    501.694    560.900    501.694    502.262    501.694
 42.470    578.000    588.169    -10.169    501.565    587.631    501.565    502.143    501.565
 42.570    540.000    613.963    -73.963    501.439    613.429    501.439    502.027    501.439
 42.670    657.177    628.707     28.469    501.314    628.174    501.314    501.912    501.314
 42.770    609.000    624.690    -15.690    501.191    624.147    501.191    501.799    501.191
 42.870    599.958    604.257     -4.299    501.070    603.695    501.070    501.689    501.070
 42.970    538.282    577.034    -38.752    500.950    576.447    500.950    501.581    500.950
 43.070    559.000    551.834      7.166    500.832    551.221    500.832    501.474    500.832
 43.170    502.193    533.026    -30.833    500.716    532.390    500.716    501.370    500.716
 43.270    503.000    521.068    -18.068    500.601    520.411    500.601    501.268    500.601
 43.370    531.249    514.331     16.918    500.488    513.657    500.488    501.169    500.488
 43.470    508.000    510.787     -2.787    500.377    510.096    500.377    501.071    500.377
 43.570    497.000    508.904    -11.904    500.267    508.197    500.267    500.976    500.267
 43.670    525.000    507.804     17.196    500.159    507.082    500.159    500.883    500.159
 43.770    473.496    507.073    -33.577    500.053    506.335    500.053    500.793    500.053
 43.870    462.000    506.535    -44.535    499.948    505.780    499.948    500.704    499.948
 43.970    527.000    506.118     20.882    499.845    505.345    499.845    500.619    499.845
 44.070    492.000    505.784    -13.784    499.744    504.993    499.744    500.536    499.744
 44.170    533.927    505.515     28.412    499.644    504.705    499.644    500.455    499.644
 44.270    478.000    505.296    -27.296    499.546    504.466    499.546    500.377    499.546
 44.370    527.205    505.118     22.087    499.450    504.267    499.450    500.301    499.450
 44.470    482.425    504.974    -22.548    499.355    504.100    499.355    500.229    499.355
 44.570    481.397    504.858    -23.462    499.262    503.961    499.262    500.159    499.262
 44.670    536.000    504.767     31.233    499.171    503.846    499.171    500.092    499.171
 44.770    485.000    504.699    -19.699    499.081    503.752    499.081    500.028    499.081
 44.870    507.000    504.651      2.349    498.993    503.676    498.993    499.967    498.993
 44.970    515.000    504.621     10.379    498.906    503.618    498.906    499.910    498.906
 45.070    518.418    504.609     13.809    498.821    503.576    498.821    499.855    498.821
 45.170    520.000    504.615     15.385    498.738    503.548    498.738    499.805    498.738
 45.270    533.000    504.637     28.363    498.657    503.536    498.657    499.757    498.657
 45.370    514.790    504.677     10.113    498.577    503.539    498.577    499.714    498.577
 45.470    556.000    504.733     51.267    498.498    503.557    498.498    499.675    498.498
 45.570    519.000    504.808     14.192    498.422    503.590    498.422    499.640    498.422
 45.670    474.000    504.903    -30.903    498.347    503.640    498.347    499.610    498.347
 45.770    531.500    505.018     26.482    498.273    503.707    498.273    499.584    498.273
 45.870    477.000    505.155    -28.155    498.201    503.792    498.201    499.564    498.201
 45.970    466.429    505.317    -38.887    498.131    503.899    498.131    499.549    498.131
 46.070    537.539    505.506     32.033    498.063    504.029    498.063    499.539    498.063
 46.170    515.000    505.726      9.274    497.996    504.185    497.996    499.537    497.996
 46.270    541.132    505.983     35.149    497.930    504.371    497.930    499.541    497.930
 46.370    493.000    506.281    -13.281    497.866    504.593    497.866    499.553    497.866
 46.470    550.008    506.628     43.380    497.804    504.858    497.804    499.573    497.804
 46.570    497.000    507.035    -10.035    497.744    505.175    497.744    499.603    497.744
 46.670    487.014    507.518    -20.504    497.685    505.559    497.685    499.643    497.685
 46.770    540.000    508.104     31.896    497.627    506.035    497.627    499.694    497.627
 46.870    515.000    508.848      6.152    497.571    506.660    497.571    499.757    497.571
 46.970    527.897    509.875     18.021    497.517    507.554    497.517    499.835    497.517
 47.070    515.000    511.454      3.546    497.464    508.985    497.464    499.930    497.464
 47.170    463.000    514.099    -51.099    497.413    511.464    497.413    500.043    497.413
 47.270    491.000    518.669    -27.669    497.363    515.846    497.363    500.177    497.363
 47.370    516.000    526.218    -10.218    497.315    523.183    497.315    500.336    497.315
 47.470    545.895    537.597      8.297    497.269    534.320    497.269    500.524    497.269
 47.570    528.364    552.717    -24.353    497.224    549.162    497.224    500.745    497.224
 47.670    538.000    569.752    -31.752    497.180    565.880    497.180    501.007    497.180
 47.770    595.000    584.704     10.296    497.138    580.470    497.138    501.317    497.138
 47.870    613.000    592.238     20.762    497.098    587.592    497.098    501.686    497.098
 47.970    670.000    589.200     80.800    497.059    584.077    497.059    502.128    497.059
 48.070    573.000    577.748     -4.748    497.022    572.061    497.022    502.665    497.022
 48.170    588.000    563.099     24.901    496.986    556.724    496.986    503.329    496.986
 48.270    518.000    549.769    -31.769    496.951    542.532    496.951    504.168    496.951
 48.370    519.081    540.212    -21.131    496.919    531.857    496.919    505.260    496.919
 48.470    537.000    535.048      1.952    496.887    525.199    496.887    506.728    496.887
 48.570    536.000    533.817      2.183    496.857    521.919    496.857    508.749    496.857
 48.670    533.198    535.776     -2.578    496.829    521.028    496.829    511.573    496.829
 48.770    560.389    540.409     19.980    496.802    521.693    496.802    515.514    496.802
 48.870    527.005    547.578    -20.573    496.777    523.421    496.777    520.929    496.777
 48.970    560.000    557.449      2.551    496.753    526.047    496.753    528.150    496.753
 49.070    595.000    570.364     24.636    496.730    529.703    496.730    537.386    496.730
 49.170    605.606    586.843     18.763    496.709    534.973    496.709    548.572    496.709
 49.270    584.000    608.005    -24.005    496.690    543.528    496.690    561.157    496.690
 49.370    669.000    636.836     32.164    496.671    559.678    496.671    573.815    496.671
 49.470    679.000    680.842     -1.842    496.655    593.217    496.655    584.254    496.655
 49.570    783.000    755.896     27.104    496.639    662.801    496.639    589.689    496.639
 49.670    904.000    888.472     15.528    496.626    796.707    496.626    588.313    496.626
 49.770   1094.880   1109.506    -14.626    496.613   1025.368    496.613    580.631    496.613
 49.870   1402.901   1434.901    -32.000    496.602   1362.305    496.602    569.040    496.602
 49.970   1817.000   1838.575    -21.575    496.592   1778.775    496.592    556.222    496.592
 50.070   2213.000   2235.729    -22.729    496.584   2188.097    496.584    544.084    496.584
 50.170   2521.000   2497.475     23.525    496.577   2460.395    496.577    533.622    496.577
 50.270   2476.000   2513.255    -37.255    496.572   2484.742    496.572    525.173    496.572
 50.370   2319.121   2272.316     46.805    496.568   2250.385    496.568    518.679    496.568
 50.470   1892.721   1874.227     18.494    496.565   1857.133    496.565    513.869    496.565
 50.570   1484.000   1452.479     31.521    496.564   1438.836    496.564    510.394    496.564
 50.670   1006.000   1103.558    -97.558    496.564   1092.354    496.564    507.909    496.564
 50.770    838.000    865.044    -27.044    496.565    855.582    496.565    506.124    496.565
 50.870    688.342    727.440    -39.098    496.568    719.255    496.568    504.817    496.568
 50.970    690.746    659.084     31.662    496.572    651.869    496.572    503.833    496.572
 51.070    615.000    627.359    -12.359    496.577    620.905    496.577    503.071    496.577
 51.170    633.000    609.389     23.611    496.584    603.545    496.584    502.462    496.584
 51.270    572.000    594.073    -22.073    496.592    588.727    496.592    501.968    496.592
 51.370    578.000    578.821     -0.821    496.601    573.886    496.601    501.559    496.601
 51.470    597.516    564.625     32.891    496.612    560.036    496.612    501.218    496.612
 51.570    597.000    552.838     44.162    496.624    548.541    496.624    500.932    496.624
 51.670    592.000    544.093     47.907    496.637    540.046    496.637    500.692    496.637
 51.770    526.000    538.274    -12.274    496.652    534.441    496.652    500.490    496.652
 51.870    526.000    534.827     -8.827    496.668    531.177    496.668    500.321    496.668
 51.970    565.000    533.105     31.895    496.685    529.613    496.685    500.180    496.685
 52.070    540.000    532.604      7.396    496.703    529.246    496.703    500.063    496.703
 52.170    527.000    533.039     -6.039    496.722    529.797    496.722    499.967    496.722
 52.270    545.000    534.361     10.639    496.743    531.216    496.743    499.889    496.743
 52.370    577.811    536.784     41.027    496.765    533.721    496.765    499.829    496.765
 52.470    598.000    540.952     57.048    496.788    537.958    496.788    499.783    496.788
 52.570    521.593    548.292    -26.699    496.813    545.354    496.813    499.751    496.813
 52.670    583.000    561.550     21.450    496.839    558.657    496.839    499.731    496.839
 52.770    626.000    585.305     40.695    496.865    582.447    496.865    499.722    496.865
 52.870    651.438    625.918     25.520    496.893    623.084    496.893    499.724    496.893
 52.970    716.841    690.200     26.641    496.923    687.382    496.923    499.736    496.923
 53.070    812.000    782.380     29.620    496.953    779.570    496.953    499.757    496.953
 53.170    873.000    899.864    -26.864    496.985    897.055    496.985    499.787    496.985
 53.270   1008.590   1029.197    -20.607    497.017   1026.386    497.017    499.825    497.017
 53.370   1162.000   1144.222     17.778    497.051   1141.406    497.051    499.872    497.051
 53.470   1203.000   1210.760     -7.760    497.086   1207.937    497.086    499.926    497.086
 53.570   1185.432   1203.751    -18.319    497.122   1200.914    497.122    499.989    497.122
 53.670   1052.000   1126.352    -74.352    497.160   1123.489    497.160    500.059    497.160
 53.770    980.088   1006.996    -26.908    497.198   1004.094    497.198    500.137    497.198
 53.870    885.000    879.031      5.969    497.238    876.077    497.238    500.223    497.238
 53.970    725.000    766.277    -41.277    497.278    763.262    497.278    500.318    497.278
 54.070    681.000    679.952      1.048    497.320    676.870    497.320    500.420    497.320
 54.170    594.068    621.081    -27.013    497.363    617.924    497.363    500.531    497.363
 54.270    573.000    584.688    -11.688    497.407    581.451    497.407    500.650    497.407
 54.370    598.000    563.900     34.100    497.452    560.577    497.452    500.779    497.452
 54.470    573.000    552.650     20.350    497.498    549.233    497.498    500.917    497.498
 54.570    565.459    546.724     18.735    497.545    543.204    497.545    501.066    497.545
 54.670    564.000    543.654     20.346    497.593    540.023    497.593    501.225    497.593
 54.770    555.000    542.179     12.821    497.642    538.427    497.642    501.395    497.642
 54.870    568.000    541.717     26.283    497.692    537.833    497.692    501.577    497.692
 54.970    507.440    542.021    -34.581    497.743    537.992    497.743    501.773    497.743
 55.070    548.027    542.999      5.028    497.795    538.812    497.795    501.982    497.795
 55.170    588.000    544.637     43.363    497.848    540.279    497.848    502.207    497.848
 55.270    526.000    546.973    -20.973    497.902    542.427    497.902    502.448    497.902
 55.370    572.000    550.091     21.909    497.957    545.342    497.957    502.708    497.957
 55.470    584.143    554.155     29.988    498.013    549.182    498.013    502.987    498.013
 55.570    563.000    559.476      3.524    498.070    554.259    498.070    503.288    498.070
 55.670    587.000    566.710     20.290    498.128    561.225    498.128    503.613    498.128
 55.770    571.000    577.288     -6.288    498.187    571.509    498.187    503.966    498.187
 55.870    607.344    594.256     13.089    498.247    588.153    498.247    504.348    498.247
 55.970    615.000    623.599     -8.599    498.308    617.137    498.308    504.764    498.308
 56.070    671.000    675.798     -4.798    498.370    668.937    498.370    505.218    498.370
 56.170    724.706    766.627    -41.921    498.432    759.322    498.432    505.716    498.432
 56.270    869.000    915.514    -46.514    498.495    907.712    498.495    506.262    498.495
 56.370   1081.000   1139.780    -58.780    498.560   1131.425    498.560    506.863    498.560
 56.470   1505.651   1444.723     60.928    498.625   1435.757    498.625    507.529    498.625
 56.570   1726.000   1812.311    -86.311    498.691   1802.676    498.691    508.269    498.691
 56.670   2149.000   2193.151    -44.151    498.758   2182.785    498.758    509.094    498.758
 56.770   2471.000   2507.146    -36.146    498.826   2495.979    498.826    510.019    498.826
 56.870   2504.000   2663.246   -159.246    498.894   2651.186    498.894    511.063    498.894
 56.970   2651.000   2607.006     43.994    498.964   2593.915    498.964    512.248    498.964
 57.070   2432.108   2360.627     71.481    499.034   2346.305    499.034    513.604    499.034
 57.170   2041.349   2004.517     36.832    499.105   1988.706    499.105    515.172    499.105
 57.270   1712.000   1627.251     84.749    499.177   1609.646    499.177    517.012    499.177
 57.370   1309.000   1293.469     15.531    499.249   1273.689    499.249    519.211    499.249
 57.470   1009.000   1035.584    -26.584    499.323   1013.129    499.323    521.908    499.323
 57.570    819.000    858.407    -39.407    499.397    832.578    499.397    525.310    499.397
 57.670    719.668    749.625    -29.957    499.472    719.415    499.472    529.732    499.472
 57.770    743.000    691.007     51.993    499.547    654.953    499.547    535.628    499.547
 57.870    619.498    666.461    -46.963    499.624    622.477    499.624    543.618    499.624
 57.970    656.028    665.706     -9.678    499.701    610.916    499.701    554.490    499.701
 58.070    752.000    684.488     67.512    499.779    615.100    499.779    569.156    499.779
 58.170    699.000    722.927    -23.927    499.857    634.211    499.857    588.552    499.857
 58.270    812.520    783.202     29.318    499.936    669.643    499.936    613.464    499.936
 58.370    850.440    867.012    -16.571    500.016    722.689    500.016    644.295    500.016
 58.470    962.000    973.393    -11.393    500.097    792.666    500.097    680.771    500.097
 58.570   1098.794   1096.982      1.812    500.178    875.554    500.178    721.550    500.178
 58.670   1136.000   1227.234    -91.234    500.260    963.728    500.260    763.713    500.260
 58.770   1369.000   1349.595     19.405    500.342   1047.640    500.342    802.256    500.342
 58.870   1456.000   1448.568      7.432    500.425   1118.691    500.425    830.278    500.425
 58.970   1571.452   1510.376     61.075    500.509   1169.873    500.509    841.008    500.509
 59.070   1542.000   1525.171     16.829    500.594   1194.360    500.594    831.421    500.594
 59.170   1543.000   1491.347     51.653    500.679   1187.761    500.679    804.296    500.679
 59.270   1455.000   1419.202     35.798    500.764   1153.699    500.764    766.303    500.764
 59.370   1371.000   1327.989     43.011    500.850   1104.478    500.850    724.384    500.850
 59.470   1226.033   1238.329    -12.296    500.937   1055.617    500.937    683.648    500.937
 59.570   1193.000   1168.029     24.971    501.024   1021.911    501.024    647.105    501.024
 59.670   1189.000   1132.425     56.575    501.112   1017.290    501.112    616.165    501.112
 59.770   1190.000   1143.331     46.669    501.200   1053.248    501.200    591.149    501.200
 59.870   1189.312   1204.120    -14.809    501.289   1133.538    501.289    571.681    501.289
 59.970   1337.000   1304.928     32.072    501.379   1249.074    501.379    556.989    501.379
 60.070   1442.000   1421.324     20.676    501.469   1376.371    501.469    546.141    501.469
 60.170   1553.000   1517.305     35.695    501.559   1480.350    501.559    538.222    501.559
 60.270   1564.309   1554.995      9.314    501.650   1523.937    501.650    532.439    501.650
 60.370   1481.234   1512.412    -31.177    501.741   1485.772    501.741    528.166    501.741
 60.470   1449.000   1396.637     52.363    501.833   1373.375    501.833    524.944    501.833
 60.570   1269.000   1236.952     32.048    501.926   1216.328    501.926    522.458    501.926
 60.670   1109.000   1067.385     41.615    502.018   1048.855    502.018    520.502    502.018
 60.770    865.808    914.576    -48.767    502.112    897.726    502.112    518.943    502.112
 60.870    826.000    793.499     32.501    502.205    777.997    502.205    517.701    502.205
 60.970    658.244    708.214    -49.969    502.299    693.783    502.299    516.727    502.299
 61.070    613.000    655.525    -42.525    502.394    641.925    502.394    515.989    502.394
 61.170    676.000    629.608     46.392    502.488    616.622    502.488    515.463    502.488
 61.270    663.184    625.846     37.338    502.584    613.282    502.584    515.129    502.584
 61.370    644.000    642.931      1.069    502.679    630.617    502.679    514.962    502.679
 61.470    708.652    683.017     25.635    502.775    670.816    502.775    514.928    502.775
 61.570    738.000    750.132    -12.132    502.871    737.953    502.871    514.978    502.871
 61.670    802.184    847.211    -45.027    502.968    835.037    502.968    515.041    502.968
 61.770    981.166    972.462      8.705    503.065    960.366    503.065    515.028    503.065
 61.870   1015.000   1116.167   -101.167    503.162   1104.314    503.162    514.853    503.162
 61.970   1238.000   1259.142    -21.142    503.260   1247.752    503.260    514.470    503.260
 62.070   1358.000   1374.091    -16.091    503.358   1363.375    503.358    513.896    503.358
 62.170   1352.000   1432.176    -80.176    503.456   1422.283    503.456    513.195    503.456
 62.270   1391.000   1415.973    -24.973    503.554   1406.968    503.554    512.447    503.554
 62.370   1297.000   1330.230    -33.230    503.653   1322.100    503.653    511.716    503.653
 62.470   1141.751   1198.509    -56.758    503.752   1191.187    503.752    511.045    503.752
 62.570   1049.000   1050.076     -1.076    503.851   1043.467    503.851    510.457    503.851
 62.670    861.170    909.356    -48.186    503.950    903.358    503.950    509.959    503.950
 62.770    741.565    791.626    -50.061    504.050    786.140    504.050    509.550    504.050
 62.870    638.000    702.833    -64.833    504.150    697.773    504.150    509.223    504.150
 62.970    653.000    641.728     11.272    504.250    637.019    504.250    508.967    504.250
 63.070    628.000    603.008     24.992    504.350    598.592    504.350    508.770    504.350
 63.170    566.000    580.269    -14.269    504.450    576.099    504.450    508.620    504.450
 63.270    565.000    567.959     -2.959    504.551    564.000    504.551    508.507    504.551
 63.370    603.000    562.236     40.764    504.652    558.460    504.652    508.423    504.652
 63.470    526.439    561.056    -34.617    504.753    557.439    504.753    508.363    504.753
 63.570    589.000    563.942     25.058    504.854    560.467    504.854    508.320    504.854
 63.670    582.000    571.702     10.298    504.955    568.352    504.955    508.291    504.955
 63.770    555.885    586.161    -30.276    505.056    582.921    505.056    508.275    505.056
 63.870    620.000    609.785     10.215    505.157    606.643    505.157    508.269    505.157
 63.970    673.000    645.070     27.930    505.259    642.012    505.259    508.273    505.259
 64.070    741.000    693.609     47.391    505.360    690.623    505.360    508.284    505.360
 64.170    762.026    754.974      7.052    505.462    752.051    505.462    508.302    505.462
 64.270    843.000    825.662     17.338    505.563    822.795    505.563    508.327    505.563
 64.370    862.436    898.436    -36.000    505.665    895.622    505.665    508.358    505.665
 64.470   1015.973    962.585     53.388    505.767    959.827    505.767    508.394    505.767
 64.570    975.788   1006.188    -30.399    505.869   1003.492    505.869    508.435    505.869
 64.670    971.617   1020.751    -49.134    505.970   1018.126    505.970    508.481    505.970
 64.770    996.000   1004.999     -8.999    506.072   1002.449    506.072    508.531    506.072
 64.870    905.443    964.406    -58.964    506.174    961.932    506.174    508.586    506.174
 64.970    966.000    908.241     57.759    506.276    905.839    506.276    508.644    506.276
 65.070    855.000    846.518      8.482    506.377    844.180    506.377    508.705    506.377
 65.170    778.796    787.309     -8.513    506.479    785.026    506.479    508.770    506.479
 65.270    753.283    735.243     18.040    506.581    733.005    506.581    508.838    506.581
 65.370    661.000    691.748    -30.748    506.682    689.546    506.682    508.909    506.682
 65.470    576.000    656.429    -80.429    506.784    654.256    506.784    508.983    506.784
 65.570    609.000    628.358    -19.358    506.885    626.206    506.885    509.060    506.885
 65.670    624.000    606.559     17.441    506.986    604.423    506.986    509.139    506.986
 65.770    548.000    590.060    -42.060    507.088    587.939    507.088    509.221    507.088
 65.870    595.000    577.952     17.048    507.189    575.843    507.189    509.305    507.189
 65.970    533.000    569.438    -36.438    507.290    567.340    507.290    509.392    507.290
 66.070    589.204    563.847     25.357    507.391    561.758    507.391    509.481    507.391
 66.170    561.000    560.618      0.382    507.491    558.537    507.491    509.572    507.491
 66.270    557.000    559.296     -2.296    507.592    557.222    507.592    509.666    507.592
 66.370    560.000    559.545      0.455    507.692    557.475    507.692    509.761    507.692
 66.470    580.000    561.183     18.817    507.793    559.116    507.793    509.859    507.793
 66.570    563.000    564.247     -1.247    507.893    562.181    507.893    509.959    507.893
 66.670    579.589    569.107     10.482    507.992    567.039    507.992    510.061    507.992
 66.770    609.679    576.671     33.008    508.092    574.598    508.092    510.166    508.092
 66.870    544.000    588.727    -44.727    508.191    586.647    508.191    510.272    508.191
 66.970    623.728    608.422     15.306    508.291    606.330    508.291    510.381    508.291
 67.070    626.000    640.768    -14.768    508.390    638.661    508.390    510.492    508.390
 67.170    736.724    692.950     43.774    508.488    690.824    508.488    510.606    508.488
 67.270    785.435    774.045     11.390    508.587    771.896    508.587    510.722    508.587
 67.370    901.000    893.716      7.284    508.685    891.543    508.685    510.840    508.685
 67.470   1066.382   1059.669      6.713    508.783   1057.471    508.783    510.962    508.783
 67.570   1284.908   1274.086     10.822    508.880   1271.867    508.880    511.085    508.880
 67.670   1517.000   1529.865    -12.865    508.978   1527.634    508.978    511.212    508.978
 67.770   1798.474   1807.792     -9.318    509.075   1805.559    509.075    511.342    509.075
 67.870   2049.650   2075.727    -26.076    509.171   2073.506    509.171    511.475    509.171
 67.970   2254.588   2291.251    -36.663    509.268   2289.055    509.268    511.612    509.268
 68.070   2423.974   2410.638     13.335    509.364   2408.469    509.364    511.752    509.364
 68.170   2349.103   2405.317    -56.213    509.459   2403.163    509.459    511.896    509.459
 68.270   2442.000   2276.741    165.259    509.554   2274.572    509.554    512.044    509.554
 68.370   2045.000   2055.493    -10.493    509.649   2053.273    509.649    512.196    509.649
 68.470   1857.000   1785.675     71.325    509.744   1783.370    509.744    512.354    509.744
 68.570   1507.870   1509.027     -1.156    509.838   1506.611    509.838    512.516    509.838
 68.670   1332.000   1256.626     75.374    509.932   1254.085    509.932    512.685    509.932
 68.770   1024.000   1046.601    -22.601    510.025   1043.927    510.025    512.859    510.025
 68.870    856.000    885.141    -29.141    510.118    882.333    510.118    513.041    510.118
 68.970    772.000    769.456      2.544    510.210    766.515    510.210    513.230    510.210
 69.070    710.000    691.557     18.443    510.302    688.484    510.302    513.427    510.302
 69.170    602.162    641.755    -39.594    510.394    638.549    510.394    513.633    510.394
 69.270    640.000    611.099     28.901    510.485    607.757    510.485    513.849    510.485
 69.370    589.000    592.578     -3.578    510.575    589.092    510.575    514.076    510.575
 69.470    592.000    581.334     10.666    510.665    577.693    510.665    514.315    510.665
 69.570    613.652    574.318     39.334    510.755    570.511    510.755    514.568    510.755
 69.670    598.000    569.772     28.228    510.844    565.785    510.844    514.837    510.844
 69.770    595.551    566.748     28.803    510.933    562.562    510.933    515.123    510.933
 69.870    579.225    564.759     14.466    511.021    560.354    511.021    515.428    511.021
 69.970    579.000    563.564     15.436    511.108    558.919    511.108    515.755    511.108
 70.070    557.000    563.056     -6.056    511.195    558.144    511.195    516.108    511.195
 70.170    583.792    563.200     20.592    511.282    557.993    511.282    516.488    511.282
 70.270    610.285    564.031     46.254    511.368    558.495    511.368    516.902    511.368
 70.370    550.417    565.663    -15.246    511.453    559.761    511.453    517.353    511.453
 70.470    533.122    568.355    -35.233    511.538    562.042    511.538    517.848    511.538
 70.570    565.000    572.607     -7.607    511.622    565.830    511.622    518.394    511.622
 70.670    549.000    579.330    -30.330    511.705    572.027    511.705    519.001    511.705
 70.770    580.000    590.074    -10.074    511.788    582.168    511.788    519.683    511.788
 70.870    604.000    607.302     -3.302    511.870    598.697    511.870    520.457    511.870
 70.970    593.000    634.599    -41.599    511.952    625.171    511.952    521.352    511.952
 71.070    620.000    676.705    -56.705    512.033    666.286    512.033    522.410    512.033
 71.170    755.000    739.157     15.843    512.113    727.515    512.113    523.693    512.113
 71.270    834.464    827.399      7.065    512.193    814.207    512.193    525.299    512.193
 71.370    965.000    945.311     19.689    512.272    930.097    512.272    527.370    512.272
 71.470   1137.788   1093.361     44.428    512.350   1075.451    512.350    530.113    512.350
 71.570   1264.202   1266.789     -2.586    512.428   1245.232    512.428    533.808    512.428
 71.670   1457.179   1454.330      2.848    512.505   1427.816    512.505    538.819    512.505
 71.770   1618.919   1637.915    -18.997    512.581   1604.698    512.581    545.585    512.581
 71.870   1791.000   1793.932     -2.932    512.657   1751.785    512.657    554.593    512.657
 71.970   1838.513   1897.293    -58.780    512.732   1843.514    512.732    566.321    512.732
 72.070   1907.000   1929.263    -22.263    512.806   1860.759    512.806    581.156    512.806
 72.170   1938.000   1886.015     51.985    512.879   1799.495    512.879    599.286    512.879
 72.270   1859.967   1780.755     79.212    512.952   1673.042    512.952    620.588    512.952
 72.370   1664.000   1636.956     27.044    513.023   1505.436    513.023    644.498    513.023
 72.470   1478.000   1479.060     -1.060    513.095   1322.243    513.095    669.886    513.095
 72.570   1319.000   1326.483     -7.483    513.165   1144.691    513.165    694.944    513.165
 72.670   1167.000   1191.297    -24.297    513.234    987.388    513.234    717.137    513.234
 72.770   1018.739   1078.211    -59.471    513.303    858.075    513.303    733.433    513.303
 72.870    940.091    986.214    -46.123    513.371    758.553    513.371    741.026    513.371
 72.970    851.000    911.335    -60.335    513.438    686.338    513.438    738.429    513.438
 73.070    804.682    849.272    -44.590    513.504    636.572    513.504    726.198    513.504
 73.170    766.856    796.780    -29.924    513.570    603.706    513.570    706.638    513.570
 73.270    753.576    751.811      1.765    513.634    582.665    513.634    682.776    513.634
 73.370    673.000    713.162    -40.162    513.698    569.426    513.698    657.430    513.698
 73.470    614.000    680.150    -66.150    513.761    561.145    513.761    632.764    513.761
 73.570    600.000    652.402    -52.402    513.823    556.000    513.823    610.225    513.823
 73.670    638.000    629.680      8.320    513.884    552.928    513.884    590.638    513.884
 73.770    589.000    611.740    -22.740    513.944    551.360    513.944    574.329    513.944
 73.870    569.675    598.243    -28.568    514.004    551.007    514.004    561.249    514.004
 73.970    599.000    588.713     10.287    514.062    551.697    514.062    551.092    514.062
 74.070    618.000    582.541     35.459    514.120    553.266    514.120    543.414    514.120
 74.170    572.000    579.013     -7.013    514.176    555.489    514.176    537.725    514.176
 74.270    584.464    577.339      7.125    514.232    558.043    514.232    533.559    514.232
 74.370    543.257    576.688    -33.431    514.287    560.499    514.287    530.513    514.287
 74.470    575.000    576.240     -1.240    514.341    562.357    514.341    528.266    514.341
 74.570    580.126    575.276      4.851    514.394    563.137    514.394    526.577    514.394
 74.670    614.000    573.322     40.678    514.446    562.539    514.446    525.274    514.446
 74.770    654.000    570.275     83.725    514.497    560.576    514.497    524.239    514.497
 74.870    655.000    566.384     88.616    514.547    557.575    514.547    523.395    514.547
 74.970    569.000    562.110      6.890    514.596    554.050    514.596    522.689    514.596
 75.070    600.000    557.982     42.018    514.644    550.564    514.644    522.088    514.644
 75.170    613.000    554.515     58.485    514.691    547.656    514.691    521.569    514.691
 75.270    541.000    552.198    -11.198    514.737    545.831    514.737    521.117    514.737
 75.370    543.245    551.513     -8.268    514.782    545.581    514.782    520.720    514.782
 75.470    555.000    552.954      2.046    514.826    547.411    514.826    520.370    514.826
 75.570    568.000    557.043     10.957    514.869    551.848    514.869    520.060    514.869
 75.670    558.000    564.300     -6.300    514.911    559.416    514.911    519.784    514.911
 75.770    601.000    575.159     25.841    514.952    570.555    514.952    519.538    514.952
 75.870    573.315    589.835    -16.520    514.992    585.484    514.992    519.318    514.992
 75.970    613.000    608.156      4.844    515.030    604.032    515.030    519.121    515.030
 76.070    610.000    629.399    -19.399    515.068    625.481    515.068    518.943    515.068
 76.170    675.000    652.188     22.812    515.105    648.457    515.105    518.784    515.105
 76.270    627.000    674.465    -47.465    515.141    670.907    515.141    518.639    515.141
 76.370    668.000    693.599    -25.599    515.175    690.201    515.175    518.509    515.175
 76.470    700.000    706.718     -6.718    515.209    703.471    515.209    518.391    515.209
 76.570    688.000    711.423    -23.423    515.241    708.317    515.241    518.283    515.241
 76.670    692.000    706.711    -14.711    515.272    703.741    515.272    518.185    515.272
 76.770    707.000    693.464     13.536    515.302    690.621    515.302    518.096    515.302
 76.870    657.105    674.006    -16.902    515.331    671.284    515.331    518.014    515.331
 76.970    647.000    651.188     -4.188    515.359    648.576    515.359    517.940    515.359
 77.070    654.205    627.645     26.559    515.386    625.138    515.386    517.871    515.386
 77.170    561.000    605.446    -44.446    515.412    603.034    515.412    517.808    515.412
 77.270    568.000    585.965    -17.965    515.436    583.641    515.436    517.750    515.436
 77.370    559.666    569.899    -10.233    515.460    567.656    515.460    517.696    515.460
 77.470    535.000    557.365    -22.365    515.482    555.196    515.482    517.646    515.482
 77.570    564.000    548.064     15.936    515.503    545.964    515.503    517.600    515.503
 77.670    558.000    541.457     16.543    515.523    539.421    515.523    517.557    515.523
 77.770    548.537    536.917     11.621    515.541    534.940    515.541    517.516    515.541
 77.870    544.000    533.878     10.122    515.559    531.957    515.559    517.479    515.559
 77.970    498.572    531.895    -33.323    515.575    530.026    515.575    517.443    515.575
 78.070    543.613    530.591     13.022    515.590    528.770    515.590    517.410    515.590
 78.170    565.487    529.718     35.769    515.604    527.943    515.604    517.379    515.604
 78.270    553.000    529.120     23.880    515.617    527.387    515.617    517.349    515.617
 78.370    487.000    528.702    -41.702    515.629    527.009    515.629    517.321    515.629
 78.470    529.000    528.414      0.586    515.639    526.758    515.639    517.294    515.639
 78.570    504.198    528.230    -24.032    515.648    526.608    515.648    517.269    515.648
 78.670    498.000    528.148    -30.148    515.656    526.558    515.656    517.245    515.656
 78.770    516.503    528.176    -11.673    515.663    526.614    515.663    517.223    515.663
 78.870    501.000    528.329    -27.329    515.668    526.794    515.668    517.202    515.668
 78.970    518.045    528.633    -10.587    515.672    527.120    515.672    517.184    515.672
 79.070    482.000    529.115    -47.115    515.675    527.622    515.675    517.167    515.675
 79.170    555.388    529.809     25.579    515.677    528.330    515.677    517.153    515.677
 79.270    561.844    530.742     31.102    515.677    529.274    515.677    517.143    515.677
 79.370    521.000    531.945    -10.945    515.676    530.482    515.676    517.136    515.676
 79.470    527.834    533.446     -5.613    515.674    531.982    515.674    517.135    515.674
 79.570    584.000    535.281     48.719    515.671    533.810    515.671    517.138    515.671
 79.670    536.044    537.506     -1.462    515.666    536.019    515.666    517.148    515.666
 79.770    573.508    540.213     33.295    515.660    538.703    515.660    517.164    515.660
 79.870    516.000    543.551    -27.551    515.653    542.012    515.653    517.186    515.653
 79.970    537.157    547.758    -10.601    515.644    546.182    515.644    517.215    515.644
 80.070    534.000    553.174    -19.174    515.635    551.556    515.635    517.248    515.635
 80.170    601.724    560.248     41.476    515.623    558.585    515.623    517.284    515.623
 80.270    584.033    569.483     14.550    515.611    567.773    515.611    517.320    515.611
 80.370    626.334    581.335     44.999    515.597    579.581    515.597    517.353    515.597
 80.470    628.000    596.093     31.907    515.582    594.302    515.582    517.378    515.582
 80.570    672.000    613.766     58.234    515.566    611.953    515.566    517.388    515.566
 80.670    652.000    634.000     18.000    515.548    632.183    515.548    517.380    515.548
 80.770    625.580    656.033    -30.453    515.529    654.233    515.529    517.349    515.529
 80.870    658.000    678.720    -20.720    515.509    676.959    515.509    517.296    515.509
 80.970    713.000    700.658     12.342    515.487    698.954    515.487    517.224    515.487
 81.070    735.000    720.385     14.615    515.464    718.752    515.464    517.138    515.464
 81.170    735.000    736.569     -1.569    515.440    735.013    515.440    517.043    515.440
 81.270    725.000    748.136    -23.136    515.414    746.660    515.414    516.944    515.414
 81.370    731.464    754.360    -22.896    515.387    752.962    515.387    516.844    515.387
 81.470    764.000    754.941      9.059    515.359    753.616    515.359    516.748    515.359
 81.570    788.015    750.020     37.995    515.329    748.762    515.329    516.655    515.329
 81.670    748.000    740.128      7.872    515.298    738.927    515.298    516.568    515.298
 81.770    776.000    726.150     49.850    515.265    724.998    515.265    516.487    515.265
 81.870    704.000    709.286     -5.286    515.232    708.175    515.232    516.412    515.232
 81.970    703.551    690.889     12.663    515.196    689.810    515.196    516.341    515.196
 82.070    688.000    672.177     15.823    515.160    671.125    515.160    516.275    515.160
 82.170    668.000    654.026     13.974    515.122    652.994    515.122    516.213    515.122
 82.270    655.000    636.913     18.087    515.083    635.897    515.083    516.154    515.083
 82.370    656.000    621.035     34.965    515.042    620.030    515.042    516.098    515.042
 82.470    611.000    606.479      4.521    515.000    605.482    515.000    516.042    515.000
 82.570    613.741    593.353     20.388    514.956    592.361    514.956    515.988    514.956
 82.670    579.000    581.815     -2.815    514.912    580.826    514.912    515.934    514.912
 82.770    609.000    572.041     36.959    514.865    571.053    514.865    515.880    514.865
 82.870    610.000    564.188     45.812    514.818    563.199    514.818    515.826    514.818
 82.970    567.000    558.377      8.623    514.769    557.386    514.769    515.771    514.769
 83.070    576.986    554.676     22.311    514.718    553.682    514.718    515.716    514.718
 83.170    518.000    553.081    -35.081    514.667    552.084    514.667    515.660    514.667
 83.270    574.657    553.493     21.164    514.613    552.492    514.613    515.604    514.613
 83.370    526.006    555.699    -29.692    514.559    554.693    514.559    515.546    514.559
 83.470    545.000    559.357    -14.357    514.503    558.347    514.503    515.488    514.503
 83.570    531.000    564.002    -33.002    514.446    562.987    514.446    515.429    514.446
 83.670    566.000    569.056     -3.056    514.387    568.036    514.387    515.369    514.387
 83.770    521.000    573.858    -52.858    514.327    572.835    514.327    515.307    514.327
 83.870    552.000    577.721    -25.721    514.265    576.696    514.265    515.245    514.265
 83.970    591.359    580.017     11.342    514.202    578.991    514.202    515.182    514.202
 84.070    577.000    580.307     -3.307    514.138    579.281    514.138    515.118    514.138
 84.170    567.799    578.458    -10.659    514.072    577.435    514.072    515.053    514.072
 84.270    529.587    574.676    -45.089    514.005    573.656    514.005    514.986    514.005
 84.370    588.000    569.420     18.580    513.936    568.403    513.936    514.919    513.936
 84.470    575.000    563.264     11.736    513.866    562.251    513.866    514.851    513.866
 84.570    566.000    556.776      9.224    513.794    555.766    513.794    514.781    513.794
 84.670    525.213    550.444    -25.230    513.722    549.436    513.722    514.711    513.722
 84.770    533.345    544.636    -11.291    513.647    543.629    513.647    514.639    513.647
 84.870    576.663    539.592     37.072    513.572    538.585    513.572    514.566    513.572
 84.970    517.242    535.426    -18.184    513.495    534.419    513.495    514.493    513.495
 85.070    518.000    532.150    -14.150    513.416    531.141    513.416    514.418    513.416
 85.170    501.726    529.697    -27.971    513.336    528.686    513.336    514.342    513.336
 85.270    531.230    527.961      3.269    513.255    526.945    513.255    514.265    513.255
 85.370    505.000    526.820    -21.820    513.172    525.800    513.172    514.188    513.172
 85.470    542.000    526.165     15.835    513.088    525.139    513.088    514.109    513.088
 85.570    543.498    525.910     17.588    513.002    524.879    513.002    514.029    513.002
 85.670    518.000    526.008     -8.008    512.915    524.970    512.915    513.948    512.915
 85.770    558.460    526.452     32.008    512.827    525.407    512.827    513.866    512.827
 85.870    545.000    527.278     17.722    512.737    526.225    512.737    513.783    512.737
 85.970    545.000    528.568     16.432    512.646    527.506    512.646    513.699    512.646
 86.070    515.344    530.445    -15.101    512.553    529.372    512.553    513.614    512.553
 86.170    512.000    533.068    -21.068    512.459    531.983    512.459    513.528    512.459
 86.270    574.373    536.620     37.753    512.364    535.522    512.364    513.441    512.364
 86.370    508.000    541.289    -33.289    512.267    540.176    512.267    513.353    512.267
 86.470    589.656    547.240     42.417    512.169    546.110    512.169    513.264    512.169
 86.570    549.000    554.576     -5.576    512.069    553.427    512.069    513.175    512.069
 86.670    627.000    563.302     63.698    511.968    562.132    511.968    513.084    511.968
 86.770    559.000    573.279    -14.279    511.865    572.087    511.865    512.993    511.865
 86.870    594.990    584.199     10.791    511.762    582.982    511.762    512.901    511.762
 86.970    584.000    595.560    -11.560    511.656    594.320    511.656    512.808    511.656
 87.070    618.000    606.678     11.322    511.550    605.414    511.550    512.714    511.550
 87.170    645.346    616.704     28.642    511.442    615.417    511.442    512.619    511.442
 87.270    659.203    624.735     34.467    511.332    623.429    511.332    512.524    511.332
 87.370    669.000    629.928     39.072    511.221    628.606    511.221    512.428    511.221
 87.470    674.000    631.685     42.315    511.109    630.350    511.109    512.331    511.109
 87.570    671.278    629.853     41.426    510.996    628.508    510.996    512.234    510.996
 87.670    579.000    624.760    -45.760    510.881    623.409    510.881    512.136    510.881
 87.770    610.866    617.115     -6.249    510.764    615.758    510.764    512.038    510.764
 87.870    626.054    607.832     18.222    510.646    606.470    510.646    511.939    510.646
 87.970    549.669    597.878    -48.209    510.527    596.510    510.527    511.840    510.527
 88.070    568.000    588.170    -20.170    510.407    586.794    510.407    511.740    510.407
 88.170    590.000    579.503     10.497    510.285    578.116    510.285    511.640    510.285
 88.270    602.000    572.505     29.495    510.162    571.106    510.162    511.540    510.162
 88.370    613.000    567.610     45.390    510.037    566.196    510.037    511.440    510.037
 88.470    554.847    565.050    -10.203    509.911    563.619    509.911    511.340    509.911
 88.570    611.002    564.857     46.145    509.784    563.408    509.784    511.239    509.784
 88.670    534.773    566.877    -32.105    509.656    565.407    509.656    511.139    509.656
 88.770    587.000    570.785     16.215    509.526    569.293    509.526    511.040    509.526
 88.870    550.000    576.109    -26.109    509.394    574.593    509.394    510.940    509.394
 88.970    614.296    582.252     32.044    509.262    580.710    509.262    510.841    509.262
 89.070    570.330    588.527    -18.196    509.128    586.956    509.128    510.743    509.128
 89.170    581.000    594.192    -13.192    508.993    592.591    508.993    510.646    508.993
 89.270    594.781    598.521     -3.740    508.856    596.885    508.856    510.549    508.856
 89.370    625.976    600.889     25.087    508.718    599.215    508.718    510.454    508.718
 89.470    608.000    600.899      7.101    508.579    599.182    508.579    510.360    508.579
 89.570    571.000    598.468    -27.468    508.438    596.702    508.438    510.268    508.438
 89.670    547.000    593.834    -46.834    508.296    592.014    508.296    510.178    508.296
 89.770    574.000    587.476    -13.476    508.153    585.597    508.153    510.090    508.153
 89.870    600.730    579.989     20.741    508.009    578.045    508.009    510.005    508.009
 89.970    550.000    571.972    -21.972    507.863    569.958    507.863    509.924    507.863
 90.070    569.000    563.960      5.040    507.716    561.871    507.716    509.845    507.716
 90.170    548.000    556.387     -8.387    507.568    554.216    507.568    509.771    507.568
 90.270    507.746    549.566    -41.821    507.418    547.308    507.418    509.702    507.418
 90.370    505.000    543.689    -38.689    507.268    541.337    507.268    509.639    507.268
 90.470    546.630    538.837      7.794    507.115    536.384    507.115    509.584    507.115
 90.570    508.000    535.000    -27.000    506.962    532.437    506.962    509.537    506.962
 90.670    533.000    532.107      0.893    506.808    529.422    506.808    509.501    506.808
 90.770    554.000    530.047     23.953    506.652    527.225    506.652    509.479    506.652
 90.870    542.000    528.698     13.302    506.495    525.722    506.495    509.474    506.495
 90.970    563.287    527.946     35.342    506.336    524.791    506.336    509.492    506.336
 91.070    553.000    527.664     25.336    506.177    524.302    506.177    509.539    506.177
 91.170    508.000    527.869    -19.869    506.016    524.261    506.016    509.623    506.016
 91.270    553.200    528.545     24.655    505.854    524.641    505.854    509.756    505.854
 91.370    532.000    529.708      2.292    505.691    525.447    505.691    509.949    505.691
 91.470    528.000    531.440     -3.440    505.527    526.744    505.527    510.219    505.527
 91.570    543.000    533.870      9.130    505.361    528.641    505.361    510.585    505.361
 91.670    579.599    537.171     42.428    505.195    531.291    505.195    511.068    505.195
 91.770    570.717    541.556     29.162    505.027    534.882    505.027    511.691    505.027
 91.870    517.139    547.262    -30.123    504.858    539.627    504.858    512.479    504.858
 91.970    517.000    554.540    -37.540    504.688    545.753    504.688    513.458    504.688
 92.070    574.226    563.626     10.600    504.516    553.472    504.516    514.649    504.516
 92.170    572.000    574.721     -2.721    504.344    562.965    504.344    516.073    504.344
 92.270    566.000    587.955    -21.955    504.170    574.350    504.170    517.742    504.170
 92.370    572.000    603.361    -31.361    503.996    587.656    503.996    519.661    503.996
 92.470    624.000    620.846      3.154    503.820    602.796    503.820    521.823    503.820
 92.570    669.757    640.168     29.589    503.643    619.551    503.643    524.206    503.643
 92.670    655.000    660.930     -5.930    503.465    637.562    503.465    526.772    503.465
 92.770    691.000    682.578      8.422    503.286    656.332    503.286    529.464    503.286
 92.870    701.000    704.399     -3.399    503.105    675.230    503.105    532.201    503.105
 92.970    711.664    725.592    -13.927    502.924    693.563    502.924    534.875    502.924
 93.070    738.000    745.364     -7.364    502.742    710.670    502.742    537.356    502.742
 93.170    756.000    763.058     -7.058    502.558    726.049    502.558    539.487    502.558
 93.270    787.000    778.269      8.731    502.374    739.458    502.374    541.104    502.374
 93.370    818.000    790.882     27.118    502.189    750.932    502.189    542.059    502.189
 93.470    806.000    801.029      4.971    502.002    760.709    502.002    542.245    502.002
 93.570    778.303    809.014    -30.711    501.815    769.125    501.815    541.628    501.815
 93.670    857.000    815.242     41.758    501.626    776.541    501.626    540.254    501.626
 93.770    860.000    820.214     39.786    501.437    783.345    501.437    538.237    501.437
 93.870    819.000    824.536     -5.536    501.246    789.987    501.246    535.729    501.246
 93.970    812.462    828.901    -16.439    501.055    796.998    501.055    532.893    501.055
 94.070    820.020    833.999    -13.979    500.862    804.914    500.862    529.886    500.862
 94.170    839.000    840.341     -1.341    500.669    814.116    500.669    526.834    500.669
 94.270    848.718    848.089      0.629    500.475    824.665    500.475    523.842    500.475
 94.370    895.000    856.942     38.058    500.280    836.182    500.280    520.985    500.280
 94.470    881.000    866.120     14.880    500.083    847.832    500.083    518.320    500.083
 94.570    894.000    874.420     19.580    499.886    858.379    499.886    515.882    499.886
 94.670    924.657    880.366     44.291    499.688    866.325    499.688    513.689    499.688
 94.770    892.000    882.419      9.581    499.490    870.128    499.490    511.748    499.490
 94.870    888.653    879.275      9.378    499.290    868.488    499.290    510.053    499.290
 94.970    841.380    870.159    -28.779    499.089    860.644    499.089    508.589    499.089
 95.070    904.836    855.042     49.795    498.888    846.585    498.888    507.337    498.888
 95.170    798.044    834.653    -36.608    498.686    827.064    498.686    506.275    498.686
 95.270    846.441    810.317     36.123    498.483    803.429    498.483    505.376    498.483
 95.370    784.527    783.774      0.753    498.279    777.445    498.279    504.617    498.279
 95.470    764.588    756.881      7.708    498.074    750.991    498.074    503.975    498.074
 95.570    791.000    731.493     59.507    497.869    725.945    497.869    503.428    497.869
 95.670    739.000    709.366     29.634    497.663    704.078    497.663    502.960    497.663
 95.770    708.295    692.089     16.205    497.456    686.996    497.456    502.553    497.456
 95.870    680.749    681.058     -0.309    497.248    676.108    497.248    502.197    497.248
 95.970    686.092    677.464      8.628    497.040    672.614    497.040    501.882    497.040
 96.070    652.469    682.298    -29.828    496.831    677.514    496.831    501.598    496.831
 96.170    684.495    696.352    -11.857    496.621    691.606    496.621    501.342    496.621
 96.270    697.000    720.203    -23.203    496.410    715.471    496.410    501.107    496.410
 96.370    744.000    754.173    -10.173    496.199    749.433    496.199    500.892    496.199
 96.470    838.583    798.254     40.330    495.987    793.489    495.987    500.694    495.987
 96.570    793.000    852.019    -59.019    495.775    847.213    495.775    500.511    495.775
 96.670    965.718    914.519     51.199    495.562    909.658    495.562    500.342    495.562
 96.770   1004.074    984.199     19.875    495.348    979.270    495.348    500.187    495.348
 96.870   1040.000   1058.844    -18.844    495.134   1053.835    495.134    500.045    495.134
 96.970   1141.000   1135.552      5.448    494.919   1130.451    494.919    499.917    494.919
 97.070   1258.403   1210.786     47.616    494.703   1205.585    494.703    499.803    494.703
 97.170   1292.000   1280.498     11.502    494.487   1275.184    494.487    499.703    494.487
 97.270   1346.011   1340.363      5.648    494.271   1334.926    494.271    499.618    494.271
 97.370   1330.885   1386.194    -55.309    494.053   1380.623    494.053    499.548    494.053
 97.470   1433.000   1414.525     18.475    493.836   1408.806    493.836    499.496    493.836
 97.570   1468.437   1423.231     45.206    493.618   1417.347    493.618    499.463    493.618
 97.670   1396.000   1411.957    -15.957    493.399   1405.889    493.399    499.451    493.399
 97.770   1314.000   1382.137    -68.137    493.180   1375.858    493.180    499.463    493.180
 97.870   1343.689   1336.620      7.069    492.961   1330.101    492.961    499.502    492.961
 97.970   1330.000   1279.112     50.888    492.741   1272.317    492.741    499.572    492.741
 98.070   1276.000   1213.668     62.332    492.520   1206.553    492.520    499.681    492.520
 98.170   1193.000   1144.318     48.682    492.300   1136.833    492.300    499.837    492.300
 98.270   1102.698   1074.830     27.868    492.078   1066.914    492.078    500.050    492.078
 98.370   1016.000   1008.565      7.435    491.857   1000.142    491.857    500.333    491.857
 98.470    918.000    948.400    -30.400    491.635    939.378    491.635    500.706    491.635
 98.570    879.000    896.708    -17.708    491.413    886.973    491.413    501.191    491.413
 98.670    902.000    855.372     46.628    491.191    844.780    491.191    501.817    491.191
 98.770    838.000    825.832     12.168    490.968    814.206    490.968    502.619    490.968
 98.870    797.000    809.153    -12.153    490.745    796.274    490.745    503.639    490.745
 98.970    844.185    806.084     38.101    490.522    791.682    490.522    504.929    490.522
 99.070    823.000    817.165      5.835    490.298    800.912    490.298    506.547    490.298
 99.170    869.000    842.703     26.297    490.074    824.209    490.074    508.558    490.074
 99.270    832.000    882.789    -50.789    489.850    861.588    489.850    511.033    489.850
 99.370    959.000    937.261     21.739    489.626    912.817    489.626    514.047    489.626
 99.470   1031.000   1005.639     25.361    489.402    977.340    489.402    517.676    489.402
 99.570   1012.000   1087.030    -75.030    489.178   1054.193    489.178    521.989    489.178
 99.670   1190.000   1180.034      9.966    488.953   1141.915    488.953    527.050    488.953
 99.770   1252.000   1282.658    -30.658    488.728   1238.467    488.728    532.904    488.728
 99.870   1492.000   1392.258     99.742    488.504   1341.180    488.504    539.576    488.504
 99.970   1501.612   1505.524     -3.913    488.279   1446.749    488.279    547.064    488.279
100.070   1659.000   1618.560     40.440    488.054   1551.310    488.054    555.332    488.054
100.170   1674.185   1727.061    -52.876    487.829   1650.637    487.829    564.303    487.829
100.270   1892.000   1826.633     65.367    487.604   1740.461    487.604    573.852    487.604
100.370   1940.000   1913.174     26.826    487.380   1816.854    487.380    583.801    487.380
100.470   2025.000   1983.202     41.798    487.155   1876.568    487.155    593.915    487.155
100.570   2005.771   2034.007    -28.236    486.930   1917.192    486.930    603.895    486.930
100.670   2114.968   2063.657     51.311    486.706   1937.154    486.706    613.380    486.706
100.770   2066.568   2070.964     -4.396    486.481   1935.686    486.481    621.948    486.481
100.870   2033.000   2055.603    -22.603    486.257   1912.917    486.257    629.144    486.257
100.970   2028.000   2018.367      9.633    486.032   1870.094    486.032    634.516    486.032
101.070   1876.858   1961.419    -84.561    485.808   1809.765    485.808    637.676    485.808
101.170   1930.000   1888.296     41.704    485.584   1735.724    485.584    638.367    485.584
101.270   1838.000   1803.585     34.415    485.361   1652.631    485.361    636.519    485.361
101.370   1734.000   1712.370     21.630    485.137   1565.441    485.137    632.259    485.137
101.470   1605.057   1619.641    -14.584    484.914   1478.846    484.914    625.887    484.914
101.570   1472.000   1529.819    -57.819    484.691   1396.856    484.691    617.817    484.691
101.670   1441.000   1446.456     -5.456    484.468   1322.562    484.468    608.509    484.468
101.770   1346.965   1372.067    -25.102    484.246   1258.032    484.246    598.412    484.246
101.870   1252.123   1308.091    -55.967    484.024   1204.300    484.024    587.931    484.024
101.970   1236.000   1254.920    -18.920    483.802   1161.415    483.802    577.411    483.802
102.070   1194.000   1211.994    -17.994    483.581   1128.537    483.581    567.132    483.581
102.170   1114.000   1177.935    -63.935    483.360   1104.071    483.360    557.310    483.360
102.270   1113.000   1150.730    -37.730    483.140   1085.842    483.140    548.109    483.140
102.370   1076.000   1127.951    -51.951    482.920   1071.313    482.920    539.637    482.920
102.470   1164.000   1107.034     56.966    482.701   1057.852    482.701    531.960    482.701
102.570   1034.000   1085.584    -51.584    482.482   1043.040    482.482    525.105    482.482
102.670   1092.000   1061.687     30.313    482.263   1024.967    482.263    519.065    482.263
102.770   1000.000   1034.138    -34.138    482.045   1002.458    482.045    513.807    482.045
102.870    986.000   1002.513    -16.513    481.828    975.143    481.828    509.280    481.828
102.970    939.701    967.091    -27.390    481.612    943.364    481.612    505.419    481.612
103.070    898.000    928.655    -30.655    481.396    907.978    481.396    502.152    481.396
103.170    873.641    888.278    -14.637    481.180    870.132    481.180    499.402    481.180
103.270    842.490    847.141     -4.652    480.966    831.081    480.966    497.096    480.966
103.370    789.106    806.400    -17.294    480.752    792.052    480.752    495.165    480.752
103.470    765.533    767.098     -1.565    480.539    754.151    480.539    493.544    480.539
103.570    686.540    730.110    -43.570    480.326    718.310    480.326    492.178    480.326
103.670    747.000    696.107     50.893    480.115    685.250    480.115    491.018    480.115
103.770    630.000    665.545    -35.545    479.904    655.464    479.904    490.024    479.904
103.870    600.000    638.664    -38.664    479.694    629.229    479.694    489.162    479.694
103.970    575.875    615.514    -39.639    479.485    606.620    479.485    488.406    479.485
104.070    621.000    595.975     25.025    479.277    587.539    479.277    487.734    479.277
104.170    651.000    579.801     71.199    479.069    571.758    479.069    487.130    479.069
104.270    582.000    566.661     15.339    478.863    558.957    478.863    486.580    478.863
104.370    572.000    556.194     15.806    478.658    548.788    478.658    486.074    478.658
104.470    519.000    548.016    -29.016    478.454    540.870    478.454    485.606    478.454
104.570    520.000    541.756    -21.756    478.250    534.843    478.250    485.168    478.250
104.670    561.000    537.086     23.914    478.048    530.379    478.048    484.757    478.048
104.770    547.000    533.722     13.278    477.847    527.201    477.847    484.370    477.847
104.870    544.000    531.437     12.563    477.647    525.080    477.647    484.002    477.647
104.970    495.493    530.056    -34.563    477.448    523.848    477.448    483.654    477.448
105.070    577.000    529.462     47.538    477.251    523.388    477.251    483.322    477.251
105.170    560.057    529.586     30.470    477.054    523.631    477.054    483.005    477.054
105.270    530.000    530.406     -0.406    476.859    524.556    476.859    482.702    476.859
105.370    515.448    531.939    -16.491    476.665    526.182    476.665    482.413    476.665
105.470    559.000    534.236     24.764    476.472    528.562    476.472    482.136    476.472
105.570    578.000    537.377     40.623    476.281    531.775    476.281    481.871    476.281
105.670    508.828    541.456    -32.628    476.091    535.917    476.091    481.617    476.091
105.770    570.302    546.574     23.728    475.903    541.087    475.903    481.373    475.903
105.870    530.344    552.819    -22.475    475.715    547.375    475.715    481.140    475.715
105.970    514.891    560.256    -45.365    475.530    554.847    475.530    480.916    475.530
106.070    538.000    568.910    -30.910    475.346    563.527    475.346    480.702    475.346
106.170    563.809    578.753    -14.944    475.163    573.390    475.163    480.497    475.163
106.270    575.000    589.699    -14.699    474.982    584.347    474.982    480.301    474.982
106.370    566.000    601.590    -35.590    474.802    596.244    474.802    480.113    474.802
106.470    597.000    614.207    -17.207    474.624    608.858    474.624    479.934    474.624
106.570    599.000    627.256    -28.256    474.448    621.900    474.448    479.763    474.448
106.670    637.000    640.389     -3.389    474.273    635.018    474.273    479.601    474.273
106.770    633.228    653.208    -19.980    474.100    647.817    474.100    479.446    474.100
106.870    649.911    665.287    -15.375    473.929    659.870    473.929    479.300    473.929
106.970    638.000    676.196    -38.196    473.760    670.748    473.760    479.162    473.760
107.070    642.252    685.542    -43.290    473.592    680.057    473.592    479.032    473.592
107.170    688.534    693.016     -4.482    473.426    687.490    473.426    478.910    473.426
107.270    672.000    698.444    -26.444    473.262    692.870    473.262    478.796    473.262
107.370    631.000    701.824    -70.824    473.100    696.197    473.100    478.691    473.100
107.470    705.618    703.336      2.281    472.940    697.649    472.940    478.594    472.940
107.570    725.693    703.313     22.379    472.782    697.560    472.782    478.506    472.782
107.670    698.335    702.186     -3.851    472.626    696.361    472.626    478.426    472.626
107.770    655.000    700.420    -45.420    472.472    694.516    472.472    478.356    472.472
107.870    655.000    698.453    -43.453    472.320    692.462    472.320    478.294    472.320
107.970    699.828    696.652      3.176    472.170    690.567    472.170    478.242    472.170
108.070    709.000    695.283     13.717    472.022    689.097    472.022    478.200    472.022
108.170    703.000    694.492      8.508    471.876    688.197    471.876    478.167    471.876
108.270    730.324    694.297     36.027    471.733    687.884    471.733    478.145    471.733
108.370    698.139    694.585      3.554    471.592    688.046    471.592    478.134    471.592
108.470    726.252    695.127     31.125    471.453    688.452    471.453    478.134    471.453
108.570    741.678    695.590     46.088    471.316    688.771    471.316    478.145    471.316
108.670    737.372    695.577     41.795    471.182    688.604    471.182    478.168    471.182
108.770    656.652    694.665    -38.013    471.051    687.526    471.051    478.204    471.051
108.870    665.000    692.465    -27.465    470.921    685.150    470.921    478.253    470.921
108.970    692.000    688.682      3.318    470.794    681.179    470.794    478.316    470.794
109.070    684.000    683.158      0.842    470.670    675.456    470.670    478.394    470.670
109.170    687.362    675.898     11.464    470.548    667.981    470.548    478.487    470.548
109.270    635.356    667.051    -31.695    470.429    658.907    470.429    478.596    470.429
109.370    620.000    656.884    -36.884    470.312    648.497    470.312    478.722    470.312
109.470    635.612    645.733    -10.121    470.198    637.087    470.198    478.867    470.198
109.570    666.000    633.964     32.036    470.087    625.041    470.087    479.031    470.087
109.670    676.000    621.941     54.059    469.978    612.723    469.978    479.216    469.978
109.770    612.000    609.983      2.017    469.872    600.450    469.872    479.423    469.872
109.870    615.478    598.424     17.054    469.769    588.554    469.769    479.655    469.769
109.970    616.000    587.540     28.460    469.669    577.310    469.669    479.914    469.669
110.070    557.000    577.519    -20.519    469.572    566.901    469.572    480.202    469.572
110.170    572.515    568.510      4.005    469.478    557.475    469.478    480.523    469.478
110.270    592.000    560.611     31.389    469.386    549.126    469.386    480.880    469.386
110.370    536.000    553.872    -17.872    469.298    541.897    469.298    481.278    469.298
110.470    584.000    548.294     35.706    469.213    535.788    469.213    481.724    469.213
110.570    572.051    543.848     28.204    469.130    530.757    469.130    482.224    469.130
110.670    515.000    540.473    -25.473    469.051    526.738    469.051    482.787    469.051
110.770    559.778    538.091     21.687    468.975    523.641    468.975    483.425    468.975
110.870    507.503    536.617    -29.113    468.902    521.367    468.902    484.150    468.902
110.970    540.380    535.960      4.420    468.833    519.809    468.833    484.981    468.833
111.070    530.000    536.037     -6.037    468.767    518.863    468.767    485.936    468.767
111.170    569.000    536.771     32.229    468.704    518.429    468.704    487.041    468.704
111.270    528.000    538.101    -10.101    468.644    518.416    468.644    488.323    468.644
111.370    531.000    539.980     -8.980    468.588    518.743    468.588    489.819    468.588
111.470    521.321    542.379    -21.058    468.535    519.338    468.535    491.569    468.535
111.570    564.000    545.283     18.717    468.486    520.143    468.486    493.619    468.486
111.670    527.605    548.701    -21.096    468.441    521.110    468.441    496.023    468.441
111.770    570.000    552.653     17.347    468.399    522.202    468.399    498.842    468.399
111.870    550.000    557.182     -7.182    468.360    523.392    468.360    502.142    468.360
111.970    585.000    562.342     22.658    468.325    524.666    468.325    505.992    468.325
112.070    554.835    568.216    -13.381    468.294    526.020    468.294    510.480    468.294
112.170    538.000    574.886    -36.886    468.267    527.460    468.267    515.684    468.267
112.270    583.000    582.453      0.547    468.244    529.000    468.244    521.686    468.244
112.370    599.000    591.020      7.980    468.224    530.664    468.224    528.569    468.224
112.470    613.000    600.698     12.302    468.208    532.483    468.208    536.412    468.208
112.570    562.000    611.599    -49.599    468.197    534.498    468.197    545.286    468.197
112.670    607.000    623.833    -16.833    468.189    536.758    468.189    555.252    468.189
112.770    674.697    637.508     37.190    468.185    539.328    468.185    566.352    468.185
112.870    666.000    652.730     13.270    468.185    542.291    468.185    578.612    468.185
112.970    695.794    669.607     26.187    468.190    545.752    468.190    592.031    468.190
113.070    715.547    688.249     27.298    468.198    549.851    468.198    606.581    468.198
113.170    686.000    708.776    -22.776    468.211    554.772    468.211    622.198    468.211
113.270    651.000    731.322    -80.322    468.228    560.757    468.228    638.775    468.228
113.370    751.000    756.083     -5.083    468.249    568.122    468.249    656.189    468.249
113.470    790.000    783.277      6.723    468.275    577.279    468.275    674.250    468.275
113.570    811.000    813.201     -2.201    468.305    588.758    468.305    692.721    468.305
113.670    900.000    846.244     53.756    468.340    603.233    468.340    711.320    468.340
113.770    960.000    882.915     77.085    468.379    621.547    468.379    729.709    468.379
113.870    934.000    923.864     10.136    468.422    644.745    468.422    747.497    468.422
113.970    936.956    969.921    -32.964    468.470    674.092    468.470    764.245    468.470
114.070   1006.000   1022.114    -16.114    468.523    711.098    468.523    779.474    468.523
114.170   1074.716   1081.711     -6.995    468.580    757.529    468.580    792.684    468.580
114.270   1133.000   1150.243    -17.243    468.643    815.403    468.643    803.387    468.643
114.370   1230.528   1229.529      0.999    468.710    886.979    468.710    811.144    468.710
114.470   1333.000   1321.685     11.315    468.781    974.713    468.781    815.613    468.781
114.570   1437.434   1429.098      8.336    468.858   1081.200    468.858    816.587    468.858
114.670   1481.419   1554.364    -72.945    468.939   1209.080    468.939    814.021    468.939
114.770   1769.863   1700.179     69.684    469.026   1360.923    469.026    808.042    469.026
114.870   1914.000   1869.175     44.825    469.118   1539.083    469.118    798.929    469.118
114.970   2040.000   2063.715    -23.715    469.214   1745.526    469.214    787.077    469.214
115.070   2412.000   2285.662    126.338    469.316   1981.647    469.316    772.956    469.316
115.170   2614.000   2536.144     77.856    469.423   2248.079    469.423    757.063    469.423
115.270   2874.000   2815.331     58.669    469.535   2544.498    469.535    739.891    469.535
115.370   3107.239   3122.237    -14.997    469.653   2869.460    469.653    721.903    469.653
115.470   3484.643   3454.569     30.075    469.775   3220.256    469.775    703.516    469.775
115.570   3697.000   3808.624   -111.624    469.904   3592.822    469.904    685.093    469.904
115.670   4068.000   4179.252   -111.252    470.037   3981.697    470.037    666.945    470.037
115.770   4365.000   4559.875   -194.875    470.176   4380.049    470.176    649.331    470.176
115.870   4810.000   4942.582   -132.582    470.321   4779.759    470.321    632.461    470.321
115.970   5038.000   5318.292   -280.292    470.471   5171.587    470.471    616.495    470.471
116.070   5625.000   5676.988    -51.988    470.627   5545.398    470.627    601.553    470.627
116.170   6079.925   6008.043     71.882    470.788   5890.484    470.788    587.717    470.788
116.270   6294.000   6300.637     -6.637    470.956   6195.982    470.956    575.031    470.956
116.370   6633.000   6544.299     88.701    471.129   6451.405    471.129    563.510    471.129
116.470   6714.000   6729.568    -15.568    471.308   6647.304    471.308    553.141    471.308
116.570   6713.311   6848.732   -135.421    471.493   6775.999    471.493    543.889    471.493
116.670   7053.000   6896.551    156.449    471.684   6832.300    471.684    535.703    471.684
116.770   6916.000   6870.802     45.198    471.881   6814.042    471.881    528.516    471.881
116.870   6818.000   6772.535     45.465    472.083   6722.350    472.083    522.252    472.083
116.970   6620.000   6605.969     14.031    472.293   6561.515    472.293    516.832    472.293
117.070   6236.171   6377.917   -141.747    472.508   6338.432    472.508    512.171    472.508
117.170   6144.000   6097.181     46.819    472.729   6061.981    472.729    508.186    472.729
117.270   5693.000   5773.785    -80.785    472.957   5742.267    472.957    504.799    472.957
117.370   5219.000   5418.301   -199.301    473.191   5389.934    473.191    501.932    473.191
117.470   5153.049   5041.275    111.774    473.432   5015.599    473.432    499.515    473.432
117.570   4525.000   4652.785   -127.785    473.679   4629.406    473.679    497.486    473.679
117.670   4340.000   4262.102     77.898    473.933   4240.681    473.933    495.786    473.933
117.770   3899.000   3877.436     21.564    474.193   3857.689    474.193    494.365    474.193
117.870   3629.000   3505.773    123.227    474.460   3487.461    474.460    493.181    474.460
117.970   3271.000   3152.774    118.226    474.733   3135.697    474.733    492.195    474.733
118.070   3051.000   2822.753    228.247    475.013   2806.743    475.013    491.376    475.013
118.170   2612.000   2518.711     93.289    475.300   2503.633    475.300    490.697    475.300
118.270   2289.000   2242.433     46.567    475.594   2228.172    475.594    490.136    475.594
118.370   1984.000   1994.615    -10.615    475.895   1981.078    475.895    489.675    475.895
118.470   1750.000   1775.021    -25.021    476.203   1762.132    476.203    489.299    476.203
118.570   1528.333   1582.657    -54.323    476.518   1570.351    476.518    488.996    476.518
118.670   1383.000   1415.941    -32.941    476.840   1404.166    476.840    488.756    476.840
118.770   1224.000   1272.879    -48.879    477.169   1261.589    477.169    488.572    477.169
118.870   1130.000   1151.218    -21.218    477.505   1140.376    477.505    488.436    477.505
118.970   1054.148   1048.589      5.559    477.849   1038.162    477.849    488.344    477.849
119.070    959.000    962.624     -3.624    478.200    952.582    478.200    488.292    478.200
119.170    849.104    891.045    -41.942    478.558    881.363    478.558    488.277    478.558
119.270    849.000    831.735     17.265    478.924    822.389    478.924    488.296    478.924
119.370    757.000    782.772    -25.772    479.298    773.741    479.298    488.347    479.298
119.470    752.000    742.461      9.539    479.679    733.723    479.679    488.429    479.679
119.570    669.000    709.331    -40.331    480.067    700.866    480.067    488.539    480.067
119.670    702.000    682.128     19.872    480.464    673.918    480.464    488.679    480.464
119.770    644.000    659.805    -15.805    480.868    651.830    480.868    488.845    480.868
119.870    608.352    641.494    -33.142    481.280    633.736    481.280    489.040    481.280
119.970    581.826    626.489    -44.663    481.700    618.929    481.700    489.261    481.700
120.070    636.000    614.218     21.782    482.128    606.838    482.128    489.509    482.128
120.170    584.000    604.223    -20.223    482.564    597.004    482.564    489.784    482.564
120.270    588.323    596.141     -7.817    483.008    589.063    483.008    490.087    483.008
120.370    569.000    589.685    -20.685    483.460    582.730    483.460    490.417    483.460
120.470    606.000    584.629     21.371    483.920    577.777    483.920    490.775    483.920
120.570    551.000    580.797    -29.797    484.389    574.028    484.389    491.161    484.389
120.670    577.000    578.051     -1.051    484.866    571.344    484.866    491.577    484.866
120.770    557.000    576.282    -19.282    485.351    569.617    485.351    492.021    485.351
120.870    589.000    575.406     13.594    485.845    568.760    485.845    492.496    485.845
120.970    592.000    575.353     16.647    486.347    568.706    486.347    493.001    486.347
121.070    535.061    576.065    -41.005    486.858    569.395    486.858    493.536    486.858
121.170    526.000    577.492    -51.492    487.378    570.778    487.378    494.102    487.378
121.270    531.000    579.586    -48.586    487.907    572.805    487.907    494.698    487.907
121.370    554.000    582.298    -28.298    488.444    575.429    488.444    495.324    488.444
121.470    590.000    585.576      4.424    488.990    578.599    488.990    495.980    488.990
121.570    584.000    589.363     -5.363    489.545    582.258    489.545    496.666    489.545
121.670    586.000    593.594     -7.594    490.109    586.343    490.109    497.378    490.109
121.770    603.094    598.198      4.896    490.682    590.784    490.682    498.117    490.682
121.870    593.000    603.093    -10.093    491.264    595.500    491.264    498.881    491.264
121.970    638.267    608.188     30.079    491.856    600.404    491.856    499.666    491.856
122.070    623.414    613.385     10.029    492.457    605.400    492.457    500.470    492.457
122.170    641.406    618.577     22.828    493.067    610.384    493.067    501.291    493.067
122.270    611.000    623.653    -12.653    493.686    615.250    493.686    502.124    493.686
122.370    584.128    628.496    -44.368    494.315    619.884    494.315    502.965    494.315
122.470    658.000    632.992     25.008    494.954    624.176    494.954    503.809    494.954
122.570    648.099    637.028     11.071    495.602    628.020    495.602    504.652    495.602
122.670    601.257    640.502    -39.246    496.260    631.319    496.260    505.488    496.260
122.770    672.000    643.329     28.671    496.928    633.992    496.928    506.310    496.928
122.870    662.000    645.441     16.559    497.605    635.980    497.605    507.114    497.605
122.970    687.077    646.799     40.278    498.293    637.246    498.293    507.893    498.293
123.070    590.000    647.390    -57.390    498.990    637.784    498.990    508.644    498.990
123.170    695.000    647.227     47.773    499.697    637.611    499.697    509.361    499.697
123.270    669.495    646.349     23.147    500.415    636.767    500.415    510.043    500.415
123.370    619.000    644.813    -25.813    501.143    635.313    501.143    510.689    501.143
123.470    666.000    642.694     23.306    501.881    633.320    501.881    511.299    501.881
123.570    674.000    640.074     33.926    502.629    630.869    502.629    511.876    502.629
123.670    680.139    637.041     43.098    503.388    628.045    503.388    512.423    503.388
123.770    627.000    633.683     -6.683    504.157    624.932    504.157    512.945    504.157
123.870    652.000    630.086     21.914    504.937    621.610    504.937    513.447    504.937
123.970    653.000    626.332     26.668    505.727    618.155    505.727    513.935    505.727
124.070    639.000    622.492     16.508    506.528    614.634    506.528    514.415    506.528
124.170    656.714    618.631     38.083    507.340    611.105    507.340    514.891    507.340
124.270    570.027    614.801    -44.774    508.163    607.615    508.163    515.371    508.163
124.370    592.000    611.042    -19.042    508.996    604.201    508.996    515.857    508.996
124.470    608.171    607.385      0.786    509.841    600.889    509.841    516.354    509.841
124.570    565.000    603.849    -38.849    510.697    597.694    510.697    516.866    510.697
124.670    600.000    600.445     -0.445    511.564    594.624    511.564    517.397    511.564
124.770    570.140    597.176    -27.036    512.442    591.680    512.442    517.948    512.442
124.870    565.426    594.039    -28.613    513.331    588.856    513.331    518.522    513.331
124.970    622.000    591.028     30.972    514.232    586.146    514.232    519.122    514.232
