neutron_powder_diffraction_0075
R_wp: 4.410
Temperature (K): 769.491
Counts: 83326.00
Wavelength (Ã…): 2.52098
COMMENTS
Test file for demonstrating the .xyy file format in Reel1.0
END OF HEADER
   tth       Y_obs     Y_calc      Y_res    Background    Phase_1_Nuc    Phase_1_Mag    Phase_2_Nuc    Phase_2_Mag
  9.970    698.000    602.300     95.700    601.233    602.300    601.233    601.233    601.233
 10.070    571.752    603.156    -31.403    602.003    603.155    602.003    602.003    602.003
 10.170    706.000    604.008    101.992    602.759    604.008    602.759    602.759    602.759
 10.270    637.204    604.861     32.344    603.500    604.860    603.500    603.500    603.500
 10.370    621.701    605.716     15.984    604.227    605.716    604.227    604.227    604.227
 10.470    645.000    606.581     38.419    604.940    606.580    604.940    604.940    604.940
 10.570    644.000    607.456     36.544    605.638    607.456    605.638    605.638    605.638
 10.670    657.000    608.349     48.651    606.322    608.348    606.322    606.322    606.322
 10.770    673.000    609.268     63.732    606.993    609.267    606.993    606.993    606.993
 10.870    679.000    610.226     68.774    607.649    610.225    607.649    607.649    607.649
 10.970    659.000    611.238     47.762    608.292    611.237    608.292    608.292    608.292
 11.070    610.000    612.326     -2.326    608.921    612.325    608.921    608.921    608.921
 11.170    623.837    613.532     10.305    609.536    613.530    609.536    609.536    609.536
 11.270    619.000    614.987      4.013    610.138    614.984    610.138    610.138    610.138
 11.370    592.013    616.630    -24.617    610.727    616.627    610.727    610.727    610.727
 11.470    650.000    618.603     31.397    611.303    618.599    611.303    611.303    611.303
 11.570    622.326    621.313      1.013    611.865    621.308    611.865    611.865    611.865
 11.670    671.329    625.647     45.683    612.414    625.640    612.414    612.414    612.414
 11.770    630.000    633.505     -3.505    612.951    633.494    612.951    612.951    612.951
 11.870    702.000    648.028     53.972    613.474    648.009    613.474    613.474    613.474
 11.970    684.847    672.488     12.359    613.985    672.456    613.985    613.985    613.985
 12.070    725.000    707.029     17.971    614.484    706.978    614.484    614.484    614.484
 12.170    766.000    743.648     22.352    614.970    743.577    614.970    614.970    614.970
 12.270    744.000    763.528    -19.528    615.443    763.447    615.443    615.443    615.443
 12.370    752.000    751.884      0.116    615.904    751.810    615.904    615.904    615.904
 12.470    776.000    718.783     57.217    616.353    718.727    616.353    616.353    616.353
 12.570    659.000    683.689    -24.689    616.790    683.653    616.790    616.790    616.790
 12.670    616.000    657.355    -41.355    617.215    657.333    617.215    617.215    617.215
 12.770    638.155    641.357     -3.202    617.628    641.344    617.628    617.628    617.628
 12.870    650.114    632.932     17.182    618.029    632.924    618.029    618.029    618.029
 12.970    627.357    628.772     -1.415    618.418    628.767    618.418    618.418    618.418
 13.070    582.804    626.655    -43.851    618.796    626.651    618.796    618.796    618.796
 13.170    626.861    625.492      1.369    619.162    625.488    619.162    619.162    619.162
 13.270    584.576    624.766    -40.190    619.517    624.764    619.517    619.517    619.517
 13.370    646.000    624.306     21.694    619.861    624.304    619.861    619.861    619.861
 13.470    662.793    624.021     38.772    620.193    624.020    620.193    620.193    620.193
 13.570    596.000    623.858    -27.858    620.515    623.857    620.515    620.515    620.515
 13.670    638.000    623.781     14.219    620.825    623.780    620.825    620.825    620.825
 13.770    676.189    623.767     52.422    621.124    623.766    621.124    621.124    621.124
 13.870    668.574    623.798     44.776    621.413    623.797    621.413    621.413    621.413
 13.970    555.000    623.863    -68.863    621.691    623.862    621.691    621.691    621.691
 14.070    596.000    623.951    -27.951    621.958    623.950    621.958    621.958    621.958
 14.170    645.000    624.056     20.944    622.215    624.055    622.215    622.215    622.215
 14.270    617.000    624.173     -7.173    622.461    624.173    622.461    622.461    622.461
 14.370    589.000    624.299    -35.299    622.697    624.298    622.697    622.697    622.697
 14.470    641.190    624.431     16.758    622.922    624.431    622.922    622.922    622.922
 14.570    650.256    624.567     25.689    623.138    624.566    623.138    623.138    623.138
 14.670    652.212    624.700     27.512    623.343    624.700    623.343    623.343    623.343
 14.770    600.542    624.832    -24.290    623.538    624.832    623.538    623.538    623.538
 14.870    620.000    624.962     -4.962    623.724    624.961    623.724    623.724    623.724
 14.970    598.000    625.088    -27.088    623.899    625.088    623.899    623.899    623.899
 15.070    642.843    625.215     17.628    624.065    625.214    624.065    624.065    624.065
 15.170    615.436    625.375     -9.940    624.221    625.375    624.221    624.221    624.221
 15.270    569.000    625.531    -56.531    624.368    625.531    624.368    624.368    624.368
 15.370    606.000    625.642    -19.642    624.505    625.642    624.505    624.505    624.505
 15.470    579.046    625.743    -46.698    624.633    625.743    624.633    624.633    624.633
 15.570    593.000    625.841    -32.841    624.752    625.841    624.752    624.752    624.752
 15.670    617.000    625.934     -8.934    624.862    625.934    624.862    624.862    624.862
 15.770    582.000    626.016    -44.016    624.962    626.016    624.962    624.962    624.962
 15.870    616.923    626.090     -9.168    625.053    626.090    625.053    625.053    625.053
 15.970    640.234    626.158     14.076    625.136    626.158    625.136    625.136    625.136
 16.070    623.294    626.222     -2.929    625.209    626.222    625.209    625.209    625.209
 16.170    629.737    626.318      3.419    625.274    626.317    625.274    625.274    625.274
 16.270    669.000    626.392     42.608    625.330    626.392    625.330    625.330    625.330
 16.370    642.782    626.445     16.337    625.378    626.444    625.378    625.378    625.378
 16.470    558.000    626.480    -68.480    625.417    626.480    625.417    625.417    625.417
 16.570    567.000    626.504    -59.504    625.448    626.504    625.448    625.448    625.448
 16.670    568.000    626.522    -58.522    625.470    626.522    625.470    625.470    625.470
 16.770    612.484    626.542    -14.058    625.484    626.542    625.484    625.484    625.484
 16.870    571.000    626.564    -55.564    625.490    626.564    625.490    625.490    625.490
 16.970    626.000    626.561     -0.561    625.488    626.561    625.488    625.488    625.488
 17.070    608.000    626.549    -18.549    625.478    626.549    625.478    625.478    625.478
 17.170    596.047    626.530    -30.484    625.460    626.530    625.460    625.460    625.460
 17.270    615.000    626.506    -11.506    625.434    626.505    625.434    625.434    625.434
 17.370    602.000    626.485    -24.485    625.400    626.485    625.400    625.400    625.400
 17.470    587.000    626.445    -39.445    625.359    626.445    625.359    625.359    625.359
 17.570    647.000    626.398     20.602    625.310    626.398    625.310    625.310    625.310
 17.670    571.623    626.344    -54.720    625.254    626.344    625.254    625.254    625.254
 17.770    569.000    626.283    -57.283    625.190    626.283    625.190    625.190    625.190
 17.870    605.425    626.216    -20.790    625.119    626.216    625.119    625.119    625.119
 17.970    586.372    626.153    -39.781    625.040    626.153    625.040    625.040    625.040
 18.070    668.473    626.113     42.360    624.955    626.113    624.955    624.955    624.955
 18.170    589.000    626.044    -37.044    624.862    626.044    624.862    624.862    624.862
 18.270    558.000    625.956    -67.956    624.762    625.956    624.762    624.762    624.762
 18.370    639.609    625.857     13.752    624.655    625.857    624.655    624.655    624.655
 18.470    597.000    625.750    -28.750    624.541    625.750    624.541    624.541    624.541
 18.570    586.164    625.643    -39.479    624.421    625.643    624.421    624.421    624.421
 18.670    595.000    625.591    -30.591    624.294    625.591    624.294    624.294    624.294
 18.770    598.000    625.511    -27.511    624.160    625.511    624.160    624.160    624.160
 18.870    642.957    625.384     17.573    624.019    625.384    624.019    624.019    624.019
 18.970    577.953    625.247    -47.293    623.872    625.247    623.872    623.872    623.872
 19.070    581.482    625.105    -43.622    623.719    625.105    623.719    623.719    623.719
 19.170    586.000    624.969    -38.969    623.559    624.969    623.559    623.559    623.559
 19.270    600.753    624.835    -24.083    623.393    624.835    623.393    623.393    623.393
 19.370    596.729    624.717    -27.988    623.221    624.717    623.221    623.221    623.221
 19.470    583.996    624.557    -40.560    623.042    624.557    623.042    623.042    623.042
 19.570    590.000    624.386    -34.386    622.858    624.386    622.858    622.858    622.858
 19.670    638.185    624.211     13.974    622.667    624.211    622.667    622.667    622.667
 19.770    603.000    624.035    -21.035    622.471    624.035    622.471    622.471    622.471
 19.870    646.803    623.852     22.951    622.268    623.852    622.268    622.268    622.268
 19.970    569.000    623.664    -54.664    622.060    623.664    622.060    622.060    622.060
 20.070    636.903    623.468     13.435    621.847    623.468    621.847    621.847    621.847
 20.170    604.000    623.273    -19.273    621.627    623.273    621.627    621.627    621.627
 20.270    630.619    623.070      7.549    621.402    623.070    621.402    621.402    621.402
 20.370    603.000    622.860    -19.860    621.172    622.860    621.172    621.172    621.172
 20.470    632.435    622.644      9.791    620.936    622.644    620.936    620.936    620.936
 20.570    594.000    622.426    -28.426    620.694    622.426    620.694    620.694    620.694
 20.670    629.000    622.204      6.796    620.448    622.204    620.448    620.448    620.448
 20.770    592.000    621.977    -29.977    620.196    621.977    620.196    620.196    620.196
 20.870    608.000    621.744    -13.744    619.939    621.744    619.939    619.939    619.939
 20.970    603.000    621.508    -18.508    619.677    621.508    619.677    619.677    619.677
 21.070    647.783    621.269     26.514    619.410    621.269    619.410    619.410    619.410
 21.170    629.254    621.028      8.227    619.138    621.028    619.138    619.138    619.138
 21.270    569.375    620.781    -51.407    618.861    620.781    618.861    618.861    618.861
 21.370    660.811    620.532     40.279    618.579    620.532    618.579    618.579    618.579
 21.470    595.315    620.279    -24.964    618.292    620.279    618.292    618.292    618.292
 21.570    610.000    620.024    -10.024    618.001    620.024    618.001    618.001    618.001
 21.670    639.362    619.767     19.595    617.705    619.767    617.705    617.705    617.705
 21.770    605.000    619.508    -14.508    617.405    619.508    617.405    617.405    617.405
 21.870    592.753    619.247    -26.494    617.100    619.247    617.100    617.100    617.100
 21.970    633.000    618.985     14.015    616.790    618.985    616.790    616.790    616.790
 22.070    594.440    618.721    -24.282    616.477    618.722    616.477    616.477    616.477
 22.170    582.000    618.458    -36.458    616.159    618.458    616.159    616.159    616.159
 22.270    602.000    618.194    -16.194    615.836    618.195    615.836    615.836    615.836
 22.370    627.000    617.932      9.068    615.510    617.932    615.510    615.510    615.510
 22.470    622.000    617.673      4.327    615.179    617.673    615.179    615.179    615.179
 22.570    636.000    617.415     18.585    614.844    617.416    614.844    614.844    614.844
 22.670    595.000    617.161    -22.161    614.506    617.161    614.506    614.506    614.506
 22.770    602.826    616.912    -14.086    614.163    616.912    614.163    614.163    614.163
 22.870    652.712    616.669     36.042    613.817    616.670    613.817    613.817    613.817
 22.970    608.000    616.436     -8.436    613.466    616.436    613.466    613.466    613.466
 23.070    593.000    616.214    -23.214    613.112    616.214    613.112    613.112    613.112
 23.170    667.109    616.007     51.101    612.754    616.008    612.754    612.754    612.754
 23.270    652.546    615.819     36.727    612.393    615.820    612.393    612.393    612.393
 23.370    588.000    615.655    -27.655    612.028    615.656    612.028    612.028    612.028
 23.470    662.593    615.523     47.071    611.659    615.524    611.659    611.659    611.659
 23.570    603.000    615.432    -12.432    611.287    615.433    611.287    611.287    611.287
 23.670    601.858    615.396    -13.538    610.912    615.398    610.912    610.912    610.912
 23.770    636.000    615.435     20.565    610.533    615.436    610.533    610.533    610.533
 23.870    630.000    615.576     14.424    610.151    615.578    610.151    610.151    610.151
 23.970    590.000    615.866    -25.866    609.766    615.869    609.766    609.766    609.766
 24.070    672.067    616.395     55.672    609.377    616.398    609.377    609.377    609.377
 24.170    624.000    617.354      6.646    608.986    617.358    608.986    608.986    608.986
 24.270    688.000    619.213     68.787    608.591    619.219    608.591    608.591    608.591
 24.370    657.112    622.954     34.158    608.194    622.963    608.194    608.194    608.194
 24.470    679.558    630.242     49.316    607.793    630.256    607.793    607.793    607.793
 24.570    624.838    643.048    -18.210    607.389    643.072    607.389    607.389    607.389
 24.670    670.412    662.193      8.218    606.983    662.231    606.983    606.983    606.983
 24.770    703.382    684.849     18.533    606.574    684.903    606.574    606.574    606.574
 24.870    718.201    702.336     15.865    606.162    702.403    606.162    606.162    606.162
 24.970    683.000    703.889    -20.889    605.747    703.958    605.747    605.747    605.747
 25.070    656.000    688.024    -32.024    605.330    688.082    605.330    605.330    605.330
 25.170    719.470    664.750     54.719    604.910    664.791    604.910    604.910    604.910
 25.270    634.299    643.908     -9.609    604.488    643.934    604.488    604.488    604.488
 25.370    648.000    629.302     18.698    604.063    629.317    604.063    604.063    604.063
 25.470    584.689    620.547    -35.858    603.636    620.556    603.636    603.636    603.636
 25.570    608.000    615.726     -7.726    603.206    615.732    603.206    603.206    603.206
 25.670    623.477    613.048     10.430    602.774    613.052    602.774    602.774    602.774
 25.770    646.000    611.407     34.593    602.340    611.410    602.340    602.340    602.340
 25.870    681.000    610.270     70.730    601.904    610.273    601.904    601.904    601.904
 25.970    616.484    609.414      7.070    601.465    609.416    601.465    601.465    601.465
 26.070    655.000    608.743     46.257    601.025    608.744    601.025    601.025    601.025
 26.170    669.000    608.212     60.788    600.582    608.213    600.582    600.582    600.582
 26.270    654.000    607.795     46.205    600.137    607.796    600.137    600.137    600.137
 26.370    676.000    607.480     68.520    599.690    607.480    599.690    599.690    599.690
 26.470    596.645    607.261    -10.616    599.242    607.261    599.242    599.242    599.242
 26.570    650.000    607.139     42.861    598.791    607.139    598.791    598.791    598.791
 26.670    662.000    607.120     54.880    598.339    607.120    598.339    598.339    598.339
 26.770    657.000    607.217     49.783    597.885    607.217    597.885    597.885    597.885
 26.870    662.000    607.450     54.550    597.429    607.449    597.429    597.429    597.429
 26.970    688.000    607.845     80.155    596.971    607.844    596.971    596.971    596.971
 27.070    605.674    608.444     -2.769    596.512    608.443    596.512    596.512    596.512
 27.170    663.000    609.303     53.697    596.051    609.301    596.051    596.051    596.051
 27.270    600.389    610.504    -10.115    595.589    610.502    595.589    595.589    595.589
 27.370    568.039    612.173    -44.134    595.125    612.170    595.125    595.125    595.125
 27.470    561.546    614.525    -52.979    594.660    614.522    594.660    594.660    594.660
 27.570    688.000    618.016     69.984    594.193    618.012    594.193    594.193    594.193
 27.670    766.000    623.756    142.244    593.725    623.749    593.725    593.725    593.725
 27.770    617.916    634.418    -16.502    593.256    634.407    593.256    593.256    593.256
 27.870    665.862    655.414     10.448    592.785    655.395    592.785    592.785    592.785
 27.970    638.958    694.865    -55.907    592.313    694.833    592.313    592.313    592.313
 28.070    813.000    759.769     53.231    591.840    759.719    591.840    591.840    591.840
 28.170    899.000    847.349     51.651    591.366    847.283    591.366    591.366    591.366
 28.270    961.000    934.356     26.644    590.891    934.284    590.891    590.891    590.891
 28.370   1023.000    975.917     47.083    590.415    975.855    590.415    590.415    590.415
 28.470    909.960    945.394    -35.434    589.937    945.348    589.937    589.937    589.937
 28.570    836.121    876.980    -40.860    589.459    876.947    589.459    589.459    589.459
 28.670    887.000    821.274     65.726    588.980    821.249    588.980    588.980    588.980
 28.770    888.000    804.384     83.616    588.499    804.361    588.499    588.499    588.499
 28.870    819.554    825.578     -6.025    588.019    825.558    588.019    588.019    588.019
 28.970    953.000    862.006     90.994    587.537    861.994    587.537    587.537    587.537
 29.070   1007.000    876.339    130.661    587.054    876.338    587.054    587.054    587.054
 29.170    951.000    845.073    105.927    586.571    845.080    586.571    586.571    586.571
 29.270    746.626    784.383    -37.758    586.087    784.392    586.087    586.087    586.087
 29.370    851.000    722.523    128.477    585.602    722.530    585.602    585.602    585.602
 29.470    713.000    674.558     38.442    585.117    674.562    585.117    585.117    585.117
 29.570    642.405    643.166     -0.761    584.631    643.167    584.631    584.631    584.631
 29.670    728.000    624.796    103.204    584.145    624.795    584.145    584.145    584.145
 29.770    727.000    614.506    112.494    583.658    614.505    583.658    583.658    583.658
 29.870    573.857    608.525    -34.669    583.171    608.524    583.171    583.171    583.171
 29.970    714.000    604.729    109.271    582.683    604.727    582.683    582.683    582.683
 30.070    657.000    602.139     54.861    582.195    602.137    582.195    582.195    582.195
 30.170    610.249    600.372      9.878    581.707    600.369    581.707    581.707    581.707
 30.270    718.000    599.348    118.652    581.218    599.344    581.218    581.218    581.218
 30.370    657.000    599.235     57.765    580.729    599.230    580.729    580.729    580.729
 30.470    682.000    600.507     81.493    580.240    600.501    580.240    580.240    580.240
 30.570    667.000    603.995     63.005    579.751    603.985    579.751    579.751    579.751
 30.670    682.000    610.710     71.290    579.261    610.694    579.261    579.261    579.261
 30.770    667.000    621.281     45.719    578.771    621.256    578.771    578.771    578.771
 30.870    668.000    634.967     33.033    578.282    634.932    578.282    578.282    578.282
 30.970    673.000    648.347     24.653    577.792    648.304    577.792    577.792    577.792
 31.070    691.561    655.027     36.534    577.302    654.981    577.302    577.302    577.302
 31.170    728.000    650.345     77.655    576.812    650.304    576.812    576.812    576.812
 31.270    580.165    637.093    -56.928    576.323    637.062    576.323    576.323    576.323
 31.370    641.000    621.703     19.297    575.833    621.682    575.833    575.833    575.833
 31.470    667.000    608.566     58.434    575.343    608.552    575.343    575.343    575.343
 31.570    587.430    599.148    -11.718    574.854    599.139    574.854    574.854    574.854
 31.670    630.597    593.137     37.459    574.365    593.131    574.365    574.365    574.365
 31.770    626.356    589.547     36.809    573.876    589.543    573.876    573.876    573.876
 31.870    597.594    587.420     10.174    573.387    587.417    573.387    573.387    573.387
 31.970    580.515    586.105     -5.590    572.899    586.102    572.899    572.899    572.899
 32.070    606.000    585.248     20.752    572.411    585.246    572.411    572.411    572.411
 32.170    616.306    584.685     31.621    571.923    584.683    571.923    571.923    571.923
 32.270    620.000    584.349     35.651    571.436    584.347    571.436    571.436    571.436
 32.370    582.000    584.215     -2.215    570.949    584.213    570.949    570.949    570.949
 32.470    568.000    584.282    -16.282    570.462    584.280    570.462    570.462    570.462
 32.570    591.378    584.565      6.813    569.976    584.563    569.976    569.976    569.976
 32.670    557.573    585.092    -27.519    569.491    585.090    569.491    569.491    569.491
 32.770    563.000    585.908    -22.908    569.006    585.906    569.006    569.006    569.006
 32.870    536.399    587.080    -50.681    568.521    587.078    568.521    568.521    568.521
 32.970    575.000    588.706    -13.706    568.037    588.704    568.037    568.037    568.037
 33.070    592.000    590.937      1.063    567.554    590.935    567.554    567.554    567.554
 33.170    633.779    594.029     39.749    567.072    594.026    567.072    567.072    567.072
 33.270    564.000    598.475    -34.475    566.590    598.472    566.590    566.590    566.590
 33.370    593.000    605.291    -12.291    566.109    605.286    566.109    566.109    566.109
 33.470    606.000    616.520    -10.520    565.628    616.514    565.628    565.628    565.628
 33.570    651.640    635.849     15.791    565.148    635.839    565.148    565.148    565.148
 33.670    643.000    668.811    -25.811    564.670    668.796    564.670    564.670    564.670
 33.770    762.776    721.701     41.075    564.191    721.677    564.191    564.191    564.191
 33.870    805.886    798.414      7.472    563.714    798.380    563.714    563.714    563.714
 33.970    903.659    895.064      8.594    563.238    895.020    563.238    563.238    563.238
 34.070    923.570    992.822    -69.252    562.762    992.773    562.762    562.762    562.762
 34.170   1086.410   1055.259     31.151    562.288   1055.216    562.288    562.288    562.288
 34.270   1044.000   1049.002     -5.002    561.814   1048.975    561.814    561.814    561.814
 34.370    952.000    977.753    -25.753    561.342    977.742    561.342    561.342    561.342
 34.470    855.000    877.502    -22.502    560.870    877.500    560.870    560.870    560.870
 34.570    719.000    782.207    -63.207    560.400    782.209    560.400    560.400    560.400
 34.670    686.000    708.057    -22.057    559.930    708.059    559.930    559.930    559.930
 34.770    696.718    657.421     39.296    559.462    657.422    559.462    559.462    559.462
 34.870    662.000    625.801     36.199    558.995    625.801    558.995    558.995    558.995
 34.970    572.000    606.899    -34.899    558.528    606.898    558.528    558.528    558.528
 35.070    584.000    595.440    -11.440    558.063    595.439    558.063    558.063    558.063
 35.170    576.000    588.012    -12.012    557.600    588.011    557.600    557.600    557.600
 35.270    572.000    582.756    -10.756    557.137    582.755    557.137    557.137    557.137
 35.370    592.000    578.753     13.247    556.675    578.752    556.675    556.675    556.675
 35.470    531.000    575.552    -44.552    556.215    575.551    556.215    556.215    556.215
 35.570    527.263    572.914    -45.651    555.756    572.914    555.756    555.756    555.756
 35.670    524.948    570.694    -45.746    555.299    570.694    555.299    555.299    555.299
 35.770    521.000    568.794    -47.794    554.842    568.794    554.842    554.842    554.842
 35.870    563.000    567.144     -4.144    554.388    567.144    554.388    554.388    554.388
 35.970    520.000    565.694    -45.694    553.934    565.694    553.934    553.934    553.934
 36.070    574.000    564.405      9.595    553.482    564.405    553.482    553.482    553.482
 36.170    559.885    563.248     -3.363    553.031    563.248    553.031    553.031    553.031
 36.270    513.000    562.201    -49.201    552.582    562.201    552.582    552.582    552.582
 36.370    528.000    561.249    -33.249    552.134    561.248    552.134    552.134    552.134
 36.470    567.000    560.377      6.623    551.687    560.377    551.687    551.687    551.687
 36.570    546.000    559.577    -13.577    551.242    559.577    551.242    551.242    551.242
 36.670    536.139    558.843    -22.704    550.799    558.844    550.799    550.799    550.799
 36.770    542.000    558.174    -16.174    550.357    558.174    550.357    550.357    550.357
 36.870    524.535    557.570    -33.035    549.916    557.570    549.916    549.916    549.916
 36.970    572.000    557.044     14.956    549.477    557.045    549.477    549.477    549.477
 37.070    514.000    556.631    -42.631    549.040    556.631    549.040    549.040    549.040
 37.170    584.723    556.406     28.317    548.604    556.406    548.604    548.604    548.604
 37.270    509.043    556.514    -47.472    548.170    556.515    548.170    548.170    548.170
 37.370    534.458    557.180    -22.722    547.738    557.181    547.738    547.738    547.738
 37.470    543.000    558.651    -15.651    547.307    558.653    547.307    547.307    547.307
 37.570    540.000    561.058    -21.058    546.878    561.061    546.878    546.878    546.878
 37.670    555.000    564.212     -9.212    546.451    564.216    546.451    546.451    546.451
 37.770    536.000    567.333    -31.333    546.025    567.338    546.025    546.025    546.025
 37.870    541.000    569.061    -28.061    545.601    569.068    545.601    545.601    545.601
 37.970    558.000    568.346    -10.346    545.179    568.354    545.179    545.179    545.179
 38.070    573.000    565.527      7.473    544.758    565.537    544.758    544.758    544.758
 38.170    584.396    561.785     22.611    544.340    561.797    544.340    544.340    544.340
 38.270    512.120    558.076    -45.956    543.923    558.087    543.923    543.923    543.923
 38.370    593.037    554.897     38.140    543.508    554.906    543.508    543.508    543.508
 38.470    555.288    552.423      2.865    543.095    552.430    543.095    543.095    543.095
 38.570    494.000    550.605    -56.605    542.683    550.610    542.683    542.683    542.683
 38.670    591.686    549.286     42.399    542.274    549.290    542.274    542.274    542.274
 38.770    580.719    548.303     32.416    541.866    548.305    541.866    541.866    541.866
 38.870    586.000    547.533     38.467    541.460    547.534    541.460    541.460    541.460
 38.970    527.000    546.895    -19.895    541.057    546.896    541.057    541.057    541.057
 39.070    517.000    546.340    -29.340    540.655    546.341    540.655    540.655    540.655
 39.170    558.000    545.837     12.163    540.255    545.838    540.255    540.255    540.255
 39.270    498.899    545.370    -46.471    539.857    545.370    539.857    539.857    539.857
 39.370    546.537    544.929      1.608    539.461    544.929    539.461    539.461    539.461
 39.470    519.000    544.509    -25.509    539.066    544.509    539.066    539.066    539.066
 39.570    542.156    544.107     -1.950    538.674    544.107    538.674    538.674    538.674
 39.670    566.000    543.721     22.279    538.284    543.721    538.284    538.284    538.284
 39.770    549.000    543.349      5.651    537.896    543.350    537.896    537.896    537.896
 39.870    471.000    542.992    -71.992    537.510    542.993    537.510    537.510    537.510
 39.970    510.000    542.649    -32.649    537.126    542.650    537.126    537.126    537.126
 40.070    538.000    542.319     -4.319    536.744    542.320    536.744    536.744    536.744
 40.170    544.000    542.004      1.996    536.364    542.005    536.364    536.364    536.364
 40.270    502.222    541.703    -39.481    535.986    541.704    535.986    535.986    535.986
 40.370    554.000    541.418     12.582    535.611    541.419    535.611    535.611    535.611
 40.470    545.000    541.150      3.850    535.237    541.151    535.237    535.237    535.237
 40.570    500.000    540.900    -40.900    534.865    540.901    534.865    534.865    534.865
 40.670    489.000    540.671    -51.671    534.496    540.672    534.496    534.496    534.496
 40.770    530.000    540.465    -10.465    534.129    540.466    534.129    534.129    534.129
 40.870    527.000    540.286    -13.286    533.764    540.287    533.764    533.764    533.764
 40.970    504.638    540.138    -35.499    533.401    540.139    533.401    533.401    533.401
 41.070    517.000    540.026    -23.026    533.040    540.027    533.040    533.040    533.040
 41.170    529.000    539.957    -10.957    532.681    539.958    532.681    532.681    532.681
 41.270    516.009    539.941    -23.932    532.325    539.942    532.325    532.325    532.325
 41.370    531.128    539.989     -8.861    531.971    539.991    531.971    531.971    531.971
 41.470    561.276    540.118     21.159    531.619    540.120    531.619    531.619    531.619
 41.570    503.000    540.351    -37.351    531.269    540.353    531.269    531.269    531.269
 41.670    560.361    540.724     19.637    530.921    540.727    530.921    530.921    530.921
 41.770    538.000    541.301     -3.301    530.576    541.304    530.576    530.576    530.576
 41.870    507.000    542.202    -35.202    530.233    542.206    530.233    530.233    530.233
 41.970    515.000    543.662    -28.662    529.892    543.666    529.892    529.892    529.892
 42.070    521.657    546.113    -24.455    529.553    546.118    529.553    529.553    529.553
 42.170    538.000    550.272    -12.272    529.217    550.280    529.217    529.217    529.217
 42.270    533.000    557.154    -24.154    528.883    557.165    528.883    528.883    528.883
 42.370    538.000    567.889    -29.889    528.551    567.905    528.551    528.551    528.551
 42.470    538.976    583.284    -44.309    528.222    583.308    528.222    528.222    528.222
 42.570    628.768    603.128     25.640    527.895    603.162    527.895    527.895    527.895
 42.670    599.000    625.284    -26.284    527.570    625.329    527.570    527.570    527.570
 42.770    663.684    644.773     18.910    527.247    644.830    527.247    527.247    527.247
 42.870    595.000    654.396    -59.396    526.927    654.460    526.927    526.927    526.927
 42.970    645.570    649.440     -3.869    526.609    649.504    526.609    526.609    526.609
 43.070    583.000    632.371    -49.371    526.294    632.428    526.294    526.294    526.294
 43.170    574.000    610.095    -36.095    525.980    610.140    525.980    525.980    525.980
 43.270    562.000    588.564    -26.564    525.669    588.598    525.669    525.669    525.669
 43.370    610.000    570.905     39.095    525.361    570.929    525.361    525.361    525.361
 43.470    528.885    557.965    -29.080    525.055    557.982    525.055    525.055    525.055
 43.570    510.000    549.242    -39.242    524.751    549.253    524.751    524.751    524.751
 43.670    553.000    543.671      9.329    524.449    543.678    524.449    524.449    524.449
 43.770    532.000    540.167     -8.167    524.150    540.172    524.150    524.150    524.150
 43.870    523.647    537.899    -14.252    523.854    537.903    523.854    523.854    523.854
 43.970    541.000    536.333      4.667    523.559    536.337    523.559    523.559    523.559
 44.070    509.000    535.171    -26.171    523.267    535.174    523.267    523.267    523.267
 44.170    518.948    534.254    -15.306    522.978    534.257    522.978    522.978    522.978
 44.270    528.000    533.503     -5.503    522.691    533.505    522.691    522.691    522.691
 44.370    533.000    532.873      0.127    522.406    532.874    522.406    522.406    522.406
 44.470    527.000    532.335     -5.335    522.124    532.337    522.124    522.124    522.124
 44.570    530.764    531.874     -1.110    521.844    531.875    521.844    521.844    521.844
 44.670    547.000    531.474     15.526    521.566    531.475    521.566    521.566    521.566
 44.770    535.809    531.128      4.681    521.291    531.129    521.291    521.291    521.291
 44.870    554.000    530.827     23.173    521.019    530.828    521.019    521.019    521.019
 44.970    533.000    530.566      2.434    520.748    530.567    520.748    520.748    520.748
 45.070    482.241    530.342    -48.101    520.481    530.343    520.481    520.481    520.481
 45.170    528.000    530.152     -2.152    520.215    530.153    520.215    520.215    520.215
 45.270    545.000    529.993     15.007    519.952    529.994    519.952    519.952    519.952
 45.370    516.514    529.865    -13.351    519.692    529.865    519.692    519.692    519.692
 45.470    564.000    529.766     34.234    519.434    529.766    519.434    519.434    519.434
 45.570    542.189    529.697     12.492    519.178    529.697    519.178    519.178    519.178
 45.670    498.745    529.658    -30.914    518.925    529.658    518.925    518.925    518.925
 45.770    539.000    529.651      9.349    518.674    529.650    518.674    518.674    518.674
 45.870    536.000    529.676      6.324    518.425    529.675    518.425    518.425    518.425
 45.970    522.754    529.736     -6.982    518.180    529.735    518.180    518.180    518.180
 46.070    546.760    529.834     16.927    517.936    529.833    517.936    517.936    517.936
 46.170    574.497    529.973     44.524    517.695    529.972    517.695    517.695    517.695
 46.270    499.174    530.159    -30.984    517.457    530.158    517.457    517.457    517.457
 46.370    529.000    530.396     -1.396    517.220    530.396    517.220    517.220    517.220
 46.470    562.813    530.694     32.118    516.987    530.693    516.987    516.987    516.987
 46.570    507.000    531.062    -24.062    516.756    531.061    516.756    516.756    516.756
 46.670    511.000    531.513    -20.513    516.527    531.512    516.527    516.527    516.527
 46.770    479.658    532.068    -52.410    516.300    532.066    516.300    516.300    516.300
 46.870    553.000    532.758     20.242    516.077    532.756    516.077    516.077    516.077
 46.970    514.000    533.642    -19.642    515.855    533.639    515.855    515.855    515.855
 47.070    501.246    534.823    -33.577    515.636    534.820    515.636    515.636    515.636
 47.170    544.000    536.492      7.508    515.420    536.488    515.420    515.420    515.420
 47.270    550.000    538.962     11.038    515.205    538.956    515.205    515.205    515.205
 47.370    540.523    542.700     -2.176    514.994    542.691    514.994    514.994    514.994
 47.470    512.000    548.289    -36.289    514.785    548.277    514.785    514.785    514.785
 47.570    557.000    556.299      0.701    514.578    556.282    514.578    514.578    514.578
 47.670    591.000    567.040     23.960    514.373    567.015    514.373    514.373    514.373
 47.770    550.000    580.217    -30.217    514.171    580.183    514.171    514.171    514.171
 47.870    633.509    594.534     38.975    513.972    594.491    513.972    513.972    513.972
 47.970    628.000    607.347     20.653    513.775    607.296    513.775    513.775    513.775
 48.070    612.000    615.030     -3.030    513.580    614.976    513.580    513.580    513.580
 48.170    649.000    615.003     33.997    513.388    614.951    513.388    513.388    513.388
 48.270    617.000    607.931      9.069    513.198    607.886    513.198    513.198    513.198
 48.370    574.000    597.091    -23.091    513.011    597.055    513.011    513.011    513.011
 48.470    570.000    585.935    -15.935    512.826    585.908    512.826    512.826    512.826
 48.570    591.000    576.710     14.290    512.644    576.691    512.644    512.644    512.644
 48.670    559.000    570.432    -11.432    512.464    570.418    512.464    512.464    512.464
 48.770    572.599    567.267      5.332    512.286    567.257    512.286    512.286    512.286
 48.870    546.000    566.931    -20.931    512.111    566.924    512.111    512.111    512.111
 48.970    566.000    569.019     -3.019    511.938    569.013    511.938    511.938    511.938
 49.070    529.246    573.259    -44.013    511.768    573.254    511.768    511.768    511.768
 49.170    577.000    579.707     -2.707    511.600    579.702    511.600    511.600    511.600
 49.270    567.000    588.997    -21.997    511.434    588.992    511.434    511.434    511.434
 49.370    615.000    602.830     12.170    511.271    602.824    511.271    511.271    511.271
 49.470    601.123    624.875    -23.752    511.110    624.866    511.110    511.110    511.110
 49.570    646.000    662.100    -16.100    510.952    662.084    510.952    510.952    510.952
 49.670    750.982    726.001     24.981    510.796    725.973    510.796    510.796    510.796
 49.770    860.324    832.460     27.864    510.642    832.414    510.642    510.642    510.642
 49.870    943.103    998.492    -55.389    510.491    998.422    510.491    510.491    510.491
 49.970   1201.421   1234.835    -33.414    510.342   1234.739    510.342    510.342    510.342
 50.070   1529.000   1535.454     -6.454    510.195   1535.339    510.195    510.195    510.195
 50.170   1900.000   1866.779     33.221    510.051   1866.665    510.051    510.051    510.051
 50.270   2157.123   2161.082     -3.959    509.909   2161.003    509.909    509.909    509.909
 50.370   2346.674   2327.419     19.256    509.769   2327.413    509.769    509.769    509.769
 50.470   2297.000   2300.078     -3.078    509.632   2300.162    509.632    509.632    509.632
 50.570   2005.662   2092.250    -86.587    509.497   2092.401    509.497    509.497    509.497
 50.670   1725.000   1783.353    -58.353    509.365   1783.528    509.365    509.365    509.365
 50.770   1364.000   1460.588    -96.588    509.235   1460.752    509.235    509.235    509.235
 50.870   1157.712   1182.534    -24.823    509.107   1182.671    509.107    509.107    509.107
 50.970   1025.018    974.533     50.485    508.981    974.638    508.981    508.981    508.981
 51.070    829.000    836.630     -7.630    508.858    836.709    508.858    508.858    508.858
 51.170    782.619    754.314     28.305    508.737    754.376    508.737    508.737    508.737
 51.270    699.000    708.222     -9.222    508.618    708.274    508.618    508.618    508.618
 51.370    658.000    680.804    -22.804    508.502    680.850    508.502    508.502    508.502
 51.470    712.850    660.162     52.688    508.388    660.202    508.388    508.388    508.388
 51.570    643.000    641.119      1.881    508.276    641.153    508.276    508.276    508.276
 51.670    581.542    623.108    -41.566    508.167    623.136    508.167    508.167    508.167
 51.770    672.000    607.144     64.856    508.059    607.165    508.059    508.059    508.059
 51.870    598.000    594.129      3.871    507.954    594.145    507.954    507.954    507.954
 51.970    570.000    584.399    -14.399    507.852    584.410    507.852    507.852    507.852
 52.070    619.000    577.776     41.224    507.751    577.785    507.751    507.751    507.751
 52.170    604.000    573.796     30.204    507.653    573.802    507.653    507.653    507.653
 52.270    550.986    571.943    -20.957    507.557    571.948    507.557    507.557    507.557
 52.370    626.000    571.839     54.161    507.463    571.843    507.463    507.463    507.463
 52.470    593.000    573.353     19.647    507.371    573.357    507.371    507.371    507.371
 52.570    581.962    576.701      5.261    507.282    576.704    507.282    507.282    507.282
 52.670    563.735    582.570    -18.835    507.194    582.573    507.194    507.194    507.194
 52.770    615.000    592.330     22.670    507.109    592.333    507.109    507.109    507.109
 52.870    629.127    608.260     20.867    507.026    608.262    507.026    507.026    507.026
 52.970    641.892    633.665      8.227    506.946    633.666    506.946    506.946    506.946
 53.070    647.000    672.638    -25.638    506.867    672.638    506.867    506.867    506.867
 53.170    723.000    729.240     -6.240    506.791    729.240    506.791    506.791    506.791
 53.270    779.728    806.013    -26.285    506.716    806.014    506.716    506.716    506.716
 53.370    894.000    902.012     -8.012    506.644    902.016    506.644    506.644    506.644
 53.470   1004.000   1010.608     -6.608    506.574   1010.618    506.574    506.574    506.574
 53.570   1052.000   1117.265    -65.265    506.506   1117.285    506.506    506.506    506.506
 53.670   1193.480   1198.779     -5.298    506.441   1198.812    506.441    506.441    506.441
 53.770   1245.000   1229.488     15.512    506.377   1229.532    506.377    506.377    506.377
 53.870   1139.437   1197.577    -58.140    506.315   1197.628    506.315    506.315    506.315
 53.970   1139.363   1115.557     23.806    506.256   1115.607    506.256    506.256    506.256
 54.070    962.000   1009.278    -47.278    506.198   1009.323    506.198    506.198    506.198
 54.170    886.000    901.745    -15.745    506.143    901.782    506.143    506.143    506.143
 54.270    777.000    807.204    -30.204    506.089    807.233    506.089    506.089    506.089
 54.370    702.000    732.053    -30.053    506.038    732.074    506.038    506.038    506.038
 54.470    670.000    677.084     -7.084    505.989    677.098    505.989    505.989    505.989
 54.570    653.000    639.673     13.327    505.941    639.684    505.941    505.941    505.941
 54.670    608.315    615.744     -7.429    505.896    615.752    505.896    505.896    505.896
 54.770    645.887    601.224     44.663    505.853    601.230    505.853    505.853    505.853
 54.870    636.000    592.845     43.155    505.812    592.850    505.812    505.812    505.812
 54.970    547.793    588.357    -40.564    505.772    588.361    505.772    505.772    505.772
 55.070    649.000    586.392     62.608    505.735    586.396    505.735    505.735    505.735
 55.170    596.000    586.206      9.794    505.700    586.209    505.700    505.700    505.700
 55.270    641.000    587.444     53.556    505.666    587.447    505.666    505.666    505.666
 55.370    545.040    589.985    -44.946    505.635    589.988    505.635    505.635    505.635
 55.470    561.748    593.860    -32.112    505.605    593.863    505.605    505.605    505.605
 55.570    627.996    599.233     28.763    505.578    599.235    505.578    505.578    505.578
 55.670    583.023    606.452    -23.429    505.552    606.455    505.552    505.552    505.552
 55.770    629.000    616.184     12.816    505.528    616.186    505.528    505.528    505.528
 55.870    661.000    629.671     31.329    505.506    629.673    505.506    505.506    505.506
 55.970    623.000    649.162    -26.162    505.486    649.162    505.486    505.486    505.486
 56.070    722.224    678.493     43.730    505.468    678.492    505.468    505.468    505.468
 56.170    664.682    723.706    -59.024    505.451    723.701    505.451    505.451    505.451
 56.270    739.037    793.349    -54.312    505.437    793.338    505.437    505.437    505.437
 56.370    857.000    897.971    -40.971    505.424    897.953    505.424    505.424    505.424
 56.470    990.000   1048.277    -58.277    505.413   1048.252    505.413    505.413    505.413
 56.570   1184.000   1251.753    -67.753    505.404   1251.724    505.404    505.404    505.404
 56.670   1559.786   1508.088     51.699    505.396   1508.061    505.396    505.396    505.396
 56.770   1773.452   1804.097    -30.645    505.391   1804.084    505.391    505.391    505.391
 56.870   2091.000   2108.818    -17.818    505.387   2108.836    505.387    505.387    505.387
 56.970   2359.001   2371.030    -12.029    505.385   2371.101    505.385    505.385    505.385
 57.070   2615.000   2527.285     87.715    505.384   2527.424    505.384    505.384    505.384
 57.170   2565.000   2529.686     35.314    505.386   2529.893    505.386    505.386    505.386
 57.270   2405.000   2377.831     27.169    505.389   2378.080    505.389    505.389    505.389
 57.370   2129.207   2119.165     10.042    505.394   2119.421    505.394    505.394    505.394
 57.470   1797.000   1817.251    -20.251    505.400   1817.485    505.400    505.400    505.400
 57.570   1481.000   1523.711    -42.711    505.408   1523.908    505.408    505.408    505.408
 57.670   1242.000   1269.935    -27.935    505.418   1270.089    505.418    505.418    505.418
 57.770   1014.138   1069.572    -55.434    505.430   1069.685    505.430    505.430    505.430
 57.870    871.000    923.510    -52.510    505.443    923.588    505.443    505.443    505.443
 57.970    854.000    825.067     28.933    505.458    825.118    505.458    505.458    505.458
 58.070    779.000    764.716     14.284    505.474    764.746    505.474    505.474    505.474
 58.170    787.000    733.572     53.428    505.492    733.587    505.492    505.492    505.492
 58.270    688.153    725.247    -37.094    505.511    725.250    505.511    505.511    505.511
 58.370    784.852    736.154     48.697    505.533    736.147    505.533    505.533    505.533
 58.470    711.485    764.745    -53.260    505.555    764.728    505.555    505.555    505.555
 58.570    760.000    810.192    -50.192    505.579    810.167    505.579    505.579    505.579
 58.670    860.556    870.901    -10.346    505.605    870.871    505.605    505.605    505.605
 58.770    946.203    943.119      3.084    505.632    943.088    505.632    505.632    505.632
 58.870   1009.000   1020.250    -11.250    505.661   1020.224    505.661    505.661    505.661
 58.970   1168.000   1094.061     73.939    505.691   1094.046    505.691    505.691    505.691
 59.070   1206.000   1157.503     48.497    505.723   1157.501    505.723    505.723    505.723
 59.170   1211.000   1205.602      5.398    505.756   1205.614    505.756    505.756    505.756
 59.270   1322.000   1233.532     88.468    505.791   1233.558    505.791    505.791    505.791
 59.370   1309.000   1237.518     71.482    505.827   1237.553    505.827    505.827    505.827
 59.470   1253.000   1220.105     32.895    505.865   1220.138    505.865    505.865    505.865
 59.570   1225.000   1192.094     32.906    505.904   1192.111    505.904    505.904    505.904
 59.670   1190.000   1167.211     22.789    505.944   1167.200    505.944    505.944    505.944
 59.770   1115.581   1156.277    -40.695    505.985   1156.229    505.985    505.985    505.985
 59.870   1150.000   1166.099    -16.099    506.029   1166.009    506.029    506.029    506.029
 59.970   1133.834   1200.912    -67.078    506.073   1200.778    506.073    506.073    506.073
 60.070   1212.033   1262.101    -50.067    506.119   1261.921    506.119    506.119    506.119
 60.170   1429.000   1345.224     83.776    506.166   1345.004    506.166    506.166    506.166
 60.270   1433.000   1437.040     -4.040    506.214   1436.789    506.214    506.214    506.214
 60.370   1585.000   1515.104     69.896    506.264   1514.844    506.264    506.264    506.264
 60.470   1550.000   1552.546     -2.546    506.315   1552.302    506.315    506.315    506.315
 60.570   1584.000   1529.901     54.099    506.367   1529.695    506.367    506.367    506.367
 60.670   1525.645   1447.012     78.633    506.420   1446.854    506.420    506.420    506.420
 60.770   1388.000   1322.384     65.616    506.475   1322.272    506.475    506.475    506.475
 60.870   1234.000   1181.191     52.809    506.531   1181.115    506.531    506.531    506.531
 60.970   1047.000   1044.732      2.268    506.588   1044.683    506.588    506.588    506.588
 61.070    898.646    926.889    -28.243    506.646    926.856    506.646    506.646    506.646
 61.170    824.000    834.643    -10.643    506.706    834.619    506.706    506.706    506.706
 61.270    727.960    769.864    -41.903    506.767    769.842    506.767    506.767    506.767
 61.370    754.022    731.438     22.585    506.828    731.413    506.828    506.828    506.828
 61.470    696.933    717.339    -20.406    506.891    717.307    506.891    506.891    506.891
 61.570    727.000    726.135      0.865    506.955    726.092    506.955    506.955    506.955
 61.670    766.000    757.561      8.439    507.020    757.504    507.020    507.020    507.020
 61.770    750.368    812.086    -61.718    507.087    812.010    507.087    507.087    507.087
 61.870    947.562    889.647     57.914    507.154    889.550    507.154    507.154    507.154
 61.970   1050.908    987.963     62.946    507.222    987.844    507.222    507.222    507.222
 62.070   1122.890   1100.812     22.078    507.292   1100.674    507.292    507.292    507.292
 62.170   1193.000   1216.596    -23.596    507.362   1216.446    507.362    507.362    507.362
 62.270   1334.513   1317.753     16.760    507.434   1317.606    507.434    507.434    507.434
 62.370   1307.000   1382.954    -75.954    507.506   1382.823    507.506    507.506    507.506
 62.470   1378.000   1394.517    -16.517    507.579   1394.415    507.579    507.579    507.579
 62.570   1341.000   1348.404     -7.404    507.654   1348.334    507.654    507.654    507.654
 62.670   1301.665   1257.082     44.583    507.729   1257.039    507.729    507.729    507.729
 62.770   1145.000   1141.563      3.437    507.805   1141.541    507.805    507.805    507.805
 62.870    998.581   1021.586    -23.005    507.882   1021.577    507.882    507.882    507.882
 62.970    936.999    911.129     25.870    507.961    911.127    507.961    507.961    507.961
 63.070    730.000    818.092    -88.092    508.039    818.093    508.039    508.039    508.039
 63.170    720.000    745.355    -25.355    508.119    745.355    508.119    508.119    508.119
 63.270    636.000    692.182    -56.182    508.200    692.180    508.200    508.200    508.200
 63.370    635.000    655.719    -20.719    508.282    655.715    508.282    508.282    508.282
 63.470    663.000    632.374     30.626    508.364    632.368    508.364    508.364    508.364
 63.570    585.922    618.844    -32.921    508.447    618.835    508.447    508.447    508.447
 63.670    626.000    612.720     13.280    508.531    612.708    508.531    508.531    508.531
 63.770    661.000    612.712     48.288    508.616    612.698    508.616    508.616    508.616
 63.870    655.046    618.617     36.429    508.701    618.598    508.701    508.701    508.701
 63.970    596.011    631.121    -35.110    508.787    631.096    508.787    508.787    508.787
 64.070    601.096    651.492    -50.396    508.874    651.458    508.874    508.874    508.874
 64.170    683.000    681.156      1.844    508.962    681.111    508.962    508.962    508.962
 64.270    697.031    721.165    -24.134    509.050    721.107    509.050    509.050    509.050
 64.370    779.000    771.584      7.416    509.139    771.511    509.139    509.139    509.139
 64.470    851.000    830.850     20.150    509.229    830.761    509.229    509.229    509.229
 64.570    916.769    895.150     21.619    509.319    895.048    509.319    509.319    509.319
 64.670   1022.615    957.956     64.659    509.410    957.844    509.410    509.410    509.410
 64.770   1057.000   1010.272     46.728    509.502   1010.157    509.502    509.502    509.502
 64.870   1050.000   1042.683      7.317    509.594   1042.574    509.594    509.594    509.594
 64.970   1045.000   1049.189     -4.189    509.687   1049.092    509.687    509.687    509.687
 65.070   1012.382   1029.973    -17.591    509.780   1029.896    509.780    509.780    509.780
 65.170   1030.368    990.716     39.652    509.874    990.661    509.874    509.874    509.874
 65.270    977.111    939.792     37.319    509.969    939.759    509.969    509.969    509.969
 65.370    925.000    885.419     39.581    510.064    885.406    510.064    510.064    510.064
 65.470    867.768    833.686     34.083    510.159    833.690    510.159    510.159    510.159
 65.570    740.194    787.822    -47.628    510.255    787.839    510.255    510.255    510.255
 65.670    714.000    748.637    -34.637    510.352    748.661    510.352    510.352    510.352
 65.770    745.705    715.572     30.134    510.449    715.599    510.449    510.449    510.449
 65.870    684.000    687.828     -3.828    510.546    687.855    510.546    510.546    510.546
 65.970    614.000    664.895    -50.895    510.644    664.919    510.644    510.644    510.644
 66.070    632.837    646.451    -13.615    510.742    646.470    510.742    510.742    510.742
 66.170    616.000    632.162    -16.162    510.840    632.176    510.840    510.840    510.840
 66.270    622.415    621.646      0.769    510.939    621.656    510.939    510.939    510.939
 66.370    560.872    614.516    -53.644    511.039    614.522    511.039    511.039    511.039
 66.470    603.000    610.422     -7.422    511.138    610.426    511.138    511.138    511.138
 66.570    607.000    609.082     -2.082    511.238    609.086    511.238    511.238    511.238
 66.670    631.000    610.329     20.671    511.339    610.332    511.339    511.339    511.339
 66.770    625.000    614.186     10.814    511.439    614.189    511.439    511.439    511.439
 66.870    598.000    621.004    -23.004    511.540    621.007    511.540    511.540    511.540
 66.970    633.000    631.631      1.369    511.641    631.635    511.641    511.641    511.641
 67.070    603.000    647.641    -44.641    511.742    647.645    511.742    511.742    511.742
 67.170    682.000    671.570     10.430    511.844    671.575    511.844    511.844    511.844
 67.270    690.000    707.122    -17.122    511.946    707.127    511.946    511.946    511.946
 67.370    759.000    759.211     -0.211    512.048    759.215    512.048    512.048    512.048
 67.470    765.000    833.686    -68.686    512.150    833.690    512.150    512.150    512.150
 67.570    912.629    936.603    -23.974    512.252    936.609    512.252    512.252    512.252
 67.670   1036.211   1072.974    -36.763    512.355   1072.984    512.355    512.355    512.355
 67.770   1197.000   1245.085    -48.085    512.457   1245.104    512.457    512.457    512.457
 67.870   1391.000   1450.610    -59.610    512.560   1450.645    512.560    512.560    512.560
 67.970   1579.000   1680.788   -101.788    512.663   1680.849    512.663    512.663    512.663
 68.070   1835.000   1918.820    -83.820    512.766   1918.916    512.766    512.766    512.766
 68.170   2048.456   2138.929    -90.473    512.869   2139.072    512.869    512.869    512.869
 68.270   2265.848   2307.896    -42.048    512.972   2308.096    512.972    512.972    512.972
 68.370   2338.447   2392.539    -54.093    513.075   2392.798    513.075    513.075    513.075
 68.470   2392.000   2373.379     18.621    513.178   2373.687    513.178    513.178    513.178
 68.570   2348.000   2255.241     92.759    513.281   2255.578    513.281    513.281    513.281
 68.670   2106.244   2064.293     41.951    513.384   2064.630    513.384    513.384    513.384
 68.770   1797.000   1834.855    -37.855    513.487   1835.171    513.487    513.487    513.487
 68.870   1614.000   1597.779     16.221    513.590   1598.057    513.590    513.590    513.590
 68.970   1361.735   1375.549    -13.814    513.693   1375.782    513.693    513.693    513.693
 69.070   1121.000   1181.914    -60.914    513.796   1182.102    513.796    513.796    513.796
 69.170    977.149   1023.124    -45.975    513.899   1023.270    513.899    513.899    513.899
 69.270    917.000    899.629     17.371    514.002    899.738    514.002    514.002    514.002
 69.370    868.958    807.953     61.006    514.104    808.033    514.104    514.104    514.104
 69.470    744.000    742.536      1.464    514.207    742.593    514.207    514.207    514.207
 69.570    702.000    697.275      4.725    514.309    697.316    514.309    514.309    514.309
 69.670    614.066    666.581    -52.514    514.411    666.610    514.411    514.411    514.411
 69.770    653.000    645.922      7.078    514.513    645.943    514.513    514.513    514.513
 69.870    623.000    631.955     -8.955    514.614    631.972    514.614    514.614    514.614
 69.970    636.000    622.401     13.599    514.716    622.413    514.716    514.716    514.716
 70.070    644.207    615.800     28.406    514.817    615.810    514.817    514.817    514.817
 70.170    637.636    611.277     26.358    514.918    611.285    514.918    514.918    514.918
 70.270    658.000    608.333     49.667    515.019    608.339    515.019    515.019    515.019
 70.370    611.000    606.717      4.283    515.119    606.721    515.119    515.119    515.119
 70.470    639.000    606.343     32.657    515.219    606.346    515.219    515.219    515.219
 70.570    669.000    607.272     61.728    515.319    607.273    515.319    515.319    515.319
 70.670    619.000    609.723      9.277    515.418    609.722    515.418    515.418    515.418
 70.770    643.000    614.136     28.864    515.518    614.132    515.518    515.518    515.518
 70.870    608.000    621.264    -13.264    515.616    621.257    515.616    515.616    515.616
 70.970    627.000    632.297     -5.297    515.715    632.286    515.715    515.715    515.715
 71.070    598.005    648.992    -50.987    515.813    648.975    515.813    515.813    515.813
 71.170    667.000    673.764     -6.764    515.910    673.739    515.910    515.910    515.910
 71.270    646.000    709.681    -63.681    516.007    709.645    516.007    516.007    516.007
 71.370    724.022    760.280    -36.258    516.104    760.230    516.104    516.104    516.104
 71.470    863.000    829.149     33.851    516.200    829.081    516.200    516.200    516.200
 71.570    896.000    919.247    -23.247    516.296    919.160    516.296    516.296    516.296
 71.670   1008.000   1032.022    -24.022    516.391   1031.911    516.391    516.391    516.391
 71.770   1191.000   1166.422     24.578    516.486   1166.290    516.486    516.486    516.486
 71.870   1311.000   1317.961     -6.961    516.580   1317.807    516.580    516.580    516.580
 71.970   1518.734   1477.884     40.850    516.674   1477.715    516.674    516.674    516.674
 72.070   1657.000   1632.584     24.416    516.767   1632.409    516.767    516.767    516.767
 72.170   1707.000   1763.767    -56.767    516.860   1763.598    516.860    516.860    516.860
 72.270   1829.936   1850.808    -20.872    516.952   1850.659    516.952    516.952    516.952
 72.370   1861.000   1876.697    -15.697    517.043   1876.577    517.043    517.043    517.043
 72.470   1834.000   1835.660     -1.660    517.134   1835.574    517.134    517.134    517.134
 72.570   1791.000   1736.354     54.646    517.224   1736.298    517.224    517.224    517.224
 72.670   1648.000   1597.299     50.701    517.314   1597.268    517.314    517.314    517.314
 72.770   1471.581   1439.079     32.502    517.403   1439.065    517.403    517.403    517.403
 72.870   1358.548   1279.082     79.466    517.491   1279.080    517.491    517.491    517.491
 72.970   1114.000   1129.796    -15.796    517.578   1129.801    517.578    517.578    517.578
 73.070   1053.000    998.933     54.067    517.665    998.940    517.665    517.665    517.665
 73.170    909.000    890.112     18.888    517.751    890.120    517.751    517.751    517.751
 73.270    766.523    803.728    -37.206    517.837    803.735    517.837    517.837    517.837
 73.370    686.979    737.916    -50.937    517.921    737.921    517.921    517.921    517.921
 73.470    729.624    689.520     40.104    518.005    689.524    518.005    518.005    518.005
 73.570    690.000    654.937     35.063    518.088    654.940    518.088    518.088    518.088
 73.670    577.769    630.740    -52.971    518.171    630.742    518.171    518.171    518.171
 73.770    678.000    614.035     63.965    518.252    614.038    518.252    518.252    518.252
 73.870    618.000    602.600     15.400    518.333    602.604    518.333    518.333    518.333
 73.970    667.000    594.857     72.143    518.413    594.863    518.413    518.413    518.413
 74.070    540.806    589.753    -48.947    518.492    589.761    518.492    518.492    518.492
 74.170    643.000    586.612     56.388    518.570    586.623    518.570    518.570    518.570
 74.270    604.520    584.997     19.523    518.648    585.012    518.648    518.648    518.648
 74.370    625.000    584.593     40.407    518.724    584.613    518.724    518.724    518.724
 74.470    530.103    585.123    -55.020    518.799    585.149    518.799    518.799    518.799
 74.570    634.353    586.289     48.064    518.874    586.320    518.874    518.874    518.874
 74.670    672.000    587.733     84.267    518.948    587.769    518.948    518.948    518.948
 74.770    626.000    589.028     36.972    519.021    589.070    519.021    519.021    519.021
 74.870    631.000    589.714     41.286    519.092    589.759    519.092    519.092    519.092
 74.970    568.974    589.398    -20.424    519.163    589.446    519.163    519.163    519.163
 75.070    638.708    587.919     50.789    519.233    587.966    519.233    519.233    519.233
 75.170    611.901    585.426     26.475    519.302    585.470    519.302    519.302    519.302
 75.270    644.000    582.330     61.670    519.370    582.369    519.370    519.370    519.370
 75.370    640.000    579.165     60.835    519.436    579.198    519.436    519.436    519.436
 75.470    638.000    576.480     61.520    519.502    576.507    519.502    519.502    519.502
 75.570    634.000    574.801     59.199    519.567    574.821    519.567    519.567    519.567
 75.670    604.000    574.628     29.372    519.630    574.641    519.630    519.630    519.630
 75.770    598.000    576.440     21.560    519.693    576.446    519.693    519.693    519.693
 75.870    636.000    580.683     55.317    519.754    580.682    519.754    519.754    519.754
 75.970    620.000    587.744     32.256    519.815    587.736    519.815    519.815    519.815
 76.070    630.000    597.895     32.105    519.874    597.879    519.874    519.874    519.874
 76.170    661.000    611.224     49.776    519.932    611.201    519.932    519.932    519.932
 76.270    608.000    627.556    -19.556    519.989    627.524    519.989    519.989    519.989
 76.370    697.000    646.366     50.634    520.045    646.327    520.045    520.045    520.045
 76.470    673.000    666.707      6.293    520.100    666.661    520.100    520.100    520.100
 76.570    681.053    687.151     -6.098    520.153    687.098    520.153    520.153    520.153
 76.670    710.000    705.773      4.227    520.205    705.715    520.205    520.205    520.205
 76.770    737.000    720.287     16.713    520.256    720.226    520.256    520.256    520.256
 76.870    730.000    728.453      1.547    520.306    728.393    520.306    520.306    520.306
 76.970    748.000    728.775     19.225    520.355    728.718    520.355    520.355    520.355
 77.070    713.863    721.117     -7.254    520.402    721.067    520.402    520.402    520.402
 77.170    718.018    706.768     11.249    520.448    706.725    520.448    520.448    520.448
 77.270    680.000    687.882     -7.882    520.493    687.846    520.493    520.493    520.493
 77.370    695.964    666.752     29.212    520.537    666.723    520.537    520.537    520.537
 77.470    642.000    645.343     -3.343    520.579    645.321    520.579    520.579    520.579
 77.570    610.000    625.119    -15.119    520.620    625.102    520.620    520.620    520.620
 77.670    575.606    607.040    -31.434    520.659    607.027    520.659    520.659    520.659
 77.770    554.027    591.619    -37.592    520.698    591.610    520.698    520.698    520.698
 77.870    581.000    579.004      1.996    520.735    578.997    520.735    520.735    520.735
 77.970    605.772    569.064     36.709    520.770    569.059    520.770    520.770    520.770
 78.070    554.424    561.484     -7.061    520.804    561.481    520.804    520.804    520.804
 78.170    562.000    555.873      6.127    520.837    555.870    520.837    520.837    520.837
 78.270    601.584    551.813     49.770    520.869    551.811    520.869    520.869    520.869
 78.370    549.000    548.923      0.077    520.899    548.921    520.899    520.899    520.899
 78.470    557.309    546.885     10.424    520.928    546.884    520.928    520.928    520.928
 78.570    566.000    545.454     20.546    520.955    545.452    520.955    520.955    520.955
 78.670    510.000    544.451    -34.451    520.981    544.450    520.981    520.981    520.981
 78.770    546.000    543.757      2.243    521.005    543.756    521.005    521.005    521.005
 78.870    554.000    543.295     10.705    521.028    543.294    521.028    521.028    521.028
 78.970    544.412    543.020      1.391    521.049    543.020    521.049    521.049    521.049
 79.070    534.000    542.914     -8.914    521.069    542.914    521.069    521.069    521.069
 79.170    520.000    542.974    -22.974    521.088    542.973    521.088    521.088    521.088
 79.270    576.000    543.209     32.791    521.105    543.208    521.105    521.105    521.105
 79.370    525.000    543.640    -18.640    521.120    543.639    521.120    521.120    521.120
 79.470    547.479    544.298      3.181    521.134    544.297    521.134    521.134    521.134
 79.570    504.780    545.223    -40.443    521.147    545.221    521.147    521.147    521.147
 79.670    528.000    546.466    -18.466    521.158    546.465    521.158    521.158    521.158
 79.770    567.159    548.096     19.063    521.167    548.094    521.167    521.167    521.167
 79.870    514.000    550.201    -36.201    521.175    550.199    521.175    521.175    521.175
 79.970    522.910    552.900    -29.990    521.181    552.896    521.181    521.181    521.181
 80.070    559.000    556.343      2.657    521.186    556.340    521.186    521.186    521.186
 80.170    555.000    560.723     -5.723    521.189    560.719    521.189    521.189    521.189
 80.270    567.000    566.268      0.732    521.191    566.264    521.191    521.191    521.191
 80.370    522.110    573.242    -51.132    521.190    573.238    521.190    521.190    521.190
 80.470    634.272    581.940     52.332    521.189    581.938    521.189    521.189    521.189
 80.570    588.000    592.673     -4.673    521.185    592.672    521.185    521.185    521.185
 80.670    585.000    605.725    -20.725    521.181    605.726    521.181    521.181    521.181
 80.770    613.000    621.279     -8.279    521.174    621.284    521.174    521.174    521.174
 80.870    645.000    639.322      5.678    521.166    639.332    521.166    521.166    521.166
 80.970    671.000    659.560     11.440    521.156    659.575    521.156    521.156    521.156
 81.070    632.000    681.357    -49.357    521.144    681.379    521.144    521.144    521.144
 81.170    699.000    703.742     -4.742    521.131    703.770    521.131    521.131    521.131
 81.270    674.000    725.494    -51.494    521.116    725.531    521.116    521.116    521.116
 81.370    741.000    745.323     -4.323    521.100    745.367    521.100    521.100    521.100
 81.470    768.223    762.045      6.178    521.081    762.097    521.081    521.081    521.081
 81.570    805.195    774.710     30.486    521.061    774.768    521.061    521.061    521.061
 81.670    721.775    782.675    -60.900    521.039    782.740    521.039    521.039    521.039
 81.770    761.000    785.687    -24.687    521.016    785.757    521.016    521.016    521.016
 81.870    721.000    783.882    -62.882    520.991    783.956    520.991    520.991    520.991
 81.970    770.000    777.656     -7.656    520.964    777.732    520.964    520.964    520.964
 82.070    786.000    767.531     18.469    520.935    767.608    520.935    520.935    520.935
 82.170    730.000    754.160    -24.160    520.905    754.237    520.905    520.905    520.905
 82.270    719.000    738.380    -19.380    520.873    738.456    520.873    520.873    520.873
 82.370    754.045    721.140     32.905    520.839    721.214    520.839    520.839    520.839
 82.470    698.929    703.318     -4.389    520.803    703.388    520.803    520.803    520.803
 82.570    651.000    685.556    -34.556    520.766    685.622    520.766    520.766    520.766
 82.670    659.000    668.256     -9.256    520.726    668.317    520.726    520.726    520.726
 82.770    679.976    651.704     28.272    520.685    651.759    520.685    520.685    520.685
 82.870    611.000    636.189    -25.189    520.643    636.238    520.643    520.643    520.643
 82.970    597.000    622.052    -25.052    520.598    622.094    520.598    520.598    520.598
 83.070    561.781    609.632    -47.852    520.551    609.667    520.551    520.551    520.551
 83.170    575.000    599.214    -24.214    520.503    599.241    520.503    520.503    520.503
 83.270    643.171    590.986     52.185    520.453    591.005    520.453    520.453    520.453
 83.370    600.366    585.037     15.329    520.401    585.047    520.401    520.401    520.401
 83.470    513.000    581.358    -68.358    520.347    581.360    520.347    520.347    520.347
 83.570    600.000    579.842     20.158    520.292    579.836    520.292    520.292    520.292
 83.670    547.000    580.287    -33.287    520.234    580.272    520.234    520.234    520.234
 83.770    554.000    582.388    -28.388    520.175    582.365    520.175    520.175    520.175
 83.870    550.000    585.742    -35.742    520.114    585.712    520.114    520.114    520.114
 83.970    575.000    589.851    -14.851    520.051    589.815    520.051    520.051    520.051
 84.070    593.465    594.128     -0.663    519.986    594.086    519.986    519.986    519.986
 84.170    583.000    597.922    -14.922    519.919    597.875    519.919    519.919    519.919
 84.270    569.000    600.576    -31.576    519.850    600.527    519.850    519.850    519.850
 84.370    619.000    601.541     17.459    519.780    601.492    519.780    519.780    519.780
 84.470    553.000    600.508    -47.508    519.708    600.461    519.708    519.708    519.708
 84.570    602.000    597.491      4.509    519.633    597.447    519.633    519.633    519.633
 84.670    585.000    592.772     -7.772    519.557    592.732    519.557    519.557    519.557
 84.770    584.000    586.897     -2.897    519.479    586.862    519.479    519.479    519.479
 84.870    558.000    580.412    -22.412    519.399    580.382    519.399    519.399    519.399
 84.970    557.000    573.778    -16.778    519.317    573.753    519.317    519.317    519.317
 85.070    583.843    567.383     16.460    519.233    567.363    519.233    519.233    519.233
 85.170    585.000    561.516     23.484    519.148    561.499    519.148    519.148    519.148
 85.270    603.324    556.361     46.964    519.060    556.347    519.060    519.060    519.060
 85.370    571.000    552.013     18.987    518.970    552.002    518.970    518.970    518.970
 85.470    537.000    548.493    -11.493    518.879    548.484    518.879    518.879    518.879
 85.570    510.000    545.766    -35.766    518.786    545.758    518.786    518.786    518.786
 85.670    538.000    543.763     -5.763    518.690    543.755    518.690    518.690    518.690
 85.770    533.000    542.396     -9.396    518.593    542.389    518.593    518.593    518.593
 85.870    510.000    541.590    -31.590    518.494    541.582    518.494    518.494    518.494
 85.970    589.722    541.278     48.444    518.393    541.270    518.393    518.393    518.393
 86.070    547.000    541.421      5.579    518.290    541.413    518.290    518.290    518.290
 86.170    490.865    542.010    -51.145    518.185    542.001    518.185    518.185    518.185
 86.270    534.000    543.070     -9.070    518.078    543.059    518.078    518.078    518.078
 86.370    538.000    544.657     -6.657    517.969    544.644    517.969    517.969    517.969
 86.470    611.000    546.856     64.144    517.858    546.839    517.858    517.858    517.858
 86.570    597.000    549.769     47.231    517.746    549.749    517.746    517.746    517.746
 86.670    588.000    553.514     34.486    517.631    553.489    517.631    517.631    517.631
 86.770    556.000    558.204     -2.204    517.514    558.172    517.514    517.514    517.514
 86.870    575.000    563.932     11.068    517.396    563.894    517.396    517.396    517.396
 86.970    546.000    570.757    -24.757    517.275    570.711    517.275    517.275    517.275
 87.070    578.000    578.670     -0.670    517.153    578.615    517.153    517.153    517.153
 87.170    580.000    587.577     -7.577    517.028    587.512    517.028    517.028    517.028
 87.270    608.000    597.273     10.727    516.902    597.197    516.902    516.902    516.902
 87.370    597.000    607.425    -10.425    516.774    607.339    516.774    516.774    516.774
 87.470    616.000    617.563     -1.563    516.643    617.466    516.643    516.643    516.643
 87.570    620.000    627.079     -7.079    516.511    626.975    516.511    516.511    516.511
 87.670    656.000    635.263     20.737    516.377    635.152    516.377    516.377    516.377
 87.770    660.000    641.390     18.610    516.241    641.276    516.241    516.241    516.241
 87.870    690.000    644.864     45.136    516.103    644.751    516.103    516.103    516.103
 87.970    633.000    645.386    -12.386    515.963    645.278    515.963    515.963    515.963
 88.070    665.148    643.052     22.095    515.821    642.952    515.821    515.821    515.821
 88.170    661.000    638.319     22.681    515.677    638.230    515.677    515.677    515.677
 88.270    651.863    631.871     19.992    515.531    631.794    515.531    515.531    515.531
 88.370    697.000    624.478     72.522    515.383    624.414    515.383    515.383    515.383
 88.470    644.000    616.898     27.102    515.234    616.847    515.234    515.234    515.234
 88.570    624.375    609.815     14.560    515.082    609.777    515.082    515.082    515.082
 88.670    616.241    603.806     12.435    514.929    603.780    514.929    514.929    514.929
 88.770    575.000    599.310    -24.310    514.773    599.294    514.773    514.773    514.773
 88.870    594.835    596.608     -1.773    514.616    596.603    514.616    514.616    514.616
 88.970    610.081    595.818     14.263    514.456    595.822    514.456    514.456    514.456
 89.070    598.000    596.891      1.109    514.295    596.905    514.295    514.295    514.295
 89.170    568.929    599.624    -30.695    514.132    599.646    514.132    514.132    514.132
 89.270    605.728    603.664      2.064    513.967    603.695    513.967    513.967    513.967
 89.370    582.000    608.532    -26.532    513.800    608.572    513.800    513.800    513.800
 89.470    592.300    613.639    -21.339    513.631    613.686    513.631    513.631    513.631
 89.570    595.000    618.316    -23.316    513.460    618.370    513.460    513.460    513.460
 89.670    573.721    621.874    -48.154    513.287    621.934    513.287    513.287    513.287
 89.770    574.000    623.704    -49.704    513.112    623.768    513.112    513.112    513.112
 89.870    626.116    623.391      2.725    512.936    623.458    512.936    512.936    512.936
 89.970    627.000    620.817      6.183    512.757    620.885    512.757    512.757    512.757
 90.070    652.000    616.175     35.825    512.577    616.241    512.577    512.577    512.577
 90.170    576.000    609.890    -33.890    512.395    609.952    512.395    512.395    512.395
 90.270    552.000    602.497    -50.497    512.211    602.554    512.211    512.211    512.211
 90.370    546.000    594.536    -48.536    512.025    594.587    512.025    512.025    512.025
 90.470    563.000    586.483    -23.483    511.837    586.527    511.837    511.837    511.837
 90.570    532.000    578.726    -46.726    511.647    578.764    511.647    511.647    511.647
 90.670    585.000    571.557     13.443    511.456    571.589    511.456    511.456    511.456
 90.770    545.000    565.174    -20.174    511.262    565.200    511.262    511.262    511.262
 90.870    539.293    559.690    -20.397    511.067    559.710    511.067    511.067    511.067
 90.970    551.000    555.145     -4.145    510.870    555.161    510.870    510.870    510.870
 91.070    499.000    551.525    -52.525    510.671    551.537    510.671    510.671    510.671
 91.170    545.617    548.774     -3.157    510.470    548.783    510.470    510.470    510.470
 91.270    489.000    546.818    -57.818    510.268    546.824    510.268    510.268    510.268
 91.370    550.000    545.577      4.423    510.063    545.580    510.063    510.063    510.063
 91.470    529.000    544.981    -15.981    509.857    544.983    509.857    509.857    509.857
 91.570    515.000    544.984    -29.984    509.649    544.984    509.649    509.649    509.649
 91.670    508.000    545.567    -37.567    509.440    545.566    509.440    509.440    509.440
 91.770    517.000    546.749    -29.749    509.228    546.745    509.228    509.228    509.228
 91.870    525.000    548.581    -23.581    509.015    548.576    509.015    509.015    509.015
 91.970    572.000    551.153     20.847    508.800    551.146    508.800    508.800    508.800
 92.070    552.000    554.586     -2.586    508.583    554.577    508.583    508.583    508.583
 92.170    568.589    559.028      9.561    508.364    559.016    508.364    508.364    508.364
 92.270    534.401    564.640    -30.239    508.144    564.625    508.144    508.144    508.144
 92.370    534.000    571.589    -37.589    507.922    571.570    507.922    507.922    507.922
 92.470    563.000    580.030    -17.030    507.698    580.007    507.698    507.698    507.698
 92.570    557.000    590.088    -33.088    507.473    590.060    507.473    507.473    507.473
 92.670    608.000    601.844      6.156    507.245    601.811    507.245    507.245    507.245
 92.770    615.000    615.315     -0.315    507.016    615.275    507.016    507.016    507.016
 92.870    619.768    630.438    -10.670    506.786    630.391    506.786    506.786    506.786
 92.970    680.000    647.053     32.947    506.554    647.000    506.554    506.554    506.554
 93.070    659.000    664.895     -5.895    506.320    664.835    506.320    506.320    506.320
 93.170    643.000    683.577    -40.577    506.084    683.511    506.084    506.084    506.084
 93.270    720.184    702.602     17.582    505.847    702.531    505.847    505.847    505.847
 93.370    742.321    721.398     20.923    505.608    721.322    505.608    505.608    505.608
 93.470    756.000    739.391     16.609    505.368    739.312    505.368    505.368    505.368
 93.570    741.231    756.134    -14.903    505.126    756.053    505.126    505.126    505.126
 93.670    796.000    771.411     24.589    504.882    771.330    504.882    504.882    504.882
 93.770    749.080    785.282    -36.202    504.637    785.202    504.637    504.637    504.637
 93.870    774.000    798.011    -24.011    504.390    797.933    504.390    504.390    504.390
 93.970    855.000    809.934     45.066    504.141    809.858    504.141    504.141    504.141
 94.070    809.967    821.325    -11.358    503.892    821.251    503.892    503.892    503.892
 94.170    852.017    832.335     19.683    503.640    832.263    503.640    503.640    503.640
 94.270    868.000    843.014     24.986    503.387    842.945    503.387    503.387    503.387
 94.370    802.925    853.387    -50.462    503.133    853.321    503.133    503.133    503.133
 94.470    879.000    863.497     15.503    502.877    863.434    502.877    502.877    502.877
 94.570    880.000    873.490      6.510    502.619    873.431    502.619    502.619    502.619
 94.670    841.456    883.380    -41.923    502.360    883.324    502.360    502.360    502.360
 94.770    912.000    893.009     18.991    502.100    892.958    502.100    502.100    502.100
 94.870    925.490    901.931     23.559    501.838    901.884    501.838    501.838    501.838
 94.970    917.000    909.371      7.629    501.575    909.330    501.575    501.575    501.575
 95.070    921.000    914.288      6.712    501.310    914.253    501.310    501.310    501.310
 95.170    916.142    915.529      0.612    501.044    915.501    501.044    501.044    501.044
 95.270    936.000    912.080     23.920    500.776    912.060    500.776    500.776    500.776
 95.370    904.000    903.350      0.650    500.507    903.338    500.507    500.507    500.507
 95.470    842.803    889.386    -46.583    500.237    889.381    500.237    500.237    500.237
 95.570    902.000    870.913     31.087    499.966    870.914    499.966    499.966    499.966
 95.670    863.000    849.186     13.814    499.693    849.193    499.693    499.693    499.693
 95.770    844.000    825.764     18.236    499.419    825.773    499.419    499.419    499.419
 95.870    817.000    802.287     14.713    499.143    802.298    499.143    499.143    499.143
 95.970    747.150    780.350    -33.200    498.867    780.360    498.867    498.867    498.867
 96.070    747.000    761.422    -14.422    498.589    761.430    498.589    498.589    498.589
 96.170    789.000    746.823     42.177    498.309    746.828    498.309    498.309    498.309
 96.270    732.000    737.716     -5.716    498.029    737.716    498.029    498.029    498.029
 96.370    791.510    735.093     56.416    497.747    735.088    497.747    497.747    497.747
 96.470    763.000    739.778     23.222    497.464    739.766    497.464    497.464    497.464
 96.570    700.968    752.410    -51.442    497.180    752.391    497.180    497.180    497.180
 96.670    808.000    773.438     34.562    496.895    773.411    496.895    496.895    496.895
 96.770    768.000    803.092    -35.092    496.609    803.056    496.609    496.609    496.609
 96.870    822.000    841.353    -19.353    496.322    841.309    496.322    496.322    496.322
 96.970    909.345    887.914     21.430    496.033    887.862    496.033    496.033    496.033
 97.070    950.000    942.128      7.872    495.743    942.068    495.743    495.743    495.743
 97.170    994.000   1002.951     -8.951    495.453   1002.885    495.453    495.453    495.453
 97.270   1090.000   1068.898     21.102    495.161   1068.827    495.161    495.161    495.161
 97.370   1083.798   1137.993    -54.195    494.868   1137.919    494.868    494.868    494.868
 97.470   1243.474   1207.749     35.724    494.575   1207.674    494.575    494.575    494.575
 97.570   1199.774   1275.170    -75.396    494.280   1275.098    494.280    494.280    494.280
 97.670   1356.239   1336.828     19.411    493.985   1336.761    493.985    493.985    493.985
 97.770   1353.000   1389.061    -36.061    493.688   1389.004    493.688    493.688    493.688
 97.870   1504.466   1428.351     76.115    493.391   1428.308    493.391    493.391    493.391
 97.970   1490.000   1451.855     38.145    493.092   1451.829    493.092    493.092    493.092
 98.070   1493.000   1457.951     35.049    492.793   1457.943    492.793    492.793    492.793
 98.170   1500.000   1446.578     53.422    492.493   1446.589    492.493    492.493    492.493
 98.270   1453.496   1419.210     34.286    492.192   1419.238    492.192    492.192    492.192
 98.370   1321.034   1378.510    -57.476    491.890   1378.552    491.890    491.890    491.890
 98.470   1290.520   1327.801    -37.281    491.588   1327.855    491.588    491.588    491.588
 98.570   1286.000   1270.633     15.367    491.285   1270.694    491.285    491.285    491.285
 98.670   1182.739   1210.455    -27.716    490.981   1210.519    490.981    490.981    490.981
 98.770   1137.000   1150.432    -13.432    490.676   1150.497    490.676    490.676    490.676
 98.870   1175.000   1093.354     81.646    490.370   1093.416    490.370    490.370    490.370
 98.970    975.367   1041.607    -66.240    490.064   1041.664    490.064    490.064    490.064
 99.070    970.000    997.157    -27.157    489.758    997.208    489.758    489.758    489.758
 99.170    929.000    961.685    -32.685    489.450    961.727    489.450    489.450    489.450
 99.270    977.000    936.541     40.459    489.142    936.576    489.142    489.142    489.142
 99.370    927.000    922.698      4.302    488.834    922.725    488.834    488.834    488.834
 99.470    873.000    920.865    -47.865    488.525    920.885    488.525    488.525    488.525
 99.570    892.000    931.477    -39.477    488.215    931.490    488.215    488.215    488.215
 99.670    919.000    954.695    -35.695    487.905    954.704    487.905    487.905    487.905
 99.770    974.252    990.411    -16.159    487.595    990.416    487.595    487.595    487.595
 99.870   1042.000   1038.228      3.772    487.284   1038.232    487.284    487.284    487.284
 99.970   1132.546   1097.441     35.104    486.972   1097.446    486.972    486.972    486.972
100.070   1230.942   1167.002     63.940    486.661   1167.011    486.661    486.661    486.661
100.170   1179.000   1245.491    -66.491    486.349   1245.506    486.349    486.349    486.349
100.270   1297.087   1331.027    -33.940    486.036   1331.052    486.036    486.036    486.036
100.370   1370.489   1421.271    -50.783    485.723   1421.310    485.723    485.723    485.723
100.470   1465.079   1513.431    -48.351    485.410   1513.486    485.410    485.410    485.410
100.570   1624.000   1604.349     19.651    485.097   1604.424    485.097    485.097    485.097
100.670   1737.229   1690.711     46.517    484.783   1690.809    484.783    484.783    484.783
100.770   1811.000   1769.346     41.654    484.470   1769.469    484.470    484.470    484.470
100.870   1847.000   1837.536      9.464    484.156   1837.684    484.156    484.156    484.156
100.970   1959.572   1893.217     66.355    483.842   1893.389    483.842    483.842    483.842
101.070   1980.862   1934.971     45.891    483.528   1935.166    483.528    483.528    483.528
101.170   1983.110   1961.854     21.256    483.213   1962.069    483.213    483.213    483.213
101.270   1988.000   1973.205     14.795    482.899   1973.437    482.899    482.899    482.899
101.370   1935.000   1968.605    -33.605    482.585   1968.851    482.585    482.585    482.585
101.470   1943.000   1948.050     -5.050    482.271   1948.305    482.271    482.271    482.271
101.570   2006.000   1912.256     93.744    481.956   1912.516    481.956    481.956    481.956
101.670   1916.904   1862.918     53.986    481.642   1863.178    481.642    481.642    481.642
101.770   1716.209   1802.722    -86.513    481.328   1802.978    481.328    481.328    481.328
101.870   1724.000   1735.080    -11.080    481.014   1735.328    481.014    481.014    481.014
101.970   1643.000   1663.681    -20.681    480.700   1663.917    480.700    480.700    480.700
102.070   1578.000   1592.035    -14.035    480.387   1592.256    480.387    480.387    480.387
102.170   1590.648   1523.133     67.515    480.074   1523.339    480.074    480.074    480.074
102.270   1455.000   1459.263     -4.263    479.760   1459.453    479.760    479.760    479.760
102.370   1428.000   1401.938     26.062    479.448   1402.112    479.448    479.448    479.448
102.470   1373.000   1351.909     21.091    479.135   1352.070    479.135    479.135    479.135
102.570   1302.339   1309.209     -6.870    478.823   1309.357    478.823    478.823    478.823
102.670   1221.000   1273.216    -52.216    478.511   1273.352    478.511    478.511    478.511
102.770   1216.000   1242.742    -26.742    478.200   1242.870    478.200    478.200    478.200
102.870   1201.123   1216.159    -15.036    477.889   1216.280    477.889    477.889    477.889
102.970   1159.376   1191.558    -32.182    477.579   1191.674    477.579    477.579    477.579
103.070   1129.527   1167.042    -37.515    477.269   1167.155    477.269    477.269    477.269
103.170   1094.000   1140.948    -46.948    476.960   1141.059    476.960    476.960    476.960
103.270   1130.766   1112.075     18.691    476.651   1112.184    476.651    476.651    476.651
103.370   1047.152   1079.860    -32.708    476.343   1079.968    476.343    476.343    476.343
103.470    954.000   1044.357    -90.357    476.036   1044.463    476.036    476.036    476.036
103.570    981.686   1006.106    -24.420    475.729   1006.208    475.729    475.729    475.729
103.670    932.000    965.941    -33.941    475.423    966.039    475.423    475.423    475.423
103.770    944.000    924.822     19.178    475.118    924.914    475.118    475.118    475.118
103.870    908.000    883.701     24.299    474.814    883.787    474.814    474.814    474.814
103.970    842.000    843.453     -1.453    474.511    843.532    474.511    474.511    474.511
104.070    816.000    804.832     11.168    474.208    804.904    474.208    474.208    474.208
104.170    767.556    768.459     -0.903    473.907    768.524    473.907    473.907    473.907
104.270    716.088    734.815    -18.727    473.606    734.873    473.606    473.606    473.606
104.370    715.523    704.224     11.299    473.306    704.275    473.306    473.306    473.306
104.470    667.000    676.872     -9.872    473.008    676.917    473.008    473.008    473.008
104.570    667.000    652.814     14.186    472.710    652.852    472.710    472.710    472.710
104.670    642.530    631.991     10.539    472.414    632.023    472.414    472.414    472.414
104.770    659.000    614.253     44.747    472.119    614.280    472.119    472.119    472.119
104.870    612.000    599.384     12.616    471.825    599.406    471.825    471.825    471.825
104.970    603.000    587.124     15.876    471.532    587.142    471.532    471.532    471.532
105.070    594.000    577.197     16.803    471.240    577.211    471.240    471.240    471.240
105.170    612.361    569.325     43.036    470.950    569.336    470.950    470.950    470.950
105.270    600.000    563.249     36.751    470.662    563.258    470.662    470.662    470.662
105.370    594.000    558.741     35.259    470.374    558.747    470.374    470.374    470.374
105.470    531.000    555.606    -24.606    470.088    555.610    470.088    470.088    470.088
105.570    530.509    553.692    -23.183    469.804    553.693    469.804    469.804    469.804
105.670    566.000    552.887     13.113    469.521    552.886    469.521    469.521    469.521
105.770    555.607    553.116      2.491    469.240    553.113    469.240    469.240    469.240
105.870    515.069    554.339    -39.270    468.960    554.334    468.960    468.960    468.960
105.970    584.771    556.545     28.226    468.682    556.538    468.682    468.682    468.682
106.070    525.000    559.745    -34.745    468.405    559.735    468.405    468.405    468.405
106.170    549.000    563.963    -14.963    468.131    563.951    468.131    468.131    468.131
106.270    600.000    569.235     30.765    467.858    569.220    467.858    467.858    467.858
106.370    608.000    575.591     32.409    467.587    575.573    467.587    467.587    467.587
106.470    558.000    583.051    -25.051    467.318    583.030    467.318    467.318    467.318
106.570    570.497    591.613    -21.116    467.051    591.589    467.051    467.051    467.051
106.670    573.000    601.240    -28.240    466.786    601.213    466.786    466.786    466.786
106.770    621.000    611.857      9.143    466.523    611.826    466.523    466.523    466.523
106.870    616.000    623.331     -7.331    466.261    623.297    466.261    466.261    466.261
106.970    631.000    635.486     -4.486    466.002    635.450    466.002    466.002    466.002
107.070    598.230    648.128    -49.898    465.746    648.089    465.746    465.746    465.746
107.170    613.311    660.958    -47.647    465.491    660.916    465.491    465.491    465.491
107.270    606.000    673.645    -67.645    465.239    673.601    465.239    465.239    465.239
107.370    725.983    685.818     40.165    464.989    685.773    464.989    464.989    464.989
107.470    718.555    697.080     21.475    464.741    697.035    464.741    464.741    464.741
107.570    695.000    707.039    -12.039    464.496    706.995    464.496    464.496    464.496
107.670    668.336    715.345    -47.009    464.253    715.302    464.253    464.253    464.253
107.770    720.188    721.744     -1.556    464.012    721.703    464.012    464.012    464.012
107.870    683.200    726.121    -42.921    463.774    726.083    463.774    463.774    463.774
107.970    705.000    728.533    -23.533    463.539    728.499    463.539    463.539    463.539
108.070    774.539    729.200     45.339    463.306    729.170    463.306    463.306    463.306
108.170    737.000    728.474      8.526    463.077    728.449    463.077    463.077    463.077
108.270    709.000    726.782    -17.782    462.849    726.760    462.849    462.849    462.849
108.370    734.395    724.564      9.832    462.625    724.547    462.625    462.625    462.625
108.470    741.778    722.229     19.549    462.403    722.216    462.403    462.403    462.403
108.570    690.000    720.117    -30.117    462.185    720.108    462.185    462.185    462.185
108.670    694.083    718.475    -24.392    461.969    718.470    461.969    461.969    461.969
108.770    699.000    717.452    -18.452    461.756    717.451    461.756    461.756    461.756
108.870    677.627    717.088    -39.461    461.547    717.090    461.547    461.547    461.547
108.970    688.000    717.317    -29.317    461.340    717.323    461.340    461.340    461.340
109.070    687.699    717.971    -30.272    461.137    717.981    461.137    461.137    461.137
109.170    705.000    718.790    -13.790    460.936    718.803    460.936    460.936    460.936
109.270    702.000    719.438    -17.438    460.739    719.454    460.739    460.739    460.739
109.370    674.122    719.532    -45.410    460.546    719.551    460.546    460.546    460.546
109.470    716.000    718.684     -2.684    460.356    718.705    460.356    460.356    460.356
109.570    701.000    716.544    -15.544    460.169    716.568    460.169    460.169    460.169
109.670    723.000    712.857     10.143    459.985    712.883    459.985    459.985    459.985
109.770    699.213    707.495     -8.282    459.806    707.523    459.806    459.806    459.806
109.870    728.902    700.474     28.427    459.629    700.503    459.629    459.629    459.629
109.970    703.000    691.944     11.056    459.457    691.973    459.457    459.457    459.457
110.070    698.000    682.155     15.845    459.288    682.183    459.288    459.288    459.288
110.170    698.000    671.414     26.586    459.123    671.442    459.123    459.123    459.123
110.270    608.659    660.054    -51.395    458.961    660.080    458.961    458.961    458.961
110.370    677.000    648.399     28.601    458.804    648.424    458.804    458.804    458.804
110.470    641.000    636.751      4.249    458.651    636.775    458.651    458.651    458.651
110.570    673.000    625.377     47.623    458.501    625.398    458.501    458.501    458.501
110.670    560.000    614.503    -54.503    458.356    614.521    458.356    458.356    458.356
110.770    603.244    604.316     -1.072    458.214    604.332    458.214    458.214    458.214
110.870    583.000    594.959    -11.959    458.077    594.974    458.077    458.077    458.077
110.970    532.338    586.540    -54.202    457.944    586.552    457.944    457.944    457.944
111.070    540.000    579.124    -39.124    457.816    579.133    457.816    457.816    457.816
111.170    525.000    572.740    -47.740    457.691    572.747    457.691    457.691    457.691
111.270    583.000    567.387     15.613    457.571    567.393    457.571    457.571    457.571
111.370    576.000    563.039     12.961    457.456    563.042    457.456    457.456    457.456
111.470    598.000    559.644     38.356    457.345    559.646    457.345    457.345    457.345
111.570    590.000    557.141     32.859    457.239    557.141    457.239    457.239    457.239
111.670    576.000    555.453     20.547    457.137    555.452    457.137    457.137    457.137
111.770    553.000    554.500     -1.500    457.040    554.498    457.040    457.040    457.040
111.870    567.000    554.201     12.799    456.948    554.197    456.948    456.948    456.948
111.970    514.236    554.472    -40.235    456.861    554.467    456.861    456.861    456.861
112.070    554.043    555.247     -1.203    456.778    555.241    456.778    456.778    456.778
112.170    513.935    556.456    -42.521    456.701    556.450    456.701    456.701    456.701
112.270    564.000    558.041      5.959    456.628    558.034    456.628    456.628    456.628
112.370    524.372    559.952    -35.580    456.561    559.945    456.561    456.561    456.561
112.470    582.000    562.145     19.855    456.499    562.137    456.499    456.499    456.499
112.570    578.000    564.619     13.381    456.442    564.611    456.442    456.442    456.442
112.670    558.000    567.356     -9.356    456.390    567.347    456.390    456.390    456.390
112.770    589.000    570.358     18.642    456.344    570.349    456.344    456.344    456.344
112.870    562.000    573.644    -11.644    456.303    573.635    456.303    456.303    456.303
112.970    588.000    577.246     10.754    456.268    577.237    456.268    456.268    456.268
113.070    614.000    581.211     32.789    456.238    581.202    456.238    456.238    456.238
113.170    633.976    585.600     48.375    456.214    585.591    456.214    456.214    456.214
113.270    618.999    590.495     28.505    456.195    590.484    456.195    456.195    456.195
113.370    617.000    595.997     21.003    456.183    595.986    456.183    456.183    456.183
113.470    623.000    602.240     20.760    456.176    602.228    456.176    456.176    456.176
113.570    608.000    609.391     -1.391    456.175    609.379    456.175    456.175    456.175
113.670    626.811    617.666      9.145    456.180    617.652    456.180    456.180    456.180
113.770    639.943    627.338     12.605    456.191    627.323    456.191    456.191    456.191
113.870    625.581    638.753    -13.171    456.208    638.735    456.208    456.208    456.208
113.970    687.000    652.342     34.658    456.231    652.322    456.231    456.231    456.231
114.070    676.000    668.646      7.354    456.261    668.622    456.261    456.261    456.261
114.170    731.000    688.326     42.674    456.296    688.297    456.296    456.296    456.296
114.270    702.000    712.189    -10.189    456.339    712.154    456.339    456.339    456.339
114.370    712.000    741.199    -29.199    456.387    741.157    456.387    456.387    456.387
114.470    726.000    776.499    -50.499    456.442    776.448    456.442    456.442    456.442
114.570    873.522    819.418     54.104    456.504    819.355    456.504    456.504    456.504
114.670    815.000    871.473    -56.473    456.573    871.397    456.573    456.573    456.573
114.770    915.000    934.370    -19.370    456.648    934.277    456.648    456.648    456.648
114.870    988.000   1009.978    -21.978    456.730   1009.867    456.730    456.730    456.730
114.970   1093.000   1100.307     -7.307    456.819   1100.174    456.819    456.819    456.819
115.070   1230.000   1207.452     22.548    456.915   1207.295    456.915    456.915    456.915
115.170   1398.380   1333.535     64.845    457.018   1333.350    457.018    457.018    457.018
115.270   1539.216   1480.617     58.599    457.128   1480.401    457.128    457.128    457.128
115.370   1638.077   1650.598    -12.521    457.245   1650.349    457.245    457.245    457.245
115.470   1747.798   1845.105    -97.307    457.370   1844.820    457.370    457.370    457.370
115.570   2090.643   2065.365     25.278    457.502   2065.042    457.502    457.502    457.502
115.670   2456.000   2312.072    143.928    457.641   2311.710    457.641    457.641    457.641
115.770   2717.000   2585.256    131.744    457.788   2584.856    457.788    457.788    457.788
115.870   3067.000   2884.160    182.840    457.942   2883.724    457.942    457.942    457.942
115.970   3251.404   3207.135     44.269    458.104   3206.664    458.104    458.104    458.104
116.070   3570.000   3551.542     18.458    458.274   3551.041    458.274    458.274    458.274
116.170   3864.965   3913.699    -48.734    458.452   3913.174    458.452    458.452    458.452
116.270   4202.582   4288.841    -86.259    458.637   4288.300    458.637    458.637    458.637
116.370   4675.000   4671.117      3.883    458.831   4670.569    458.831    458.831    458.831
116.470   5183.000   5053.620    129.380    459.032   5053.075    459.032    459.032    459.032
116.570   5533.912   5428.451    105.462    459.242   5427.920    459.242    459.242    459.242
116.670   5673.490   5786.838   -113.347    459.460   5786.335    459.460    459.460    459.460
116.770   6174.000   6119.333     54.667    459.686   6118.874    459.686    459.686    459.686
116.870   6535.144   6416.119    119.025    459.921   6415.716    459.921    459.921    459.921
116.970   6622.000   6667.456    -45.456    460.163   6667.125    460.163    460.163    460.163
117.070   6906.000   6864.299     41.701    460.415   6864.052    460.415    460.415    460.415
117.170   7109.000   6999.025    109.975    460.675   6998.873    460.675    460.675    460.675
117.270   6977.000   7066.194    -89.194    460.944   7066.144    460.944    460.944    460.944
117.370   7085.000   7063.169     21.831    461.222   7063.223    461.222    461.222    461.222
117.470   6820.094   6990.433   -170.339    461.508   6990.588    461.508    461.508    461.508
117.570   6878.000   6851.524     26.476    461.804   6851.773    461.804    461.804    461.804
117.670   6504.475   6652.594   -148.119    462.108   6652.926    462.108    462.108    462.108
117.770   6256.000   6401.721   -145.721    462.422   6402.123    462.422    462.422    462.422
117.870   5967.000   6108.146   -141.146    462.744   6108.602    462.744    462.744    462.744
117.970   5583.000   5781.569   -198.569    463.077   5782.064    463.077    463.077    463.077
118.070   5345.095   5431.586    -86.492    463.418   5432.106    463.418    463.418    463.418
118.170   4930.000   5067.263   -137.263    463.769   5067.793    463.769    463.769    463.769
118.270   4672.000   4697.000    -25.000    464.129   4697.528    464.129    464.129    464.129
118.370   4358.000   4328.208     29.792    464.500   4328.722    464.500    464.500    464.500
118.470   4038.967   3967.246     71.721    464.879   3967.738    464.879    464.879    464.879
118.570   3693.000   3619.422     73.578    465.269   3619.884    465.269    465.269    465.269
118.670   3263.000   3288.966    -25.966    465.669   3289.394    465.669    465.669    465.669
118.770   2948.000   2979.061    -31.061    466.078   2979.449    466.078    466.078    466.078
118.870   2701.777   2691.899      9.878    466.498   2692.247    466.498    466.498    466.498
118.970   2487.241   2428.776     58.466    466.928   2429.082    466.928    466.928    466.928
119.070   2142.329   2190.192    -47.863    467.368   2190.458    467.368    467.368    467.368
119.170   1906.000   1975.976    -69.976    467.818   1976.203    467.818    467.818    467.818
119.270   1721.000   1785.399    -64.399    468.279   1785.590    468.279    468.279    468.279
119.370   1593.000   1617.299    -24.299    468.750   1617.457    468.750    468.750    468.750
119.470   1487.000   1470.190     16.810    469.232   1470.318    469.232    469.232    469.232
119.570   1262.046   1342.369    -80.323    469.725   1342.471    469.725    469.725    469.725
119.670   1250.000   1232.009     17.991    470.229   1232.089    470.229    470.229    470.229
119.770   1143.000   1137.246      5.754    470.743   1137.307    470.743    470.743    470.743
119.870    990.000   1056.243    -66.243    471.269   1056.289    471.269    471.269    471.269
119.970   1019.933    987.247     32.686    471.805    987.281    471.805    471.805    471.805
120.070    909.000    928.632    -19.632    472.353    928.656    472.353    472.353    472.353
120.170    914.000    878.918     35.082    472.912    878.935    472.912    472.912    472.912
120.270    820.000    836.789    -16.789    473.482    836.801    473.482    473.482    473.482
120.370    751.000    801.094    -50.094    474.064    801.103    474.064    474.064    474.064
120.470    781.802    770.844     10.959    474.657    770.850    474.657    474.657    474.657
120.570    724.000    745.196    -21.196    475.262    745.201    475.262    475.262    475.262
120.670    673.000    723.446    -50.446    475.879    723.450    475.879    475.879    475.879
120.770    761.000    705.007     55.993    476.508    705.011    476.508    476.508    476.508
120.870    680.000    689.395     -9.395    477.148    689.399    477.148    477.148    477.148
120.970    687.000    676.214     10.786    477.801    676.219    477.801    477.801    477.801
121.070    631.000    665.141    -34.141    478.466    665.147    478.466    478.466    478.466
121.170    641.780    655.911    -14.131    479.143    655.918    479.143    479.143    479.143
121.270    664.788    648.309     16.479    479.832    648.317    479.832    479.832    479.832
121.370    622.000    642.157    -20.157    480.534    642.165    480.534    480.534    480.534
121.470    619.000    637.307    -18.307    481.248    637.316    481.248    481.248    481.248
121.570    634.000    633.635      0.365    481.975    633.646    481.975    481.975    481.975
121.670    596.987    631.035    -34.048    482.715    631.047    482.715    482.715    482.715
121.770    625.000    629.412     -4.412    483.468    629.426    483.468    483.468    483.468
121.870    686.160    628.684     57.476    484.233    628.698    484.233    484.233    484.233
121.970    600.000    628.769    -28.769    485.012    628.785    485.012    485.012    485.012
122.070    573.409    629.592    -56.183    485.803    629.610    485.803    485.803    485.803
122.170    673.749    631.076     42.673    486.608    631.097    486.608    486.608    486.608
122.270    598.000    633.145    -35.145    487.427    633.168    487.427    487.427    487.427
122.370    649.000    635.716     13.284    488.259    635.742    488.259    488.259    488.259
122.470    636.000    638.705     -2.705    489.104    638.733    489.104    489.104    489.104
122.570    667.000    642.021     24.979    489.963    642.052    489.963    489.963    489.963
122.670    636.000    645.568     -9.568    490.836    645.601    490.836    490.836    490.836
122.770    647.000    649.241     -2.241    491.722    649.278    491.722    491.722    491.722
122.870    678.952    652.934     26.018    492.623    652.973    492.623    492.623    492.623
122.970    685.000    656.530     28.470    493.538    656.573    493.538    493.538    493.538
123.070    673.000    659.914     13.086    494.467    659.960    494.467    494.467    494.467
123.170    652.000    662.968    -10.968    495.410    663.016    495.410    495.410    495.410
123.270    708.035    665.577     42.458    496.368    665.628    496.368    496.368    496.368
123.370    674.000    667.636      6.364    497.340    667.689    497.340    497.340    497.340
123.470    725.654    669.054     56.599    498.327    669.110    498.327    498.327    498.327
123.570    649.000    669.763    -20.763    499.329    669.821    499.329    499.329    499.329
123.670    659.000    669.718    -10.718    500.345    669.777    500.345    500.345    500.345
123.770    664.559    668.903     -4.344    501.376    668.963    501.376    501.376    501.376
123.870    641.227    667.331    -26.104    502.423    667.391    502.423    502.423    502.423
123.970    722.000    665.038     56.962    503.485    665.098    503.485    503.485    503.485
124.070    709.000    662.084     46.916    504.562    662.144    504.562    504.562    504.562
124.170    642.000    658.543    -16.543    505.654    658.602    505.654    505.654    505.654
124.270    682.000    654.499     27.501    506.762    654.556    506.762    506.762    506.762
124.370    662.000    650.041     11.959    507.885    650.096    507.885    507.885    507.885
124.470    653.960    645.260      8.700    509.025    645.313    509.025    509.025    509.025
124.570    628.454    640.244    -11.790    510.180    640.294    510.180    510.180    510.180
124.670    630.369    635.081     -4.712    511.351    635.128    511.351    511.351    511.351
124.770    640.000    629.851     10.149    512.538    629.895    512.538    512.538    512.538
124.870    623.000    624.631     -1.631    513.742    624.672    513.742    513.742    513.742
124.970    602.000    619.490    -17.490    514.961    619.529    514.961    514.961    514.961
