neutron_powder_diffraction_0243
R_wp: 4.017
Temperature (K): 984.749
Counts: 83947.00
Wavelength (Ã…): 2.52098
COMMENTS
Test file for demonstrating the .xyy file format in Reel1.0
END OF HEADER
   tth       Y_obs     Y_calc      Y_res    Background    Phase_1_Nuc    Phase_1_Mag    Phase_2_Nuc    Phase_2_Mag
  9.970    605.000    561.201     43.799    560.636    561.183    560.636    560.654    560.636
 10.070    585.000    561.475     23.525    560.859    561.454    560.859    560.880    560.859
 10.170    623.000    561.747     61.253    561.075    561.726    561.075    561.096    561.075
 10.270    603.000    562.031     40.969    561.283    562.009    561.283    561.305    561.283
 10.370    623.000    562.314     60.686    561.485    562.292    561.485    561.506    561.485
 10.470    582.000    562.595     19.405    561.679    562.573    561.679    561.700    561.679
 10.570    555.586    562.884     -7.298    561.866    562.862    561.866    561.888    561.866
 10.670    619.000    563.186     55.814    562.046    563.164    562.046    562.068    562.046
 10.770    543.214    563.506    -20.292    562.219    563.483    562.219    562.241    562.219
 10.870    595.966    563.851     32.115    562.385    563.828    562.385    562.407    562.385
 10.970    515.000    564.232    -49.232    562.545    564.209    562.545    562.567    562.545
 11.070    547.766    564.663    -16.897    562.697    564.639    562.697    562.720    562.697
 11.170    544.000    565.165    -21.165    562.843    565.142    562.843    562.866    562.843
 11.270    584.000    565.771     18.229    562.982    565.747    562.982    563.005    562.982
 11.370    592.000    566.535     25.465    563.115    566.511    563.115    563.138    563.115
 11.470    553.528    567.567    -14.039    563.241    567.542    563.241    563.264    563.241
 11.570    539.000    569.172    -30.172    563.361    569.146    563.361    563.384    563.361
 11.670    617.000    572.284     44.716    563.474    572.256    563.474    563.497    563.474
 11.770    563.353    579.324    -15.971    563.581    579.292    563.581    563.604    563.581
 11.870    606.325    594.789     11.536    563.681    594.749    563.681    563.705    563.681
 11.970    646.000    623.246     22.754    563.776    623.191    563.776    563.799    563.776
 12.070    637.000    662.844    -25.844    563.864    662.767    563.864    563.888    563.864
 12.170    655.000    698.011    -43.011    563.946    697.915    563.946    563.970    563.946
 12.270    669.000    704.944    -35.944    564.022    704.844    564.022    564.046    564.022
 12.370    661.000    677.350    -16.350    564.092    677.264    564.092    564.116    564.092
 12.470    668.000    636.455     31.545    564.156    636.392    564.156    564.180    564.156
 12.570    591.000    603.257    -12.257    564.214    603.212    564.214    564.239    564.214
 12.670    573.000    583.827    -10.827    564.267    583.792    564.267    564.291    564.267
 12.770    623.586    574.739     48.847    564.313    574.709    564.313    564.338    564.313
 12.870    569.000    570.895     -1.895    564.354    570.867    564.354    564.379    564.354
 12.970    559.000    569.125    -10.125    564.389    569.098    564.389    564.414    564.389
 13.070    571.000    568.119      2.881    564.419    568.092    564.419    564.444    564.419
 13.170    576.000    567.443      8.557    564.443    567.416    564.443    564.468    564.443
 13.270    529.682    566.950    -37.268    564.462    566.924    564.462    564.487    564.462
 13.370    578.000    566.579     11.421    564.475    566.550    564.475    564.503    564.475
 13.470    545.000    566.289    -21.289    564.483    566.258    564.483    564.513    564.483
 13.570    570.078    566.056      4.023    564.485    566.024    564.485    564.516    564.485
 13.670    543.000    565.865    -22.865    564.482    565.831    564.482    564.515    564.482
 13.770    543.831    565.702    -21.872    564.474    565.669    564.474    564.507    564.474
 13.870    554.000    565.562    -11.562    564.461    565.529    564.461    564.494    564.461
 13.970    535.000    565.438    -30.438    564.442    565.404    564.442    564.476    564.442
 14.070    530.000    565.325    -35.325    564.419    565.292    564.419    564.452    564.419
 14.170    583.337    565.221     18.115    564.391    565.187    564.391    564.424    564.391
 14.270    521.000    565.124    -44.124    564.357    565.089    564.357    564.391    564.357
 14.370    544.000    565.030    -21.030    564.319    564.995    564.319    564.353    564.319
 14.470    563.000    564.939     -1.939    564.276    564.904    564.276    564.310    564.276
 14.570    570.000    564.849      5.151    564.228    564.814    564.228    564.262    564.228
 14.670    549.813    564.760    -14.946    564.175    564.725    564.175    564.210    564.175
 14.770    561.000    564.670     -3.670    564.118    564.635    564.118    564.153    564.118
 14.870    513.000    564.580    -51.580    564.056    564.544    564.056    564.091    564.056
 14.970    584.063    564.489     19.574    563.989    564.454    563.989    564.025    563.989
 15.070    545.000    564.401    -19.401    563.918    564.364    563.918    563.954    563.918
 15.170    519.061    564.312    -45.251    563.843    564.270    563.843    563.884    563.843
 15.270    609.000    564.223     44.777    563.763    564.173    563.763    563.812    563.763
 15.370    566.000    564.123      1.877    563.678    564.072    563.678    563.729    563.678
 15.470    535.000    564.020    -29.020    563.589    563.969    563.589    563.640    563.589
 15.570    545.960    563.915    -17.955    563.496    563.863    563.496    563.548    563.496
 15.670    576.075    563.806     12.269    563.399    563.754    563.399    563.451    563.399
 15.770    563.000    563.695     -0.695    563.297    563.642    563.297    563.350    563.297
 15.870    552.000    563.580    -11.580    563.192    563.527    563.192    563.244    563.192
 15.970    595.715    563.465     32.250    563.082    563.409    563.082    563.138    563.082
 16.070    562.000    563.348     -1.348    562.968    563.288    562.968    563.028    562.968
 16.170    575.941    563.224     12.717    562.851    563.163    562.851    562.911    562.851
 16.270    559.393    563.096     -3.703    562.729    563.036    562.729    562.790    562.729
 16.370    509.000    562.966    -53.966    562.603    562.904    562.603    562.665    562.603
 16.470    544.000    562.833    -18.833    562.474    562.770    562.474    562.536    562.474
 16.570    559.000    562.696     -3.696    562.341    562.633    562.341    562.404    562.341
 16.670    538.773    562.555    -23.783    562.203    562.492    562.203    562.267    562.203
 16.770    512.180    562.412    -50.232    562.063    562.348    562.063    562.127    562.063
 16.870    554.000    562.265     -8.265    561.918    562.200    561.918    561.983    561.918
 16.970    574.430    562.115     12.315    561.770    562.050    561.770    561.835    561.770
 17.070    516.211    561.961    -45.750    561.619    561.896    561.619    561.684    561.619
 17.170    553.365    561.805     -8.440    561.464    561.739    561.464    561.529    561.464
 17.270    535.624    561.645    -26.021    561.305    561.579    561.305    561.371    561.305
 17.370    519.000    561.483    -42.483    561.143    561.416    561.143    561.209    561.143
 17.470    553.000    561.317     -8.317    560.977    561.250    560.977    561.045    560.977
 17.570    522.256    561.149    -38.893    560.809    561.082    560.809    560.876    560.809
 17.670    575.570    560.979     14.591    560.637    560.911    560.637    560.705    560.637
 17.770    588.000    560.805     27.195    560.461    560.736    560.461    560.530    560.461
 17.870    544.000    560.627    -16.627    560.283    560.558    560.283    560.352    560.283
 17.970    540.000    560.447    -20.447    560.101    560.377    560.101    560.170    560.101
 18.070    585.028    560.263     24.765    559.916    560.193    559.916    559.986    559.916
 18.170    565.998    560.077      5.921    559.728    560.006    559.728    559.799    559.728
 18.270    560.000    559.888      0.112    559.537    559.817    559.537    559.608    559.537
 18.370    554.000    559.696     -5.696    559.343    559.625    559.343    559.415    559.343
 18.470    548.857    559.502    -10.645    559.146    559.430    559.146    559.218    559.146
 18.570    539.000    559.305    -20.305    558.946    559.232    558.946    559.019    558.946
 18.670    546.827    559.105    -12.279    558.744    559.032    558.744    558.817    558.744
 18.770    584.485    558.903     25.583    558.538    558.829    558.538    558.612    558.538
 18.870    584.000    558.698     25.302    558.330    558.623    558.330    558.404    558.330
 18.970    581.606    558.491     23.115    558.119    558.415    558.119    558.194    558.119
 19.070    595.690    558.281     37.409    557.905    558.205    557.905    557.981    557.905
 19.170    544.000    558.072    -14.072    557.688    557.992    557.688    557.768    557.688
 19.270    553.000    557.860     -4.860    557.469    557.779    557.469    557.550    557.469
 19.370    589.996    557.644     32.352    557.248    557.562    557.248    557.329    557.248
 19.470    561.000    557.426      3.574    557.023    557.342    557.023    557.107    557.023
 19.570    561.000    557.205      3.795    556.797    557.120    556.797    556.881    556.797
 19.670    588.918    556.982     31.936    556.567    556.897    556.567    556.653    556.567
 19.770    536.000    556.757    -20.757    556.336    556.671    556.336    556.422    556.336
 19.870    552.286    556.530     -4.244    556.102    556.443    556.102    556.189    556.102
 19.970    593.326    556.301     37.025    555.866    556.213    555.866    555.954    555.866
 20.070    589.000    556.072     32.928    555.627    555.983    555.627    555.716    555.627
 20.170    551.000    555.859     -4.859    555.386    555.769    555.386    555.476    555.386
 20.270    583.000    555.626     27.374    555.143    555.536    555.143    555.233    555.143
 20.370    589.121    555.390     33.731    554.898    555.298    554.898    554.989    554.898
 20.470    535.000    555.152    -20.152    554.650    555.059    554.650    554.742    554.650
 20.570    556.000    554.912      1.088    554.400    554.819    554.400    554.494    554.400
 20.670    529.012    554.671    -25.659    554.149    554.577    554.149    554.243    554.149
 20.770    572.000    554.428     17.572    553.895    554.333    553.895    553.990    553.895
 20.870    592.072    554.184     37.887    553.639    554.088    553.639    553.736    553.639
 20.970    535.000    553.939    -18.939    553.382    553.842    553.382    553.479    553.382
 21.070    504.000    553.694    -49.694    553.122    553.594    553.122    553.222    553.122
 21.170    581.000    553.447     27.553    552.861    553.346    552.861    552.962    552.861
 21.270    560.000    553.199      6.801    552.597    553.097    552.597    552.700    552.597
 21.370    574.000    552.950     21.050    552.332    552.846    552.332    552.436    552.332
 21.470    574.000    552.700     21.300    552.065    552.595    552.065    552.170    552.065
 21.570    568.886    552.449     16.436    551.797    552.344    551.797    551.903    551.797
 21.670    538.000    552.199    -14.199    551.526    552.091    551.526    551.633    551.526
 21.770    521.927    551.948    -30.021    551.254    551.839    551.254    551.363    551.254
 21.870    518.000    551.697    -33.697    550.980    551.587    550.980    551.090    550.980
 21.970    538.000    551.446    -13.446    550.705    551.335    550.705    550.816    550.705
 22.070    563.789    551.196     12.593    550.428    551.083    550.428    550.541    550.428
 22.170    553.318    550.953      2.366    550.150    550.839    550.150    550.264    550.150
 22.270    569.000    550.754     18.246    549.870    550.638    549.870    549.986    549.870
 22.370    519.000    550.576    -31.576    549.588    550.452    549.588    549.712    549.588
 22.470    556.000    550.384      5.616    549.306    550.259    549.306    549.432    549.306
 22.570    560.000    550.150      9.850    549.021    550.022    549.021    549.149    549.021
 22.670    542.000    549.913     -7.913    548.736    549.783    548.736    548.865    548.736
 22.770    574.068    549.680     24.389    548.449    549.548    548.449    548.580    548.449
 22.870    534.000    549.452    -15.452    548.161    549.319    548.161    548.294    548.161
 22.970    540.000    549.235     -9.235    547.871    549.100    547.871    548.006    547.871
 23.070    510.769    549.044    -38.275    547.580    548.907    547.580    547.718    547.580
 23.170    595.000    548.886     46.114    547.288    548.747    547.288    547.428    547.288
 23.270    517.000    548.703    -31.703    546.995    548.562    546.995    547.137    546.995
 23.370    536.995    548.535    -11.540    546.701    548.391    546.701    546.845    546.701
 23.470    539.000    548.389     -9.389    546.406    548.243    546.406    546.552    546.406
 23.570    547.000    548.275     -1.275    546.109    548.127    546.109    546.258    546.109
 23.670    566.000    548.202     17.798    545.812    548.052    545.812    545.963    545.812
 23.770    562.000    548.187     13.813    545.513    548.034    545.513    545.667    545.513
 23.870    527.000    548.252    -21.252    545.213    548.096    545.213    545.371    545.213
 23.970    533.000    548.440    -15.440    544.913    548.282    544.913    545.073    544.913
 24.070    528.000    548.843    -20.843    544.612    548.682    544.612    544.775    544.612
 24.170    548.000    549.721     -1.721    544.309    549.557    544.309    544.476    544.309
 24.270    582.000    551.810     30.190    544.006    551.644    544.006    544.176    544.006
 24.370    560.000    556.821      3.179    543.702    556.656    543.702    543.876    543.702
 24.470    590.000    567.545     22.455    543.397    567.384    543.397    543.575    543.397
 24.570    558.000    586.280    -28.280    543.092    586.129    543.092    543.274    543.092
 24.670    612.000    611.004      0.996    542.785    610.868    542.785    542.971    542.785
 24.770    630.000    631.759     -1.759    542.478    631.633    542.478    542.669    542.478
 24.870    633.000    634.772     -1.772    542.171    634.644    542.171    542.366    542.171
 24.970    615.763    617.196     -1.434    541.862    617.050    541.862    542.063    541.862
 25.070    562.000    591.489    -29.489    541.553    591.319    541.553    541.759    541.553
 25.170    555.976    569.977    -14.002    541.244    569.786    541.244    541.455    541.244
 25.270    569.052    556.665     12.388    540.933    556.458    540.933    541.151    540.933
 25.370    572.000    549.931     22.069    540.623    549.712    540.623    540.846    540.623
 25.470    560.000    546.815     13.185    540.311    546.587    540.311    540.542    540.311
 25.570    517.000    545.268    -28.268    540.000    545.029    540.000    540.241    540.000
 25.670    559.000    544.296     14.704    539.687    544.049    539.687    539.937    539.687
 25.770    604.000    543.597     60.403    539.375    543.341    539.375    539.632    539.375
 25.870    535.380    543.030     -7.651    539.062    542.764    539.062    539.328    539.062
 25.970    542.000    542.563     -0.563    538.748    542.287    538.748    539.025    538.748
 26.070    561.000    542.175     18.825    538.434    541.889    538.434    538.721    538.434
 26.170    594.000    541.846     52.154    538.120    541.548    538.120    538.419    538.120
 26.270    563.000    541.572     21.428    537.806    541.261    537.806    538.116    537.806
 26.370    550.000    541.348      8.652    537.491    541.023    537.491    537.815    537.491
 26.470    566.000    541.167     24.833    537.176    540.828    537.176    537.515    537.176
 26.570    548.000    541.036      6.964    536.861    540.681    536.861    537.216    536.861
 26.670    572.000    540.959     31.041    536.545    540.587    536.545    536.918    536.545
 26.770    541.000    540.945      0.055    536.229    540.553    536.229    536.621    536.229
 26.870    546.000    541.005      4.995    535.914    540.592    535.914    536.327    535.914
 26.970    544.000    541.177      2.823    535.598    540.739    535.598    536.034    535.598
 27.070    563.000    541.488     21.512    535.282    541.025    535.282    535.745    535.282
 27.170    571.476    541.913     29.563    534.966    541.420    534.966    535.458    534.966
 27.270    543.266    542.534      0.732    534.649    542.008    534.649    535.174    534.649
 27.370    522.924    543.438    -20.513    534.333    542.875    534.333    534.895    534.333
 27.470    503.192    544.769    -41.577    534.017    544.163    534.017    534.621    534.017
 27.570    550.000    546.881      3.119    533.701    546.228    533.701    534.352    533.701
 27.670    546.818    550.975     -4.157    533.385    550.265    533.385    534.091    533.385
 27.770    598.000    561.037     36.963    533.068    560.261    533.068    533.837    533.068
 27.870    602.000    587.315     14.685    532.752    586.457    532.752    533.594    532.752
 27.970    670.000    646.421     23.579    532.437    645.459    532.437    533.363    532.437
 28.070    763.000    748.193     14.807    532.121    747.101    532.121    533.148    532.121
 28.170    896.000    869.458     26.542    531.805    868.221    531.805    532.952    531.805
 28.270    950.000    943.583      6.417    531.490    942.202    531.490    532.781    531.490
 28.370    901.000    914.808    -13.808    531.174    913.284    531.174    532.641    531.174
 28.470    856.000    815.120     40.880    530.859    813.413    530.859    532.543    530.859
 28.570    721.000    723.149     -2.149    530.544    721.184    530.544    532.500    530.544
 28.670    721.940    691.254     30.686    530.230    688.936    530.230    532.538    530.230
 28.770    747.000    724.972     22.028    529.916    722.171    529.916    532.699    529.916
 28.870    812.000    791.396     20.604    529.602    787.905    529.602    533.070    529.602
 28.970    834.639    833.359      1.280    529.288    828.814    529.288    533.820    529.288
 29.070    842.000    808.761     33.239    528.975    802.494    528.975    535.245    528.975
 29.170    723.000    735.815    -12.815    528.662    726.700    528.662    537.790    528.662
 29.270    647.519    660.731    -13.212    528.349    647.133    528.349    541.960    528.349
 29.370    655.886    611.271     44.615    528.037    591.230    528.037    548.086    528.037
 29.470    563.000    589.319    -26.319    527.725    561.172    527.725    555.874    527.725
 29.570    585.000    583.929      1.071    527.414    547.596    527.414    563.745    527.414
 29.670    605.000    583.087     21.913    527.103    541.658    527.103    568.529    527.103
 29.770    588.953    579.244      9.709    526.793    538.643    526.793    567.391    526.793
 29.870    615.147    571.167     43.979    526.483    536.763    526.483    560.884    526.483
 29.970    632.000    561.493     70.507    526.173    535.451    526.173    552.213    526.173
 30.070    596.535    552.820     43.715    525.865    534.526    525.865    544.157    525.865
 30.170    575.000    546.295     28.705    525.556    533.939    525.556    537.910    525.556
 30.270    606.000    542.079     63.921    525.249    533.760    525.249    533.566    525.249
 30.370    554.000    540.113     13.887    524.942    534.329    524.942    530.722    524.942
 30.470    596.000    540.872     55.128    524.635    536.626    524.635    528.876    524.635
 30.570    541.874    545.921     -4.047    524.330    542.620    524.330    527.620    524.330
 30.670    575.000    557.479     17.521    524.024    554.791    524.024    526.692    524.024
 30.770    581.848    576.113      5.736    523.720    573.850    523.720    525.949    523.720
 30.870    596.000    597.252     -1.252    523.416    595.303    523.416    525.316    523.416
 30.970    629.000    609.966     19.034    523.113    608.267    523.113    524.757    523.113
 31.070    606.322    604.827      1.496    522.811    603.339    522.811    524.251    522.811
 31.170    623.000    585.516     37.484    522.509    584.209    522.509    523.783    522.509
 31.270    559.753    563.454     -3.701    522.208    562.297    522.208    523.346    522.208
 31.370    519.000    546.596    -27.596    521.908    545.561    521.908    522.933    521.908
 31.470    538.551    536.616      1.935    521.609    535.681    521.609    522.538    521.609
 31.570    530.000    531.634     -1.634    521.310    530.782    521.310    522.159    521.310
 31.670    557.000    529.284     27.716    521.013    528.502    521.013    521.793    521.013
 31.770    549.000    528.065     20.935    520.716    527.343    520.716    521.437    520.716
 31.870    544.000    527.307     16.693    520.420    526.636    520.420    521.090    520.420
 31.970    569.000    526.771     42.229    520.125    526.145    520.125    520.750    520.125
 32.070    535.000    526.379      8.621    519.830    525.792    519.830    520.416    519.830
 32.170    573.000    526.102     46.898    519.537    525.549    519.537    520.089    519.537
 32.270    533.000    525.928      7.072    519.245    525.406    519.245    519.766    519.245
 32.370    535.000    525.857      9.143    518.953    525.362    518.953    519.447    518.953
 32.470    539.000    525.893     13.107    518.663    525.421    518.663    519.133    518.663
 32.570    506.000    526.051    -20.051    518.373    525.602    518.373    518.822    518.373
 32.670    583.000    526.350     56.650    518.084    525.919    518.084    518.514    518.084
 32.770    560.862    526.820     34.042    517.797    526.407    517.797    518.209    517.797
 32.870    558.000    527.510     30.490    517.510    527.113    517.510    517.907    517.510
 32.970    578.000    528.490     49.510    517.224    528.106    517.224    517.607    517.224
 33.070    535.000    529.865      5.135    516.940    529.494    516.940    517.309    516.940
 33.170    534.000    531.815      2.185    516.656    531.456    516.656    517.014    516.656
 33.270    499.513    534.742    -35.229    516.374    534.392    516.374    516.721    516.374
 33.370    495.137    539.726    -44.589    516.093    539.385    516.093    516.430    516.093
 33.470    541.000    549.712     -8.712    515.812    549.378    515.812    516.141    515.812
 33.570    563.000    571.558     -8.558    515.533    571.227    515.533    515.854    515.533
 33.670    614.000    617.284     -3.284    515.255    616.951    515.255    515.569    515.255
 33.770    702.123    700.205      1.919    514.978    699.863    514.978    515.285    514.978
 33.870    791.672    822.422    -30.749    514.702    822.069    514.702    515.003    514.702
 33.970    993.000    957.752     35.248    514.427    957.393    514.427    514.723    514.427
 34.070   1079.000   1046.073     32.927    514.154   1045.727    514.154    514.444    514.154
 34.170   1027.000   1031.651     -4.651    513.882   1031.334    513.882    514.167    513.882
 34.270    919.000    925.120     -6.120    513.610    924.831    513.610    513.892    513.610
 34.370    785.000    788.736     -3.736    513.340    788.463    513.340    513.618    513.340
 34.470    654.531    674.784    -20.254    513.072    674.517    513.072    513.345    513.072
 34.570    613.558    601.198     12.360    512.804    600.931    512.804    513.075    512.804
 34.670    543.893    561.779    -17.885    512.538    561.513    512.538    512.805    512.538
 34.770    530.961    542.923    -11.962    512.273    542.658    512.273    512.537    512.273
 34.870    483.000    533.875    -50.875    512.009    533.613    512.009    512.271    512.009
 34.970    535.766    528.910      6.856    511.747    528.650    511.747    512.006    511.747
 35.070    490.000    525.659    -35.659    511.485    525.400    511.485    511.743    511.485
 35.170    555.066    523.259     31.807    511.225    523.003    511.225    511.481    511.225
 35.270    525.000    521.380      3.620    510.967    521.125    510.967    511.221    510.967
 35.370    533.612    519.859     13.753    510.709    519.605    510.709    510.962    510.709
 35.470    567.225    518.599     48.626    510.453    518.347    510.453    510.705    510.453
 35.570    539.000    517.536     21.464    510.199    517.285    510.199    510.449    510.199
 35.670    514.761    516.623     -1.862    509.945    516.373    509.945    510.195    509.945
 35.770    477.040    515.828    -38.788    509.693    515.579    509.693    509.942    509.693
 35.870    530.000    515.127     14.873    509.443    514.879    509.443    509.691    509.443
 35.970    520.000    514.501      5.499    509.194    514.253    509.194    509.441    509.194
 36.070    511.581    513.938     -2.357    508.946    513.690    508.946    509.193    508.946
 36.170    459.000    513.427    -54.427    508.699    513.180    508.699    508.946    508.699
 36.270    495.294    512.960    -17.667    508.454    512.714    508.454    508.701    508.454
 36.370    523.000    512.534     10.466    508.210    512.287    508.210    508.457    508.210
 36.470    488.000    512.143    -24.143    507.968    511.896    507.968    508.215    507.968
 36.570    527.404    511.786     15.618    507.727    511.539    507.727    507.974    507.727
 36.670    493.967    511.463    -17.495    507.488    511.216    507.488    507.735    507.488
 36.770    510.000    511.177     -1.177    507.250    510.930    507.250    507.497    507.250
 36.870    530.000    510.940     19.060    507.013    510.693    507.013    507.261    507.013
 36.970    487.000    510.785    -23.785    506.778    510.537    506.778    507.027    506.778
 37.070    498.975    510.797    -11.822    506.545    510.548    506.545    506.794    506.545
 37.170    492.000    511.158    -19.158    506.313    510.909    506.313    506.562    506.313
 37.270    480.317    512.171    -31.855    506.082    511.922    506.082    506.332    506.082
 37.370    552.332    514.180     38.153    505.853    513.930    505.853    506.104    505.853
 37.470    490.859    517.309    -26.450    505.625    517.059    505.625    505.877    505.625
 37.570    546.000    521.106     24.894    505.399    520.856    505.399    505.652    505.399
 37.670    482.000    524.311    -42.311    505.174    524.061    505.174    505.428    505.174
 37.770    494.000    525.300    -31.300    504.951    525.050    504.951    505.206    504.951
 37.870    510.000    523.471    -13.471    504.730    523.223    504.730    504.986    504.730
 37.970    472.960    519.943    -46.983    504.510    519.695    504.510    504.767    504.510
 38.070    544.000    516.161     27.839    504.291    515.912    504.291    504.550    504.291
 38.170    508.000    512.906     -4.906    504.074    512.655    504.074    504.335    504.074
 38.270    496.000    510.440    -14.440    503.859    510.186    503.859    504.121    503.859
 38.370    507.000    508.731     -1.731    503.645    508.473    503.645    503.909    503.645
 38.470    508.768    507.603      1.165    503.432    507.341    503.432    503.698    503.432
 38.570    458.000    506.862    -48.862    503.222    506.597    503.222    503.489    503.222
 38.670    496.000    506.355    -10.355    503.013    506.087    503.013    503.282    503.013
 38.770    474.000    505.979    -31.979    502.805    505.709    502.805    503.076    502.805
 38.870    506.000    505.673      0.327    502.599    505.400    502.599    502.872    502.599
 38.970    476.000    505.404    -29.404    502.395    505.129    502.395    502.670    502.395
 39.070    485.260    505.158    -19.898    502.192    504.881    502.192    502.469    502.192
 39.170    491.000    504.928    -13.928    501.991    504.648    501.991    502.270    501.991
 39.270    503.811    504.710     -0.899    501.791    504.428    501.791    502.073    501.791
 39.370    493.000    504.503    -11.503    501.593    504.219    501.593    501.877    501.593
 39.470    473.000    504.305    -31.305    501.397    504.019    501.397    501.683    501.397
 39.570    508.000    504.116      3.884    501.202    503.827    501.202    501.491    501.202
 39.670    528.000    503.934     24.066    501.009    503.642    501.009    501.301    501.009
 39.770    526.000    503.760     22.240    500.817    503.466    500.817    501.112    500.817
 39.870    471.000    503.594    -32.594    500.627    503.296    500.627    500.925    500.627
 39.970    515.544    503.435     12.109    500.439    503.134    500.439    500.740    500.439
 40.070    507.800    503.283      4.517    500.253    502.980    500.253    500.556    500.253
 40.170    491.000    503.140    -12.140    500.068    502.834    500.068    500.374    500.068
 40.270    510.046    503.005      7.041    499.884    502.696    499.884    500.194    499.884
 40.370    545.417    502.879     42.537    499.703    502.566    499.703    500.016    499.703
 40.470    466.000    502.764    -36.764    499.523    502.447    499.523    499.840    499.523
 40.570    469.883    502.659    -32.775    499.345    502.339    499.345    499.665    499.345
 40.670    498.000    502.566     -4.566    499.168    502.243    499.168    499.492    499.168
 40.770    506.000    502.488      3.512    498.993    502.161    498.993    499.321    498.993
 40.870    519.000    502.427     16.573    498.820    502.095    498.820    499.152    498.820
 40.970    488.000    502.385    -14.385    498.648    502.049    498.648    498.984    498.648
 41.070    501.537    502.366     -0.828    498.478    502.026    498.478    498.818    498.478
 41.170    475.000    502.375    -27.375    498.310    502.032    498.310    498.654    498.310
 41.270    476.547    502.420    -25.873    498.143    502.072    498.143    498.492    498.143
 41.370    504.000    502.508      1.492    497.978    502.156    497.978    498.332    497.978
 41.470    520.000    502.653     17.347    497.815    502.296    497.815    498.173    497.815
 41.570    471.502    502.873    -31.371    497.654    502.512    497.654    498.017    497.654
 41.670    479.450    503.201    -23.751    497.494    502.834    497.494    497.862    497.494
 41.770    493.000    503.702    -10.702    497.336    503.330    497.336    497.709    497.336
 41.870    469.803    504.533    -34.729    497.179    504.156    497.179    497.558    497.179
 41.970    491.000    506.074    -15.074    497.025    505.693    497.025    497.409    497.025
 42.070    551.000    509.150     41.850    496.872    508.764    496.872    497.262    496.872
 42.170    482.115    515.241    -33.127    496.720    514.852    496.720    497.117    496.720
 42.270    530.000    526.379      3.621    496.571    525.988    496.571    496.973    496.571
 42.370    515.386    544.293    -28.908    496.423    543.905    496.423    496.832    496.423
 42.470    615.398    568.731     46.667    496.277    568.348    496.277    496.692    496.277
 42.570    576.000    595.578    -19.578    496.132    595.203    496.132    496.555    496.132
 42.670    588.000    616.224    -28.224    495.989    615.856    495.989    496.419    495.989
 42.770    568.000    620.909    -52.909    495.848    620.539    495.848    496.285    495.848
 42.870    629.522    606.781     22.741    495.709    606.398    495.709    496.154    495.709
 42.970    557.000    581.261    -24.261    495.571    580.857    495.571    496.024    495.571
 43.070    567.000    554.540     12.460    495.435    554.113    495.435    495.897    495.435
 43.170    503.000    533.027    -30.027    495.301    532.578    495.301    495.771    495.301
 43.270    472.681    518.607    -45.926    495.168    518.140    495.168    495.648    495.168
 43.370    505.000    510.223     -5.223    495.037    509.742    495.037    495.526    495.037
 43.470    509.000    505.793      3.207    494.908    505.299    494.908    495.407    494.908
 43.570    545.577    503.503     42.074    494.781    502.997    494.781    495.290    494.781
 43.670    532.614    502.231     30.383    494.655    501.714    494.655    495.175    494.655
 43.770    458.562    501.423    -42.861    494.531    500.894    494.531    495.062    494.531
 43.870    503.000    500.842      2.158    494.409    500.300    494.409    494.952    494.409
 43.970    515.980    500.393     15.587    494.288    499.839    494.288    494.843    494.288
 44.070    483.000    500.033    -17.033    494.169    499.466    494.169    494.737    494.169
 44.170    539.978    499.740     40.239    494.052    499.159    494.052    494.634    494.052
 44.270    545.923    499.499     46.424    493.937    498.904    493.937    494.532    493.937
 44.370    528.112    499.299     28.813    493.823    498.689    493.823    494.433    493.823
 44.470    508.000    499.134      8.866    493.711    498.509    493.711    494.337    493.711
 44.570    516.000    498.998     17.002    493.601    498.356    493.601    494.243    493.601
 44.670    516.000    498.886     17.114    493.492    498.227    493.492    494.152    493.492
 44.770    490.000    498.797     -8.797    493.385    498.119    493.385    494.063    493.385
 44.870    495.681    498.728     -3.047    493.280    498.031    493.280    493.977    493.280
 44.970    501.167    498.676      2.491    493.176    497.959    493.176    493.894    493.176
 45.070    542.000    498.643     43.357    493.075    497.904    493.075    493.814    493.075
 45.170    487.000    498.625    -11.625    492.974    497.864    492.974    493.736    492.974
 45.270    478.167    498.625    -20.458    492.876    497.838    492.876    493.662    492.876
 45.370    495.000    498.640     -3.640    492.779    497.828    492.779    493.591    492.779
 45.470    510.000    498.672     11.328    492.684    497.832    492.684    493.524    492.684
 45.570    497.477    498.721     -1.244    492.591    497.852    492.591    493.460    492.591
 45.670    526.000    498.789     27.211    492.499    497.888    492.499    493.400    492.499
 45.770    461.025    498.875    -37.850    492.409    497.940    492.409    493.343    492.409
 45.870    476.000    498.982    -22.982    492.321    498.011    492.321    493.291    492.321
 45.970    458.298    499.112    -40.813    492.234    498.102    492.234    493.243    492.234
 46.070    479.000    499.267    -20.267    492.149    498.215    492.149    493.200    492.149
 46.170    493.000    499.450     -6.450    492.066    498.353    492.066    493.162    492.066
 46.270    497.000    499.665     -2.665    491.984    498.519    491.984    493.130    491.984
 46.370    530.000    499.917     30.083    491.904    498.718    491.904    493.103    491.904
 46.470    491.000    500.213     -9.213    491.826    498.956    491.826    493.082    491.826
 46.570    463.322    500.560    -37.238    491.749    499.240    491.749    493.069    491.749
 46.670    483.926    500.972    -17.046    491.675    499.582    491.675    493.063    491.675
 46.770    481.000    501.466    -20.466    491.601    500.000    491.601    493.066    491.601
 46.870    503.000    502.082      0.918    491.530    500.532    491.530    493.078    491.530
 46.970    493.000    502.905     -9.905    491.460    501.263    491.460    493.100    491.460
 47.070    533.758    504.121     29.637    491.391    502.374    491.391    493.135    491.391
 47.170    453.000    506.107    -53.107    491.325    504.245    491.325    493.183    491.325
 47.270    498.000    509.533    -11.533    491.260    507.540    491.260    493.246    491.260
 47.370    505.000    515.351    -10.351    491.196    513.209    491.196    493.327    491.196
 47.470    501.673    524.548    -22.875    491.134    522.236    491.134    493.429    491.134
 47.570    568.000    537.559     30.441    491.074    535.052    491.074    493.554    491.074
 47.670    553.000    553.486     -0.486    491.016    550.755    491.016    493.709    491.016
 47.770    564.000    569.471     -5.471    490.959    566.484    490.959    493.897    490.959
 47.870    531.737    580.855    -49.118    490.903    577.578    490.903    494.125    490.903
 47.970    594.000    583.230     10.770    490.850    579.622    490.850    494.404    490.850
 48.070    538.000    575.923    -37.923    490.798    571.930    490.798    494.744    490.798
 48.170    570.000    562.709      7.291    490.747    558.258    490.747    495.162    490.747
 48.270    592.398    548.600     43.798    490.698    543.592    490.698    495.682    490.698
 48.370    509.010    537.096    -28.086    490.651    531.387    490.651    496.343    490.651
 48.470    497.207    529.678    -32.471    490.605    523.057    490.605    497.217    490.605
 48.570    516.000    526.361    -10.361    490.561    518.484    490.561    498.432    490.561
 48.670    510.000    526.527    -16.527    490.519    516.813    490.519    500.228    490.519
 48.770    495.000    529.653    -34.653    490.478    517.118    490.478    503.009    490.478
 48.870    531.000    535.720     -4.720    490.438    518.749    490.438    507.406    490.438
 48.970    555.000    545.269      9.731    490.401    521.404    490.401    514.260    490.401
 49.070    509.000    559.226    -50.226    490.364    525.091    490.364    524.494    490.364
 49.170    618.310    578.638     39.672    490.330    530.163    490.330    538.796    490.330
 49.270    635.000    604.549     30.451    490.296    537.684    490.296    557.150    490.296
 49.370    619.302    638.496    -19.194    490.265    550.489    490.265    578.255    490.265
 49.470    728.000    684.221     43.779    490.235    575.492    490.235    598.935    490.235
 49.570    709.780    751.085    -41.305    490.206    627.212    490.206    614.032    490.206
 49.670    840.243    858.610    -18.368    490.179    730.582    490.179    618.129    490.179
 49.770   1006.315   1037.418    -31.103    490.154    918.048    490.154    609.403    490.154
 49.870   1375.049   1316.653     58.396    490.130   1215.218    490.130    591.409    490.130
 49.970   1816.000   1695.547    120.453    490.107   1615.543    490.107    569.945    490.107
 50.070   2142.000   2115.883     26.117    490.086   2056.302    490.086    549.543    490.086
 50.170   2456.000   2457.751     -1.751    490.067   2415.189    490.067    532.607    490.067
 50.270   2515.000   2579.896    -64.896    490.049   2550.185    490.049    519.866    490.049
 50.370   2337.855   2416.669    -78.814    490.033   2395.901    490.033    510.999    490.033
 50.470   1982.152   2042.263    -60.111    490.018   2027.332    490.018    505.173    490.018
 50.570   1604.595   1600.516      4.079    490.004   1589.254    490.004    501.464    490.004
 50.670   1222.982   1210.100     12.882    489.992   1201.139    489.992    499.101    489.992
 50.770    879.000    928.736    -49.736    489.982    921.275    489.982    497.540    489.982
 50.870    795.212    758.724     36.488    489.972    752.312    489.972    496.450    489.972
 50.970    705.556    671.385     34.171    489.965    665.757    489.965    495.640    489.965
 51.070    628.000    631.733     -3.733    489.959    626.723    489.959    495.009    489.959
 51.170    641.000    612.456     28.544    489.954    607.945    489.954    494.502    489.954
 51.270    632.000    597.965     34.035    489.950    593.863    489.950    494.086    489.950
 51.370    537.751    582.908    -45.157    489.948    579.144    489.948    493.741    489.948
 51.470    563.000    567.599     -4.599    489.948    564.116    489.948    493.453    489.948
 51.570    562.000    553.815      8.185    489.949    550.569    489.949    493.211    489.949
 51.670    559.000    542.839     16.161    489.951    539.794    489.951    493.007    489.951
 51.770    584.000    535.035     48.965    489.955    532.161    489.955    492.836    489.955
 51.870    488.394    530.049    -41.655    489.960    527.322    489.960    492.692    489.960
 51.970    536.607    527.206      9.401    489.966    524.605    489.966    492.571    489.966
 52.070    553.000    525.858     27.142    489.974    523.366    489.974    492.470    489.974
 52.170    551.000    525.567     25.433    489.983    523.166    489.983    492.386    489.983
 52.270    513.135    526.136    -13.001    489.994    523.814    489.994    492.317    489.994
 52.370    523.000    527.606     -4.606    490.006    525.350    490.006    492.263    490.006
 52.470    529.000    530.311     -1.311    490.019    528.112    490.019    492.220    490.019
 52.570    499.372    535.112    -35.740    490.034    532.958    490.034    492.188    490.034
 52.670    553.000    543.836      9.164    490.049    541.720    490.049    492.166    490.049
 52.770    590.000    559.893     30.107    490.067    557.806    490.067    492.153    490.067
 52.870    631.000    588.708     42.292    490.085    586.641    490.085    492.149    490.085
 52.970    593.857    637.312    -43.455    490.105    635.259    490.105    492.152    490.105
 53.070    722.870    712.324     10.546    490.126    710.281    490.126    492.163    490.126
 53.170    838.488    816.154     22.334    490.149    814.116    490.149    492.181    490.149
 53.270    970.000    942.437     27.563    490.172    940.403    490.172    492.206    490.172
 53.370   1141.000   1072.513     68.487    490.197   1070.483    490.197    492.237    490.197
 53.470   1129.601   1175.142    -45.542    490.224   1173.115    490.224    492.275    490.224
 53.570   1238.000   1214.999     23.001    490.251   1212.970    490.251    492.319    490.251
 53.670   1138.310   1175.190    -36.880    490.280   1173.148    490.280    492.369    490.280
 53.770   1076.000   1072.779      3.221    490.310   1070.710    490.310    492.425    490.310
 53.870    891.000    943.139    -52.139    490.341    941.033    490.341    492.487    490.341
 53.970    861.271    817.462     43.809    490.373    815.310    490.373    492.556    490.373
 54.070    697.000    714.327    -17.327    490.407    712.125    490.407    492.631    490.407
 54.170    655.742    640.034     15.708    490.442    637.777    490.442    492.712    490.442
 54.270    632.000    592.131     39.869    490.478    589.817    490.478    492.800    490.478
 54.370    539.000    563.987    -24.987    490.515    561.612    490.515    492.895    490.515
 54.470    617.000    548.572     68.428    490.554    546.131    490.554    492.998    490.554
 54.570    582.000    540.470     41.530    490.593    537.958    490.593    493.107    490.593
 54.670    581.653    536.281     45.372    490.634    533.692    490.634    493.225    490.634
 54.770    511.000    534.176    -23.176    490.676    531.502    490.676    493.351    490.676
 54.870    578.000    533.284     44.716    490.719    530.518    490.719    493.486    490.719
 54.970    570.086    533.228     36.858    490.763    530.362    490.763    493.631    490.763
 55.070    573.000    533.860     39.140    490.809    530.884    490.809    493.785    490.809
 55.170    530.000    535.135     -5.135    490.855    532.040    490.855    493.951    490.855
 55.270    560.620    537.068     23.552    490.903    533.842    490.903    494.129    490.903
 55.370    560.000    539.718     20.282    490.951    536.351    490.951    494.320    490.951
 55.470    542.000    543.203     -1.203    491.001    539.680    491.001    494.525    491.001
 55.570    519.000    547.738    -28.738    491.052    544.045    491.052    494.745    491.052
 55.670    586.000    553.751     32.249    491.104    549.871    491.104    494.983    491.104
 55.770    571.467    562.165      9.303    491.157    558.081    491.157    495.240    491.157
 55.870    591.000    574.999     16.001    491.211    570.689    491.211    495.519    491.211
 55.970    549.088    596.456    -47.368    491.266    591.895    491.266    495.821    491.266
 56.070    630.000    634.481     -4.481    491.322    629.640    491.322    496.149    491.322
 56.170    665.000    702.255    -37.255    491.379    697.100    491.379    496.508    491.379
 56.270    741.000    818.221    -77.221    491.437    812.714    491.437    496.901    491.437
 56.370    956.000   1002.690    -46.690    491.496    996.792    491.496    497.333    491.496
 56.470   1343.283   1269.697     73.586    491.557   1263.368    491.557    497.810    491.557
 56.570   1638.000   1615.245     22.755    491.618   1608.450    491.618    498.338    491.618
 56.670   1995.000   2006.079    -11.079    491.680   1998.785    491.680    498.926    491.680
 56.770   2305.738   2374.674    -68.936    491.743   2366.848    491.743    499.583    491.743
 56.870   2525.000   2628.274   -103.274    491.807   2619.866    491.807    500.321    491.807
 56.970   2660.425   2683.606    -23.181    491.872   2674.523    491.872    501.156    491.872
 57.070   2459.396   2519.684    -60.288    491.938   2509.779    491.938    502.106    491.938
 57.170   2290.000   2195.552     94.448    492.005   2184.638    492.005    503.195    492.005
 57.270   1823.000   1806.859     16.141    492.073   1794.726    492.073    504.453    492.073
 57.370   1445.000   1436.235      8.765    492.141   1422.649    492.141    505.923    492.141
 57.470   1126.000   1133.382     -7.382    492.211   1118.063    492.211    507.670    492.211
 57.570    923.000    915.162      7.838    492.281    897.736    492.281    509.798    492.281
 57.670    737.000    774.768    -37.768    492.353    754.688    492.353    512.486    492.353
 57.770    696.000    694.102      1.898    492.425    670.506    492.425    516.050    492.425
 57.870    714.000    654.334     59.666    492.498    625.812    492.498    521.034    492.498
 57.970    679.230    641.908     37.322    492.572    606.158    492.572    528.326    492.572
 58.070    649.000    650.246     -1.246    492.647    603.615    492.647    539.273    492.647
 58.170    718.132    678.678     39.454    492.722    615.678    492.722    555.710    492.722
 58.270    743.000    730.172     12.828    492.799    643.119    492.799    579.828    492.799
 58.370    856.513    808.606     47.907    492.876    687.667    492.876    613.780    492.876
 58.470    894.000    915.949    -21.949    492.954    749.852    492.954    659.003    492.954
 58.570    989.000   1049.674    -60.674    493.033    827.316    493.033    715.333    493.033
 58.670   1201.000   1200.784      0.216    493.113    913.808    493.113    780.027    493.113
 58.770   1325.764   1353.489    -27.725    493.193    999.822    493.193    846.802    493.193
 58.870   1482.273   1487.989     -5.716    493.274   1075.933    493.274    905.284    493.274
 58.970   1599.009   1584.350     14.659    493.356   1135.324    493.356    942.353    493.356
 59.070   1633.000   1625.361      7.639    493.438   1171.522    493.438    947.269    493.438
 59.170   1660.000   1602.343     57.657    493.522   1177.472    493.522    918.404    493.522
 59.270   1537.000   1522.841     14.159    493.606   1151.948    493.606    864.523    493.606
 59.370   1359.815   1410.221    -50.406    493.691   1105.057    493.691    798.879    493.691
 59.470   1331.000   1292.471     38.529    493.776   1053.325    493.776    732.932    493.776
 59.570   1122.512   1192.749    -70.237    493.862   1012.524    493.862    674.067    493.862
 59.670   1129.000   1128.160      0.840    493.949    996.159    493.949    625.889    493.949
 59.770   1179.423   1111.185     68.238    494.036   1015.954    494.036    589.156    494.036
 59.870   1211.932   1147.899     64.033    494.125   1079.091    494.125    562.767    494.125
 59.970   1164.699   1233.570    -68.871    494.213   1182.888    494.213    544.677    494.213
 60.070   1357.235   1349.570      7.665    494.303   1310.963    494.303    532.650    494.303
 60.170   1520.000   1463.855     56.145    494.393   1433.244    494.393    524.727    494.393
 60.270   1491.353   1536.872    -45.520    494.483   1511.667    494.483    519.427    494.483
 60.370   1608.000   1535.778     72.222    494.574   1514.387    494.574    515.748    494.574
 60.470   1453.283   1452.396      0.887    494.666   1433.834    494.666    513.067    494.666
 60.570   1374.437   1307.693     66.744    494.759   1291.323    494.759    511.023    494.759
 60.670   1126.791   1136.836    -10.046    494.851   1122.213    494.851    509.412    494.851
 60.770    971.000    971.976     -0.976    494.945    958.762    494.945    508.126    494.945
 60.870    826.000    834.118     -8.118    495.039    822.036    495.039    507.104    495.039
 60.970    699.000    732.036    -33.036    495.133    720.839    495.133    506.320    495.133
 61.070    659.000    665.033     -6.033    495.228    654.487    495.228    505.765    495.228
 61.170    602.000    627.554    -25.554    495.324    617.425    495.324    505.440    495.324
 61.270    620.000    613.710      6.290    495.420    603.760    495.420    505.352    495.420
 61.370    607.350    620.343    -12.993    495.517    610.334    495.517    505.497    495.517
 61.470    699.000    648.156     50.844    495.614    637.868    495.614    505.856    495.614
 61.570    692.000    700.982     -8.982    495.711    690.245    495.711    506.382    495.711
 61.670    779.376    783.423     -4.047    495.809    772.153    495.809    506.986    495.809
 61.770    844.000    897.274    -53.274    495.907    885.526    495.907    507.532    495.907
 61.870   1004.000   1037.632    -33.632    496.006   1025.637    496.006    507.849    496.006
 61.970   1147.603   1190.025    -42.423    496.106   1178.173    496.106    507.787    496.106
 62.070   1287.368   1329.898    -42.531    496.205   1318.635    496.205    507.296    496.205
 62.170   1418.000   1426.129     -8.129    496.305   1415.823    496.305    506.460    496.305
 62.270   1463.000   1451.243     11.757    496.406   1442.095    496.406    505.439    496.406
 62.370   1288.000   1396.555   -108.555    496.506   1388.601    496.506    504.388    496.506
 62.470   1266.000   1278.548    -12.548    496.608   1271.704    496.608    503.415    496.608
 62.570   1122.000   1127.944     -5.944    496.709   1122.061    496.709    502.581    496.709
 62.670    943.000    974.609    -31.609    496.811    969.513    496.811    501.911    496.811
 62.770    882.906    839.686     43.220    496.913    835.207    496.913    501.401    496.913
 62.870    732.000    733.818     -1.818    497.016    729.811    497.016    501.030    497.016
 62.970    612.000    658.578    -46.578    497.119    654.930    497.119    500.772    497.119
 63.070    650.697    609.625     41.072    497.222    606.250    497.222    500.597    497.222
 63.170    593.000    580.186     12.814    497.325    577.027    497.325    500.483    497.325
 63.270    615.000    563.723     51.277    497.429    560.738    497.429    500.411    497.429
 63.370    615.000    555.305     59.695    497.533    552.466    497.533    500.367    497.533
 63.470    509.857    551.943    -42.086    497.637    549.230    497.637    500.343    497.637
 63.570    530.000    552.377    -22.377    497.741    549.776    497.741    500.335    497.741
 63.670    601.366    556.756     44.610    497.846    554.252    497.846    500.339    497.846
 63.770    610.928    566.361     44.567    497.951    563.943    497.951    500.352    497.951
 63.870    573.000    583.356    -10.356    498.056    581.014    498.056    500.374    498.056
 63.970    611.000    610.384      0.616    498.161    608.107    498.161    500.403    498.161
 64.070    637.966    649.860    -11.894    498.267    647.638    498.267    500.438    498.267
 64.170    744.000    702.943     41.057    498.372    700.767    498.372    500.479    498.372
 64.270    820.000    768.356     51.644    498.478    766.219    498.478    500.526    498.478
 64.370    847.000    841.363      5.637    498.584    839.263    498.584    500.577    498.584
 64.470    923.000    913.341      9.659    498.690    911.277    498.690    500.632    498.690
 64.570    939.090    972.643    -33.552    498.796    970.622    498.796    500.692    498.796
 64.670    944.069   1007.744    -63.675    498.903   1005.772    498.903    500.755    498.903
 64.770   1003.000   1011.949     -8.949    499.009   1010.034    499.009    500.822    499.009
 64.870    978.000    986.100     -8.100    499.116    984.245    499.116    500.892    499.116
 64.970    909.000    937.393    -28.393    499.222    935.598    499.222    500.965    499.222
 65.070    920.000    876.329     43.671    499.329    874.592    499.329    501.041    499.329
 65.170    825.000    813.243     11.757    499.436    811.556    499.436    501.119    499.436
 65.270    713.814    755.528    -41.714    499.542    753.883    499.542    501.200    499.542
 65.370    723.000    706.702     16.298    499.649    705.092    499.649    501.283    499.649
 65.470    615.234    667.192    -51.958    499.756    665.607    499.756    501.369    499.756
 65.570    594.000    635.877    -41.877    499.863    634.311    499.863    501.456    499.863
 65.670    591.000    611.342    -20.342    499.970    609.790    499.970    501.546    499.970
 65.770    556.000    592.350    -36.350    500.077    590.808    500.077    501.638    500.077
 65.870    579.000    577.898      1.102    500.183    576.363    500.183    501.731    500.183
 65.970    518.000    567.196    -49.196    500.290    565.668    500.290    501.826    500.290
 66.070    547.000    559.628    -12.628    500.397    558.106    500.397    501.923    500.397
 66.170    597.000    554.689     42.311    500.504    553.172    500.504    502.022    500.504
 66.270    535.000    551.938    -16.938    500.610    550.427    500.610    502.123    500.610
 66.370    510.000    550.999    -40.999    500.717    549.492    500.717    502.225    500.717
 66.470    555.253    551.586      3.667    500.823    550.081    500.823    502.329    500.823
 66.570    561.585    553.557      8.028    500.930    552.053    500.930    502.434    500.930
 66.670    560.000    556.998      3.002    501.036    555.494    501.036    502.541    501.036
 66.770    535.000    562.366    -27.366    501.142    560.860    501.142    502.650    501.142
 66.870    591.246    570.736     20.510    501.248    569.226    501.248    502.760    501.248
 66.970    548.447    584.214    -35.766    501.354    582.697    501.354    502.872    501.354
 67.070    582.890    606.481    -23.591    501.460    604.955    501.460    502.985    501.460
 67.170    658.022    643.361     14.661    501.565    641.824    501.565    503.101    501.565
 67.270    705.540    703.090      2.450    501.670    701.538    501.670    503.218    501.670
 67.370    838.324    795.811     42.513    501.776    794.242    501.776    503.337    501.776
 67.470    928.000    931.833     -3.833    501.881    930.245    501.881    503.457    501.881
 67.570   1100.099   1118.457    -18.358    501.985   1116.852    501.985    503.580    501.985
 67.670   1400.048   1355.817     44.230    502.090   1354.200    502.090    503.705    502.090
 67.770   1635.000   1632.836      2.164    502.194   1631.215    502.194    503.832    502.194
 67.870   1838.000   1924.632    -86.632    502.298   1923.019    502.298    503.961    502.298
 67.970   2260.000   2192.540     67.460    502.402   2190.949    502.402    504.092    502.402
 68.070   2479.000   2388.568     90.432    502.506   2387.010    502.506    504.226    502.506
 68.170   2469.000   2468.122      0.878    502.609   2466.599    502.609    504.363    502.609
 68.270   2414.000   2410.452      3.548    502.712   2408.952    502.712    504.503    502.712
 68.370   2247.107   2231.088     16.020    502.814   2229.581    502.814    504.645    502.814
 68.470   1996.000   1972.120     23.880    502.917   1970.572    502.917    504.792    502.917
 68.570   1669.000   1681.910    -12.910    503.019   1680.288    503.019    504.941    503.019
 68.670   1446.000   1401.009     44.991    503.120   1399.290    503.120    505.095    503.120
 68.770   1109.843   1156.604    -46.761    503.222   1154.777    503.222    505.253    503.222
 68.870    982.000    961.898     20.102    503.323    959.958    503.323    505.415    503.323
 68.970    774.000    818.340    -44.340    503.423    816.289    503.423    505.583    503.423
 69.070    758.000    719.526     38.474    503.524    717.366    503.524    505.756    503.524
 69.170    683.000    655.416     27.584    503.624    653.152    503.624    505.935    503.624
 69.270    665.000    615.706     49.294    503.723    613.337    503.723    506.122    503.723
 69.370    618.000    591.794     26.206    503.822    589.320    503.822    506.315    503.822
 69.470    609.684    577.457     32.227    503.921    574.873    503.921    506.518    503.921
 69.570    577.000    568.667      8.333    504.019    565.966    504.019    506.729    504.019
 69.670    595.520    563.048     32.472    504.117    560.220    504.117    506.951    504.117
 69.770    559.078    559.299     -0.221    504.214    556.333    504.214    507.185    504.214
 69.870    566.477    556.749      9.728    504.311    553.631    504.311    507.432    504.311
 69.970    583.000    555.063     27.937    504.407    551.779    504.407    507.694    504.407
 70.070    616.000    554.080     61.920    504.503    550.612    504.503    507.972    504.503
 70.170    584.000    553.729     30.271    504.599    550.058    504.599    508.270    504.599
 70.270    518.000    554.001    -36.001    504.693    550.104    504.693    508.591    504.693
 70.370    563.000    554.943      8.057    504.788    550.794    504.788    508.936    504.788
 70.470    550.000    556.695     -6.695    504.882    552.264    504.882    509.311    504.882
 70.570    562.000    559.550      2.450    504.975    554.803    504.975    509.719    504.975
 70.670    534.000    564.086    -30.086    505.068    558.982    505.068    510.167    505.068
 70.770    588.706    571.338     17.367    505.160    565.829    505.160    510.662    505.160
 70.870    553.000    583.068    -30.068    505.252    577.095    505.252    511.212    505.252
 70.970    623.313    602.044     21.269    505.343    595.538    505.343    511.831    505.343
 71.070    659.000    632.259     26.741    505.433    625.128    505.433    512.536    505.433
 71.170    711.000    678.889     32.111    505.523    671.014    505.523    513.356    505.523
 71.270    721.000    747.815    -26.815    505.612    739.029    505.612    514.336    505.612
 71.370    890.000    844.522     45.478    505.701    834.578    505.701    515.557    505.701
 71.470    900.000    972.410    -72.410    505.789    960.932    505.789    517.149    505.789
 71.570   1134.000   1130.785      3.215    505.876   1117.181    505.876    519.330    505.876
 71.670   1354.000   1313.031     40.969    505.963   1296.373    505.963    522.439    505.963
 71.770   1515.523   1505.509     10.014    506.049   1484.374    506.049    526.977    506.049
 71.870   1664.000   1687.661    -23.661    506.135   1659.945    506.135    533.632    506.135
 71.970   1845.000   1834.092     10.908    506.219   1796.835    506.219    543.264    506.219
 72.070   1940.000   1920.124     19.876    506.303   1869.405    506.303    556.835    506.303
 72.170   1893.000   1930.914    -37.914    506.387   1861.899    506.387    575.253    506.387
 72.270   1815.864   1868.847    -52.983    506.469   1776.067    506.469    599.144    506.469
 72.370   1848.000   1752.255     95.745    506.551   1630.176    506.551    628.564    506.551
 72.470   1583.000   1606.624    -23.624    506.632   1450.500    506.632    662.719    506.632
 72.570   1537.000   1455.652     81.348    506.713   1262.614    506.713    699.733    506.713
 72.670   1323.000   1316.244      6.756    506.792   1086.522    506.792    736.506    506.792
 72.770   1174.000   1196.880    -22.880    506.871    935.008    506.871    768.738    506.871
 72.870   1069.000   1098.262    -29.262    506.949    813.807    506.949    791.399    506.949
 72.970    984.000   1015.954    -31.954    507.027    722.927    507.027    800.046    507.027
 73.070    980.604    944.259     36.345    507.103    658.589    507.103    792.764    507.103
 73.170    841.299    879.288    -37.988    507.179    615.240    507.179    771.218    507.179
 73.270    820.068    819.624      0.444    507.254    587.151    507.254    739.720    507.254
 73.370    721.000    765.389    -44.389    507.328    569.411    507.328    703.301    507.328
 73.470    699.000    717.264    -18.264    507.401    558.323    507.401    666.339    507.401
 73.570    631.000    675.947    -44.947    507.474    551.387    507.474    632.032    507.474
 73.670    638.000    641.871     -3.871    507.546    547.068    507.546    602.350    507.546
 73.770    563.000    615.052    -52.052    507.616    544.508    507.616    578.164    507.616
 73.870    600.000    595.049      4.951    507.686    543.266    507.686    559.476    507.686
 73.970    558.000    581.054    -23.054    507.755    543.122    507.755    545.697    507.755
 74.070    596.000    572.030     23.970    507.823    543.935    507.823    535.932    507.823
 74.170    556.000    566.859    -10.859    507.891    545.551    507.891    529.218    507.891
 74.270    608.000    564.442     43.558    507.957    547.742    507.957    524.683    507.957
 74.370    547.000    563.752    -16.752    508.023    550.181    508.023    521.625    508.023
 74.470    548.598    563.850    -15.251    508.087    552.444    508.087    519.529    508.087
 74.570    621.000    563.902     57.098    508.151    554.049    508.151    518.045    508.151
 74.670    666.000    563.247    102.753    508.213    554.557    508.213    516.946    508.213
 74.770    632.000    561.509     70.491    508.275    553.732    508.275    516.096    508.275
 74.870    656.000    558.684     97.316    508.336    551.650    508.336    515.411    508.336
 74.970    620.000    555.080     64.920    508.396    548.669    508.396    514.843    508.396
 75.070    511.266    551.174    -39.908    508.455    545.297    508.455    514.363    508.455
 75.170    548.000    547.482      0.518    508.512    542.066    508.512    513.952    508.512
 75.270    552.000    544.498      7.502    508.569    539.488    508.569    513.597    508.569
 75.370    553.000    542.697     10.303    508.625    538.045    508.625    513.289    508.625
 75.470    501.795    542.552    -40.756    508.680    538.217    508.680    513.020    508.680
 75.570    541.000    544.558     -3.558    508.734    540.506    508.734    512.785    508.734
 75.670    564.000    549.240     14.760    508.787    545.441    508.787    512.580    508.787
 75.770    560.327    557.117      3.210    508.838    553.545    508.838    512.399    508.838
 75.870    579.599    568.605     10.995    508.889    565.235    508.889    512.239    508.889
 75.970    557.954    583.870    -25.917    508.939    580.683    508.939    512.099    508.939
 76.070    599.000    602.658     -3.658    508.988    599.635    508.988    511.975    508.988
 76.170    666.000    624.131     41.869    509.035    621.257    509.035    511.865    509.035
 76.270    608.000    646.779    -38.779    509.082    644.041    509.082    511.768    509.082
 76.370    658.000    668.417    -10.417    509.127    665.804    509.127    511.682    509.127
 76.470    714.741    686.343     28.398    509.171    683.847    509.171    511.606    509.171
 76.570    649.000    697.755    -48.755    509.215    695.371    509.215    511.538    509.215
 76.670    737.596    700.518     37.078    509.257    698.239    509.257    511.478    509.257
 76.770    684.000    694.018    -10.018    509.298    691.839    509.298    511.425    509.298
 76.870    626.493    679.464    -52.971    509.338    677.380    509.338    511.378    509.338
 76.970    685.206    659.334     25.872    509.376    657.339    509.376    511.336    509.376
 77.070    660.000    636.462     23.538    509.414    634.549    509.414    511.298    509.414
 77.170    651.029    613.382     37.647    509.451    611.547    509.451    511.265    509.451
 77.270    591.000    592.018     -1.018    509.486    590.253    509.486    511.236    509.486
 77.370    594.000    573.586     20.414    509.520    571.886    509.520    511.210    509.520
 77.470    579.568    558.634     20.934    509.553    556.994    509.553    511.186    509.553
 77.570    564.647    547.158     17.489    509.585    545.573    509.585    511.166    509.585
 77.670    530.000    538.780     -8.780    509.616    537.245    509.616    511.147    509.616
 77.770    493.000    532.924    -39.924    509.645    531.436    509.645    511.131    509.645
 77.870    545.000    528.976     16.024    509.674    527.531    509.674    511.116    509.674
 77.970    537.429    526.381     11.049    509.701    524.977    509.701    511.103    509.701
 78.070    528.000    524.696      3.304    509.727    523.330    509.727    511.091    509.727
 78.170    509.419    523.597    -14.177    509.751    522.267    509.751    511.081    509.751
 78.270    534.000    522.861     11.139    509.775    521.564    509.775    511.071    509.775
 78.370    497.417    522.323    -24.906    509.797    521.057    509.797    511.062    509.797
 78.470    515.000    521.981     -6.981    509.818    520.744    509.818    511.054    509.818
 78.570    481.000    521.759    -40.759    509.838    520.549    509.838    511.047    509.838
 78.670    538.000    521.635     16.365    509.856    520.450    509.856    511.040    509.856
 78.770    511.000    521.607    -10.607    509.874    520.446    509.874    511.035    509.874
 78.870    524.000    521.687      2.313    509.890    520.547    509.890    511.029    509.890
 78.970    511.000    521.893    -10.893    509.904    520.772    509.904    511.025    509.904
 79.070    549.000    522.250     26.750    509.918    521.145    509.918    511.022    509.918
 79.170    486.000    522.788    -36.788    509.930    521.696    509.930    511.020    509.930
 79.270    490.142    523.537    -33.396    509.941    522.456    509.941    511.020    509.941
 79.370    514.000    524.530    -10.530    509.951    523.454    509.951    511.024    509.951
 79.470    526.000    525.794      0.206    509.959    524.718    509.959    511.032    509.959
 79.570    535.203    527.360      7.843    509.966    526.277    509.966    511.046    509.966
 79.670    521.000    529.269     -8.269    509.972    528.169    509.972    511.067    509.972
 79.770    516.197    531.581    -15.384    509.976    530.456    509.976    511.097    509.976
 79.870    528.000    534.400     -6.400    509.979    533.236    509.979    511.137    509.979
 79.970    529.000    537.885     -8.885    509.981    536.672    509.981    511.189    509.981
 80.070    503.000    542.284    -39.284    509.981    541.009    509.981    511.251    509.981
 80.170    561.962    547.942     14.020    509.980    546.594    509.980    511.324    509.980
 80.270    547.074    555.299     -8.226    509.978    553.871    509.978    511.403    509.978
 80.370    537.000    564.834    -27.834    509.974    563.322    509.974    511.485    509.974
 80.470    581.000    576.959      4.041    509.970    575.367    509.970    511.563    509.970
 80.570    602.552    591.901     10.651    509.963    590.242    509.963    511.629    509.963
 80.670    572.318    609.591    -37.273    509.956    607.885    509.956    511.673    509.956
 80.770    626.502    629.585     -3.083    509.946    627.862    509.946    511.686    509.946
 80.870    623.000    651.030    -28.030    509.936    649.325    509.936    511.665    509.936
 80.970    682.590    672.716      9.873    509.924    671.063    509.924    511.608    509.924
 81.070    673.810    693.233    -19.423    509.911    691.659    509.911    511.522    509.911
 81.170    746.000    711.193     34.807    509.897    709.717    509.897    511.416    509.897
 81.270    684.154    725.425    -41.271    509.881    724.057    509.881    511.298    509.881
 81.370    777.873    735.057     42.816    509.863    733.798    509.863    511.178    509.863
 81.470    810.000    739.575     70.425    509.845    738.420    509.845    511.060    509.845
 81.570    763.369    738.867     24.502    509.824    737.806    509.824    510.949    509.824
 81.670    823.000    733.187     89.813    509.803    732.208    509.803    510.849    509.803
 81.770    799.000    723.077     75.923    509.780    722.167    509.780    510.759    509.780
 81.870    663.891    709.363    -45.472    509.756    708.509    509.756    510.679    509.756
 81.970    725.000    693.145     31.855    509.730    692.333    509.730    510.609    509.730
 82.070    672.210    675.635     -3.426    509.703    674.856    509.703    510.548    509.703
 82.170    637.000    657.903    -20.903    509.674    657.148    509.674    510.492    509.674
 82.270    652.000    640.683     11.317    509.644    639.945    509.644    510.442    509.644
 82.370    613.172    624.370    -11.197    509.612    623.643    509.612    510.395    509.612
 82.470    560.050    609.142    -49.092    509.579    608.422    509.579    510.349    509.579
 82.570    602.000    595.126      6.874    509.545    594.410    509.545    510.305    509.545
 82.670    554.669    582.484    -27.815    509.509    581.770    509.509    510.262    509.509
 82.770    585.000    571.417     13.583    509.472    570.703    509.472    510.218    509.472
 82.870    543.000    562.119    -19.119    509.433    561.403    509.433    510.174    509.433
 82.970    517.943    554.747    -36.804    509.393    554.029    509.393    510.129    509.393
 83.070    590.590    549.410     41.180    509.351    548.688    509.351    510.084    509.351
 83.170    579.000    546.149     32.851    509.308    545.424    509.308    510.037    509.308
 83.270    520.279    544.937    -24.657    509.264    544.206    509.264    509.990    509.264
 83.370    503.532    545.642    -42.110    509.218    544.907    509.218    509.941    509.218
 83.470    587.310    548.027     39.283    509.170    547.287    509.170    509.892    509.170
 83.570    543.000    551.731     -8.731    509.121    550.985    509.121    509.841    509.121
 83.670    550.000    556.277     -6.277    509.071    555.526    509.071    509.789    509.071
 83.770    525.142    561.087    -35.945    509.019    560.332    509.019    509.736    509.019
 83.870    551.000    565.511    -14.511    508.965    564.752    508.965    509.682    508.965
 83.970    507.000    568.888    -61.888    508.910    568.126    508.910    509.627    508.910
 84.070    592.917    570.642     22.274    508.854    569.880    508.854    509.570    508.854
 84.170    560.000    570.417    -10.417    508.796    569.656    508.796    509.512    508.796
 84.270    604.442    568.168     36.274    508.737    567.410    508.737    509.454    508.737
 84.370    591.000    564.171     26.829    508.676    563.417    508.676    509.393    508.676
 84.470    556.000    558.913     -2.913    508.614    558.163    508.614    509.332    508.614
 84.570    560.000    552.957      7.043    508.550    552.211    508.550    509.269    508.550
 84.670    547.000    546.835      0.165    508.485    546.093    508.485    509.206    508.485
 84.770    549.000    540.986      8.014    508.418    540.247    508.418    509.141    508.418
 84.870    530.000    535.727     -5.727    508.350    534.990    508.350    509.074    508.350
 84.970    520.000    531.247    -11.247    508.280    530.510    508.280    509.007    508.280
 85.070    459.000    527.617    -68.617    508.209    526.880    508.209    508.938    508.209
 85.170    489.000    524.816    -35.816    508.136    524.078    508.136    508.868    508.136
 85.270    508.281    522.762    -14.481    508.062    522.022    508.062    508.797    508.062
 85.370    530.000    521.340      8.660    507.986    520.597    507.986    508.724    507.986
 85.470    517.000    520.433     -3.433    507.909    519.687    507.909    508.651    507.909
 85.570    538.500    519.942     18.559    507.830    519.192    507.830    508.576    507.830
 85.670    520.000    519.793      0.207    507.750    519.039    507.750    508.499    507.750
 85.770    503.570    519.952    -16.382    507.668    519.195    507.668    508.420    507.668
 85.870    486.017    520.427    -34.410    507.585    519.664    507.585    508.342    507.585
 85.970    529.000    521.265      7.735    507.500    520.496    507.500    508.262    507.500
 86.070    539.000    522.558     16.442    507.413    521.781    507.413    508.181    507.413
 86.170    524.265    524.438     -0.173    507.326    523.654    507.326    508.099    507.326
 86.270    499.506    527.076    -27.570    507.236    526.282    507.236    508.015    507.236
 86.370    529.177    530.664     -1.486    507.146    529.859    507.146    507.931    507.146
 86.470    531.000    535.400     -4.400    507.053    534.583    507.053    507.845    507.053
 86.570    587.321    541.457     45.864    506.960    540.625    506.960    507.758    506.960
 86.670    551.474    548.943      2.530    506.864    548.095    506.864    507.670    506.864
 86.770    541.000    557.863    -16.863    506.768    556.997    506.768    507.581    506.768
 86.870    531.912    568.072    -36.160    506.669    567.186    506.669    507.491    506.669
 86.970    595.000    579.244     15.756    506.570    578.337    506.570    507.400    506.570
 87.070    585.000    590.847     -5.847    506.468    589.919    506.468    507.307    506.468
 87.170    631.000    602.211     28.789    506.366    601.263    506.366    507.214    506.366
 87.270    659.000    612.459     46.541    506.261    611.492    506.261    507.120    506.261
 87.370    640.504    620.650     19.854    506.156    619.666    506.156    507.024    506.156
 87.470    639.743    625.916     13.827    506.048    624.921    506.048    506.928    506.048
 87.570    633.092    627.662      5.430    505.940    626.658    505.940    506.830    505.940
 87.670    656.000    625.735     30.265    505.830    624.725    505.830    506.732    505.830
 87.770    576.971    620.478    -43.506    505.718    619.466    505.718    506.633    505.718
 87.870    648.669    612.618     36.051    505.605    611.605    505.605    506.533    505.605
 87.970    647.817    603.088     44.729    505.490    602.075    505.490    506.432    505.490
 88.070    580.289    592.871    -12.581    505.374    591.857    505.374    506.331    505.374
 88.170    577.000    582.893     -5.893    505.256    581.877    505.256    506.228    505.256
 88.270    562.000    573.956    -11.956    505.137    572.936    505.137    506.125    505.137
 88.370    602.000    566.693     35.307    505.017    565.668    505.017    506.022    505.017
 88.470    547.541    561.542    -14.001    504.895    560.509    504.895    505.917    504.895
 88.570    514.000    558.734    -44.734    504.771    557.691    504.771    505.813    504.771
 88.670    536.993    558.298    -21.305    504.646    557.243    504.646    505.708    504.646
 88.770    573.000    560.076     12.924    504.520    559.008    504.520    505.602    504.520
 88.870    579.272    563.735     15.537    504.392    562.653    504.392    505.496    504.392
 88.970    634.000    568.797     65.203    504.263    567.699    504.263    505.390    504.263
 89.070    606.046    574.657     31.389    504.132    573.542    504.132    505.284    504.132
 89.170    594.000    580.620     13.380    504.000    579.486    504.000    505.178    504.000
 89.270    591.821    585.943      5.878    503.866    584.789    503.866    505.071    503.866
 89.370    625.000    589.899     35.101    503.731    588.724    503.731    504.963    503.731
 89.470    524.000    591.890    -67.890    503.595    590.688    503.595    504.858    503.595
 89.570    600.000    591.547      8.453    503.457    590.314    503.457    504.753    503.457
 89.670    638.147    588.829     49.319    503.317    587.559    503.317    504.650    503.317
 89.770    594.000    584.010      9.990    503.177    582.700    503.177    504.547    503.177
 89.870    619.840    577.589     42.250    503.034    576.235    503.034    504.445    503.034
 89.970    578.752    570.164      8.588    502.891    568.760    502.891    504.346    502.891
 90.070    576.000    562.322     13.678    502.746    560.864    502.746    504.248    502.746
 90.170    507.000    554.579    -47.579    502.599    553.064    502.599    504.152    502.599
 90.270    541.160    547.342     -6.183    502.451    545.766    502.451    504.058    502.451
 90.370    536.000    540.898     -4.898    502.302    539.256    502.302    503.968    502.302
 90.470    537.252    535.408      1.844    502.152    533.697    502.152    503.882    502.152
 90.570    495.023    530.928    -35.905    502.000    529.142    502.000    503.800    502.000
 90.670    549.888    527.427     22.461    501.846    525.561    501.846    503.723    501.846
 90.770    540.000    524.800     15.200    501.692    522.846    501.692    503.653    501.692
 90.870    488.000    522.922    -34.922    501.536    520.871    501.536    503.591    501.536
 90.970    532.308    521.730     10.578    501.378    519.572    501.378    503.539    501.378
 91.070    526.000    521.080      4.920    501.219    518.798    501.219    503.502    501.219
 91.170    486.000    520.882    -34.882    501.059    518.457    501.059    503.483    501.059
 91.270    521.481    521.088      0.393    500.898    518.494    500.898    503.490    500.898
 91.370    506.000    521.692    -15.692    500.735    518.893    500.735    503.533    500.735
 91.470    531.000    522.734      8.266    500.571    519.679    500.571    503.623    500.571
 91.570    482.932    524.297    -41.366    500.405    520.919    500.405    503.779    500.405
 91.670    542.000    526.525     15.475    500.238    522.734    500.238    504.025    500.238
 91.770    540.000    529.600     10.400    500.070    525.275    500.070    504.388    500.070
 91.870    523.000    533.746    -10.746    499.901    528.732    499.901    504.906    499.901
 91.970    551.000    539.226     11.774    499.730    533.323    499.730    505.621    499.730
 92.070    523.000    546.314    -23.314    499.558    539.277    499.558    506.579    499.558
 92.170    553.000    555.281     -2.281    499.385    546.814    499.385    507.831    499.385
 92.270    564.000    566.361     -2.361    499.210    556.119    499.210    509.426    499.210
 92.370    539.032    579.716    -40.683    499.035    567.310    499.035    511.407    499.035
 92.470    609.949    595.404     14.545    498.858    580.417    498.858    513.806    498.858
 92.570    589.417    613.348    -23.931    498.679    595.347    498.679    516.634    498.679
 92.670    682.480    633.308     49.172    498.500    611.875    498.500    519.878    498.500
 92.770    688.000    654.865     33.135    498.319    629.629    498.319    523.494    498.319
 92.870    736.000    677.418     58.582    498.137    648.085    498.137    527.402    498.137
 92.970    768.000    700.226     67.774    497.954    666.630    497.954    531.478    497.954
 93.070    691.000    722.428    -31.428    497.769    684.564    497.769    535.556    497.769
 93.170    774.476    743.170     31.306    497.584    701.247    497.584    539.428    497.584
 93.270    765.949    761.743      4.206    497.397    716.215    497.397    542.845    497.397
 93.370    751.000    777.697    -26.697    497.209    729.289    497.209    545.537    497.209
 93.470    764.665    790.891    -26.226    497.020    740.583    497.020    547.250    497.020
 93.570    752.196    801.459    -49.264    496.829    750.422    496.829    547.791    496.829
 93.670    857.008    809.743     47.265    496.638    759.225    496.638    547.083    496.638
 93.770    855.000    816.228     38.772    496.445    767.417    496.445    545.186    496.445
 93.870    776.903    821.510    -44.607    496.252    775.417    496.252    542.278    496.252
 93.970    824.000    826.274     -2.274    496.057    783.659    496.057    538.608    496.057
 94.070    841.480    831.262     10.218    495.861    792.615    495.861    534.446    495.861
 94.170    847.000    837.168      9.832    495.664    802.728    495.664    530.045    495.664
 94.270    846.000    844.482      1.518    495.466    814.271    495.466    525.620    495.466
 94.370    839.237    853.311    -14.075    495.266    827.180    495.266    521.343    495.266
 94.470    838.000    863.271    -25.271    495.066    840.943    495.066    517.342    495.066
 94.570    882.000    873.461      8.539    494.865    854.572    494.865    513.705    494.865
 94.670    842.000    882.533    -40.533    494.662    866.671    494.662    510.482    494.662
 94.770    942.000    888.850     53.150    494.459    875.584    494.459    507.689    494.459
 94.870    900.000    890.729      9.271    494.254    879.638    494.254    505.317    494.254
 94.970    860.642    886.776    -26.134    494.049    877.469    494.049    503.337    494.049
 95.070    951.000    876.228     74.772    493.842    868.351    493.842    501.709    493.842
 95.170    834.000    859.154    -25.154    493.635    852.405    493.635    500.382    493.635
 95.270    867.000    836.467     30.533    493.427    830.590    493.427    499.309    493.427
 95.370    827.000    809.723     17.277    493.217    804.512    493.217    498.440    493.217
 95.470    767.000    780.796    -13.796    493.007    776.084    493.007    497.734    493.007
 95.570    788.000    751.678     36.322    492.796    747.338    492.796    497.152    492.796
 95.670    768.000    724.316     43.684    492.583    720.249    492.583    496.666    492.583
 95.770    702.000    700.506      1.494    492.370    696.638    492.370    496.251    492.370
 95.870    668.000    681.848    -13.848    492.156    678.124    492.156    495.890    492.156
 95.970    697.000    669.724     27.276    491.941    666.101    491.941    495.568    491.941
 96.070    713.736    665.304     48.432    491.725    661.750    491.725    495.276    491.725
 96.170    645.666    669.566    -23.900    491.509    666.055    491.509    495.007    491.509
 96.270    676.000    683.303     -7.303    491.291    679.816    491.291    494.756    491.291
 96.370    725.000    707.118     17.882    491.073    703.636    491.073    494.521    491.073
 96.470    794.000    741.376     52.624    490.854    737.887    490.854    494.298    490.854
 96.570    809.000    786.136     22.864    490.634    782.626    490.634    494.087    490.634
 96.670    865.000    841.038     23.962    490.413    837.496    490.413    493.886    490.413
 96.770    865.000    905.185    -40.185    490.191    901.601    490.191    493.696    490.191
 96.870    952.000    977.051    -25.051    489.969    973.417    489.969    493.515    489.969
 96.970   1056.000   1054.397      1.603    489.746   1050.703    489.746    493.344    489.746
 97.070   1115.000   1134.243    -19.243    489.522   1130.484    489.522    493.182    489.522
 97.170   1254.051   1212.920     41.131    489.298   1209.087    489.298    493.030    489.298
 97.270   1239.000   1286.184    -47.184    489.072   1282.272    489.072    492.889    489.072
 97.370   1398.178   1349.469     48.710    488.847   1345.472    488.847    492.758    488.847
 97.470   1356.000   1398.311    -42.311    488.620   1394.222    488.620    492.638    488.620
 97.570   1357.419   1428.959    -71.540    488.393   1424.769    488.393    492.530    488.393
 97.670   1476.000   1439.044     36.956    488.165   1434.742    488.165    492.436    488.165
 97.770   1427.000   1428.063     -1.063    487.936   1423.636    487.936    492.355    487.936
 97.870   1481.000   1397.436     83.564    487.707   1392.865    487.707    492.291    487.707
 97.970   1402.000   1350.125     51.875    487.477   1345.390    487.477    492.244    487.477
 98.070   1253.374   1290.050    -36.676    487.247   1285.126    487.247    492.218    487.247
 98.170   1303.000   1221.527     81.473    487.016   1216.384    487.016    492.216    487.016
 98.270   1098.664   1148.855    -50.191    486.785   1143.459    486.785    492.243    486.785
 98.370   1073.000   1076.044     -3.044    486.553   1070.355    486.553    492.305    486.553
 98.470    958.888   1006.639    -47.751    486.320   1000.607    486.320    492.413    486.320
 98.570    959.862    943.636     16.226    486.088    937.200    486.088    492.580    486.088
 98.670    917.000    889.460     27.540    485.854    882.540    485.854    492.823    485.854
 98.770    815.000    845.994    -30.994    485.620    838.487    485.620    493.167    485.620
 98.870    830.000    814.647     15.353    485.386    806.417    485.386    493.645    485.386
 98.970    830.935    796.479     34.457    485.151    787.347    485.151    494.302    485.151
 99.070    802.000    792.204      9.796    484.916    781.936    484.916    495.192    484.916
 99.170    803.000    802.320      0.680    484.681    790.611    484.681    496.389    484.681
 99.270    833.000    827.134      5.866    484.445    813.593    484.445    497.977    484.445
 99.370    870.000    866.757      3.243    484.208    850.889    484.208    500.062    484.208
 99.470    932.000    921.065     10.935    483.972    902.255    483.972    502.761    483.972
 99.570    968.000    989.618    -21.618    483.735    967.123    483.735    506.208    483.735
 99.670   1098.540   1071.569     26.972    483.498   1044.504    483.498    510.541    483.498
 99.770   1146.000   1165.558    -19.558    483.260   1132.902    483.260    515.899    483.260
 99.870   1225.000   1269.621    -44.621    483.023   1230.225    483.023    522.410    483.023
 99.970   1446.638   1381.126     65.512    482.785   1333.737    482.785    530.176    482.785
100.070   1539.000   1496.753     42.247    482.547   1440.055    482.547    539.263    482.547
100.170   1652.000   1612.570     39.430    482.308   1545.233    482.308    549.682    482.308
100.270   1763.669   1724.222     39.447    482.070   1644.976    482.070    561.376    482.070
100.370   1819.163   1827.274     -8.111    481.831   1734.985    481.831    574.205    481.831
100.470   1932.567   1917.614     14.953    481.592   1811.378    481.592    587.939    481.592
100.570   2024.027   1991.807     32.220    481.353   1871.049    481.353    602.247    481.353
100.670   2139.770   2047.242     92.528    481.114   1911.819    481.114    616.697    481.114
100.770   2016.651   2082.070    -65.419    480.875   1932.372    480.875    630.753    480.875
100.870   2013.333   2095.087    -81.754    480.636   1932.132    480.636    643.788    480.636
100.970   2133.064   2085.759     47.304    480.397   1911.260    480.397    655.104    480.397
101.070   2123.000   2054.454     68.546    480.158   1870.837    480.158    663.991    480.158
101.170   1973.496   2002.751    -29.255    479.919   1813.089    479.919    669.800    479.919
101.270   1931.716   1933.598     -1.882    479.680   1741.440    479.680    672.055    479.680
101.370   1836.000   1851.141    -15.141    479.441   1660.242    479.441    670.550    479.441
101.470   1826.605   1760.258     66.347    479.202   1574.268    479.202    665.393    479.202
101.570   1654.000   1665.982    -11.982    478.963   1488.152    478.963    656.981    478.963
101.670   1624.000   1572.963     51.037    478.724   1405.942    478.724    645.919    478.724
101.770   1480.000   1485.097     -5.097    478.486   1330.833    478.486    632.907    478.486
101.870   1413.000   1405.303      7.697    478.247   1265.038    478.247    618.654    478.247
101.970   1314.734   1335.432    -20.698    478.009   1209.758    478.009    603.811    478.009
102.070   1268.000   1276.275     -8.275    477.771   1165.218    477.771    588.944    477.771
102.170   1181.000   1227.631    -46.631    477.534   1130.749    477.534    574.520    477.534
102.270   1178.519   1188.424     -9.906    477.296   1104.909    477.296    560.907    477.296
102.370   1156.504   1156.857     -0.352    477.059   1085.641    477.059    548.366    477.059
102.470   1189.555   1130.625     58.930    476.822   1070.472    476.822    537.063    476.822
102.570   1122.000   1107.182     14.818    476.586   1056.772    476.586    527.082    476.586
102.670   1075.000   1084.046     -9.046    476.350   1042.051    476.350    518.432    476.350
102.770   1092.000   1059.137     32.863    476.114   1024.274    476.114    511.064    476.114
102.870   1071.000   1031.032     39.968    475.879   1002.118    475.879    504.881    475.879
102.970   1045.628    999.111     46.517    475.644    975.079    475.644    499.764    475.644
103.070    940.000    963.498    -23.498    475.409    943.407    475.409    495.587    475.409
103.170    906.536    924.860    -18.324    475.176    907.916    475.176    492.203    475.176
103.270    825.448    884.211    -58.763    474.942    869.756    474.942    489.477    474.942
103.370    822.905    842.708    -19.802    474.709    830.206    474.709    487.285    474.709
103.470    801.000    801.506     -0.506    474.477    790.533    474.477    485.518    474.477
103.570    753.539    761.679     -8.139    474.245    751.901    474.245    484.084    474.245
103.670    690.762    724.128    -33.366    474.014    715.289    474.014    482.907    474.014
103.770    614.000    689.557    -75.557    473.784    681.462    473.784    481.926    473.784
103.870    656.639    658.451     -1.812    473.554    650.952    473.554    481.093    473.554
103.970    637.041    631.085      5.956    473.325    624.071    473.325    480.372    473.325
104.070    633.000    607.516     25.484    473.097    600.904    473.097    479.736    473.097
104.170    572.000    587.631    -15.631    472.870    581.359    472.870    479.165    472.870
104.270    595.000    571.187     23.813    472.643    565.205    472.643    478.643    472.643
104.370    586.000    557.849     28.151    472.417    552.119    472.417    478.161    472.417
104.470    552.000    547.234      4.766    472.192    541.725    472.192    477.711    472.192
104.570    496.566    538.946    -42.380    471.968    533.633    471.968    477.288    471.968
104.670    514.000    532.605    -18.605    471.744    527.468    471.744    476.887    471.744
104.770    512.000    527.868    -15.868    471.522    522.889    471.522    476.505    471.522
104.870    561.000    524.440     36.560    471.301    519.603    471.301    476.140    471.301
104.970    531.000    522.084      8.916    471.080    517.374    471.080    475.791    471.080
105.070    525.000    520.618      4.382    470.861    516.022    470.861    475.456    470.861
105.170    562.187    519.917     42.271    470.643    515.424    470.643    475.133    470.643
105.270    494.974    519.905    -24.931    470.425    515.505    470.425    474.822    470.425
105.370    531.000    520.557     10.443    470.209    516.238    470.209    474.523    470.209
105.470    559.516    521.885     37.632    469.994    517.639    469.994    474.233    469.994
105.570    518.000    523.936     -5.936    469.780    519.755    469.780    473.954    469.780
105.670    540.590    526.789     13.801    469.568    522.664    469.568    473.683    469.568
105.770    488.024    530.537    -42.513    469.356    526.461    469.356    473.421    469.356
105.870    499.859    535.285    -35.426    469.146    531.250    469.146    473.167    469.146
105.970    531.000    541.130    -10.130    468.937    537.128    468.937    472.922    468.937
106.070    548.000    548.148     -0.148    468.730    544.175    468.730    472.683    468.730
106.170    567.000    556.382     10.618    468.524    552.430    468.524    472.453    468.524
106.270    558.000    565.822     -7.822    468.319    561.886    468.319    472.229    468.319
106.370    581.757    576.401      5.355    468.115    572.475    468.115    472.012    468.115
106.470    558.372    587.981    -29.609    467.914    584.059    467.914    471.802    467.914
106.570    590.821    600.352     -9.531    467.713    596.430    467.713    471.599    467.713
106.670    613.272    613.233      0.039    467.514    609.305    467.514    471.402    467.514
106.770    586.366    626.279    -39.912    467.317    622.341    467.317    471.211    467.317
106.870    637.000    639.089     -2.089    467.121    635.138    467.121    471.027    467.121
106.970    667.000    651.229     15.771    466.927    647.260    466.927    470.850    466.927
107.070    662.000    662.250     -0.250    466.734    658.259    466.734    470.679    466.734
107.170    658.000    671.733    -13.733    466.543    667.716    466.543    470.514    466.543
107.270    654.000    679.332    -25.332    466.354    675.287    466.354    470.355    466.354
107.370    695.849    684.832     11.018    466.167    680.754    466.167    470.203    466.167
107.470    695.425    688.189      7.236    465.981    684.074    465.981    470.058    465.981
107.570    703.313    689.549     13.765    465.798    685.393    465.798    469.919    465.798
107.670    656.000    689.226    -33.226    465.616    685.026    465.616    469.786    465.616
107.770    671.852    687.655    -15.802    465.436    683.404    465.436    469.661    465.436
107.870    642.000    685.318    -43.318    465.257    681.013    465.257    469.543    465.257
107.970    658.000    682.692    -24.692    465.081    678.326    465.081    469.431    465.081
108.070    688.000    680.192      7.808    464.907    675.761    464.907    469.327    464.907
108.170    682.000    678.139      3.861    464.735    673.637    464.735    469.231    464.735
108.270    630.000    676.741    -46.741    464.565    672.161    464.565    469.142    464.565
108.370    640.000    676.074    -36.074    464.397    671.411    464.397    469.062    464.397
108.470    681.000    676.087      4.913    464.231    671.334    464.231    468.989    464.231
108.570    667.012    676.600     -9.588    464.068    671.751    464.068    468.926    464.068
108.670    641.000    677.326    -36.326    463.906    672.372    463.906    468.871    463.906
108.770    657.396    677.889    -20.493    463.747    672.825    463.747    468.826    463.747
108.870    640.808    677.871    -37.063    463.590    672.688    463.590    468.790    463.590
108.970    648.000    676.853    -28.853    463.436    671.544    463.436    468.764    463.436
109.070    641.521    674.477    -32.956    463.283    669.033    463.283    468.749    463.283
109.170    663.000    670.498     -7.498    463.134    664.909    463.134    468.745    463.134
109.270    661.280    664.809     -3.529    462.986    659.067    462.986    468.753    462.986
109.370    670.731    657.429     13.302    462.841    651.522    462.841    468.773    462.841
109.470    675.000    648.614     26.386    462.699    642.532    462.699    468.806    462.699
109.570    610.000    638.618    -28.618    462.559    632.348    462.559    468.853    462.559
109.670    629.000    627.765      1.235    462.422    621.296    462.422    468.915    462.422
109.770    616.000    616.410     -0.410    462.288    609.728    462.288    468.992    462.288
109.870    595.000    604.897     -9.897    462.156    597.988    462.156    469.085    462.156
109.970    582.906    593.546    -10.640    462.026    586.396    462.026    469.196    462.026
110.070    574.533    582.639     -8.106    461.900    575.229    461.900    469.326    461.900
110.170    626.000    572.409     53.591    461.776    564.723    461.776    469.477    461.776
110.270    567.000    563.041      3.959    461.656    555.060    461.656    469.650    461.656
110.370    575.448    554.666     20.783    461.538    546.367    461.538    469.847    461.538
110.470    549.000    547.363      1.637    461.423    538.723    461.423    470.071    461.423
110.570    535.740    541.168     -5.428    461.311    532.159    461.311    470.326    461.311
110.670    548.000    536.071     11.929    461.202    526.663    461.202    470.615    461.202
110.770    505.901    532.035    -26.134    461.096    522.190    461.096    470.944    461.096
110.870    557.000    528.995     28.005    460.993    518.670    460.993    471.319    460.993
110.970    543.703    526.871     16.833    460.893    516.015    460.893    471.749    460.893
111.070    562.362    525.577     36.785    460.797    514.127    460.797    472.245    460.797
111.170    507.971    525.026    -17.054    460.703    512.905    460.703    472.821    460.703
111.270    542.000    525.136     16.864    460.613    512.249    460.613    473.496    460.613
111.370    522.000    525.836     -3.836    460.526    512.065    460.526    474.292    460.526
111.470    498.873    527.070    -28.198    460.443    512.268    460.443    475.240    460.443
111.570    504.861    528.800    -23.939    460.363    512.780    460.363    476.376    460.363
111.670    523.000    531.004     -8.004    460.286    513.536    460.286    477.747    460.286
111.770    541.740    533.684      8.055    460.213    514.483    460.213    479.407    460.213
111.870    517.000    536.866    -19.866    460.143    515.575    460.143    481.426    460.143
111.970    590.000    540.596     49.404    460.077    516.782    460.077    483.883    460.077
112.070    541.000    544.949     -3.949    460.014    518.082    460.014    486.873    460.014
112.170    529.472    550.024    -20.552    459.956    519.467    459.956    490.503    459.956
112.270    528.416    555.942    -27.527    459.900    520.938    459.900    494.895    459.900
112.370    534.000    562.851    -28.851    459.849    522.507    459.849    500.183    459.849
112.470    559.000    570.913    -11.913    459.801    524.194    459.801    506.511    459.801
112.570    595.000    580.307     14.693    459.757    526.026    459.757    514.028    459.757
112.670    556.880    591.221    -34.340    459.718    528.042    459.718    522.885    459.718
112.770    595.000    603.846     -8.846    459.682    530.287    459.682    533.229    459.682
112.870    646.000    618.374     27.626    459.650    532.817    459.650    545.194    459.650
112.970    630.322    634.989     -4.667    459.621    535.707    459.621    558.890    459.621
113.070    615.216    653.866    -38.651    459.598    539.050    459.598    574.400    459.598
113.170    626.000    675.168    -49.168    459.578    542.967    459.578    591.763    459.578
113.270    747.137    699.046     48.091    459.562    547.621    459.562    610.969    459.562
113.370    696.000    725.640    -29.640    459.551    553.225    459.551    631.946    459.551
113.470    743.000    755.092    -12.092    459.543    560.057    459.543    654.557    459.543
113.570    788.000    787.557      0.443    459.541    568.487    459.541    678.585    459.541
113.670    830.000    823.216      6.784    459.542    578.993    459.542    703.737    459.542
113.770    900.000    862.308     37.692    459.548    592.189    459.548    729.633    459.548
113.870    931.000    905.148     25.852    459.558    608.856    459.558    755.812    459.558
113.970    916.000    952.166    -36.166    459.573    629.969    459.573    781.724    459.573
114.070   1006.202   1003.935      2.267    459.592    656.729    459.592    806.743    459.592
114.170   1117.892   1061.210     56.682    459.616    690.586    459.616    830.175    459.616
114.270   1090.394   1124.967    -34.573    459.645    733.259    459.645    851.275    459.645
114.370   1196.000   1196.446     -0.446    459.678    786.747    459.678    869.282    459.678
114.470   1332.870   1277.186     55.684    459.716    853.317    459.716    883.472    459.716
114.570   1435.811   1369.070     66.741    459.759    935.479    459.759    893.214    459.759
114.670   1479.000   1474.335      4.665    459.807   1035.935    459.807    898.045    459.807
114.770   1582.000   1595.550    -13.550    459.860   1157.493    459.860    897.724    459.860
114.870   1826.000   1735.544     90.456    459.917   1302.962    459.917    892.271    459.917
114.970   1913.000   1897.251     15.749    459.980   1475.004    459.980    881.960    459.980
115.070   2056.691   2083.509    -26.818    460.048   1675.964    460.048    867.284    460.048
115.170   2305.083   2296.799      8.285    460.120   1907.675    460.120    848.890    460.120
115.270   2440.716   2538.966    -98.250    460.198   2171.250    460.198    827.513    460.198
115.370   2913.773   2810.954    102.819    460.282   2466.875    460.282    803.912    460.282
115.470   3014.882   3112.555    -97.673    460.370   2793.604    460.370    778.827    460.370
115.570   3431.985   3442.210    -10.225    460.464   3149.194    460.464    752.944    460.464
115.670   3733.000   3796.862    -63.862    460.563   3529.975    460.563    726.879    460.563
115.770   4207.427   4171.874     35.554    460.668   3930.775    460.668    701.168    460.668
115.870   4432.655   4561.013   -128.358    460.778   4344.913    460.778    676.262    460.778
115.970   4902.328   4956.517    -54.188    460.893   4764.262    460.893    652.527    460.893
116.070   5170.000   5349.228   -179.228    461.015   5179.384    461.015    630.247    461.015
116.170   5458.000   5728.819   -270.819    461.141   5579.749    461.141    609.625    461.141
116.270   6165.066   6084.098     80.968    461.274   5954.039    461.274    590.790    461.274
116.370   6394.000   6403.420     -9.420    461.412   6290.544    461.412    573.805    461.412
116.470   6789.409   6675.288    114.122    461.557   6577.766    461.557    558.671    461.557
116.570   7011.000   6888.989    122.011    461.707   6805.038    461.707    545.343    461.707
116.670   6939.944   7035.398    -95.454    461.863   6963.316    461.863    533.735    461.863
116.770   7252.000   7107.839    144.161    462.025   7046.034    462.025    523.731    462.025
116.870   7152.000   7102.773     49.227    462.193   7049.788    462.193    515.196    462.193
116.970   7017.000   7020.201     -3.201    462.367   6974.717    462.367    507.982    462.367
117.070   7043.000   6863.640    179.360    462.547   6824.485    462.547    501.938    462.547
117.170   6670.580   6639.698     30.883    462.733   6605.847    462.733    496.915    462.733
117.270   6432.000   6357.362     74.638    462.926   6327.927    462.926    492.770    462.926
117.370   6082.165   6027.173     54.992    463.125   6001.397    463.125    489.372    463.125
117.470   5527.000   5660.443   -133.443    463.331   5637.687    463.331    486.601    463.331
117.570   5024.000   5268.587   -244.587    463.543   5248.319    463.543    484.352    463.543
117.670   4944.664   4862.598     82.067    463.761   4844.380    463.761    482.531    463.761
117.770   4335.530   4452.651   -117.121    463.986   4436.123    463.986    481.061    463.986
117.870   4132.000   4047.809     84.191    464.218   4032.681    464.218    479.876    464.218
117.970   3831.000   3655.818    175.182    464.456   3641.855    464.456    478.921    464.456
118.070   3244.916   3282.992    -38.075    464.701   3270.006    464.701    478.153    464.701
118.170   3104.000   2934.162    169.838    464.953   2922.005    464.953    477.534    464.953
118.270   2699.000   2612.718     86.282    465.212   2601.271    465.212    477.037    465.212
118.370   2338.000   2320.694     17.306    465.477   2309.862    465.477    476.640    465.477
118.470   2114.850   2058.916     55.934    465.750   2048.625    465.750    476.324    465.750
118.570   1813.494   1827.174    -13.680    466.030   1817.366    466.030    476.077    466.030
118.670   1551.986   1624.420    -72.434    466.316   1615.046    466.316    475.887    466.316
118.770   1505.290   1448.958     56.332    466.610   1439.981    466.610    475.747    466.610
118.870   1250.000   1298.640    -48.640    466.912   1290.028    466.912    475.650    466.912
118.970   1128.000   1171.034    -43.034    467.220   1162.760    467.220    475.592    467.220
119.070   1055.000   1063.584     -8.584    467.536   1055.626    467.536    475.568    467.536
119.170    982.000    973.735      8.265    467.859    966.072    467.859    475.576    467.859
119.270    858.000    899.035    -41.035    468.190    891.650    468.190    475.614    468.190
119.370    850.000    837.206     12.794    468.528    830.082    468.528    475.679    468.528
119.470    775.000    786.194    -11.194    468.874    779.315    468.874    475.771    468.874
119.570    714.000    744.185    -30.185    469.228    737.536    469.228    475.888    469.228
119.670    713.989    709.617      4.372    469.589    703.184    469.589    476.029    469.589
119.770    662.835    681.166    -18.332    469.958    674.935    469.958    476.194    469.958
119.870    667.831    657.732     10.099    470.335    651.687    470.335    476.383    470.335
119.970    650.992    638.407     12.585    470.720    632.534    470.720    476.595    470.720
120.070    604.000    622.459    -18.459    471.113    616.744    471.113    476.830    471.113
120.170    621.000    609.299     11.701    471.514    603.726    471.514    477.089    471.514
120.270    614.000    598.458     15.542    471.923    593.011    471.923    477.373    471.923
120.370    532.000    589.565    -57.565    472.341    584.228    472.341    477.680    472.341
120.470    615.000    582.327     32.673    472.766    577.085    472.766    478.012    472.766
120.570    580.000    576.521      3.479    473.200    571.354    473.200    478.372    473.200
120.670    582.841    571.968     10.873    473.643    566.855    473.643    478.760    473.643
120.770    560.000    568.527     -8.527    474.094    563.448    474.094    479.178    474.094
120.870    528.000    566.092    -38.092    474.553    561.025    474.553    479.625    474.553
120.970    538.000    564.577    -26.577    475.021    559.499    475.021    480.105    475.021
121.070    594.478    563.915     30.563    475.498    558.801    475.498    480.618    475.498
121.170    550.690    564.049    -13.359    475.983    558.874    475.983    481.166    475.983
121.270    534.000    564.930    -30.930    476.477    559.667    476.477    481.750    476.477
121.370    527.000    566.516    -39.516    476.980    561.136    476.980    482.371    476.980
121.470    540.820    568.760    -27.940    477.492    563.235    477.492    483.029    477.492
121.570    573.000    571.616      1.384    478.013    565.918    478.013    483.726    478.013
121.670    593.000    575.031     17.969    478.543    569.130    478.543    484.460    478.543
121.770    559.487    578.945    -19.458    479.082    572.814    479.082    485.232    479.082
121.870    554.773    583.292    -28.519    479.631    576.902    479.631    486.041    479.631
121.970    543.703    587.992    -44.288    480.189    581.319    480.189    486.884    480.189
122.070    591.000    592.957     -1.957    480.756    585.979    480.756    487.760    480.756
122.170    553.933    598.089    -44.156    481.332    590.787    481.332    488.664    481.332
122.270    624.000    603.282     20.718    481.918    595.639    481.918    489.593    481.918
122.370    586.820    608.420    -21.600    482.514    600.426    482.514    490.542    482.514
122.470    650.078    613.381     36.697    483.119    605.033    483.119    491.506    483.119
122.570    589.000    618.043    -29.043    483.735    609.340    483.735    492.478    483.735
122.670    608.000    622.282    -14.282    484.359    613.233    484.359    493.452    484.359
122.770    665.200    625.981     39.219    484.994    616.603    484.994    494.418    484.994
122.870    678.000    629.035     48.965    485.639    619.352    485.639    495.370    485.639
122.970    631.000    631.357     -0.357    486.293    621.401    486.293    496.298    486.293
123.070    639.000    632.884      6.116    486.958    622.698    486.958    497.195    486.958
123.170    652.000    633.580     18.420    487.633    623.213    487.633    498.051    487.633
123.270    662.000    633.439     28.561    488.318    622.948    488.318    498.861    488.318
123.370    644.000    632.481     11.519    489.014    621.929    489.014    499.617    489.014
123.470    607.000    630.753    -23.753    489.720    620.206    489.720    500.316    489.720
123.570    681.000    628.319     52.681    490.436    617.846    490.436    500.957    490.436
123.670    643.000    625.254     17.746    491.163    614.928    491.163    501.535    491.163
123.770    596.000    621.658    -25.658    491.901    611.538    491.901    502.065    491.901
123.870    619.000    617.623      1.377    492.649    607.766    492.649    502.547    492.649
123.970    622.000    613.244      8.756    493.408    603.701    493.408    502.988    493.408
124.070    643.867    608.615     35.252    494.178    599.431    494.178    503.397    494.178
124.170    588.000    603.828    -15.828    494.958    595.038    494.958    503.781    494.958
124.270    630.000    598.967     31.033    495.750    590.598    495.750    504.149    495.750
124.370    602.000    594.106      7.894    496.553    586.176    496.553    504.509    496.553
124.470    576.000    589.311    -13.311    497.367    581.831    497.367    504.870    497.367
124.570    573.204    584.636    -11.433    498.192    577.611    498.192    505.238    498.192
124.670    608.000    580.125     27.875    499.029    573.551    499.029    505.620    499.029
124.770    624.900    575.810     49.090    499.877    569.680    499.877    506.021    499.877
124.870    570.251    571.722     -1.471    500.736    566.024    500.736    506.447    500.736
124.970    589.576    567.877     21.699    501.607    562.593    501.607    506.901    501.607
