neutron_powder_diffraction_0198
R_wp: 4.008
Temperature (K): 1074.000
Counts: 83678.00
Wavelength (Ã…): 2.52098
COMMENTS
Test file for demonstrating the .xyy file format in Reel1.0
END OF HEADER
   tth       Y_obs     Y_calc      Y_res    Background    Phase_1_Nuc    Phase_1_Mag    Phase_2_Nuc    Phase_2_Mag
  9.970    602.000    571.348     30.652    570.707    571.328    570.707    570.727    570.707
 10.070    597.000    571.504     25.496    570.810    571.484    570.810    570.830    570.810
 10.170    555.009    571.662    -16.652    570.906    571.642    570.906    570.926    570.906
 10.270    596.386    571.823     24.563    570.996    571.802    570.996    571.016    570.996
 10.370    609.000    571.989     37.011    571.081    571.968    571.081    571.101    571.081
 10.470    537.690    572.163    -34.473    571.159    572.142    571.159    571.179    571.159
 10.570    608.634    572.349     36.286    571.231    572.328    571.231    571.251    571.231
 10.670    595.000    572.551     22.449    571.297    572.529    571.297    571.318    571.297
 10.770    588.000    572.775     15.225    571.358    572.753    571.358    571.378    571.358
 10.870    585.000    573.029     11.971    571.412    573.008    571.412    571.433    571.412
 10.970    560.000    573.326    -13.326    571.461    573.304    571.461    571.482    571.461
 11.070    603.000    573.683     29.317    571.504    573.660    571.504    571.526    571.504
 11.170    561.000    574.124    -13.124    571.542    574.098    571.542    571.566    571.542
 11.270    552.000    574.684    -22.684    571.574    574.657    571.574    571.599    571.574
 11.370    596.000    575.427     20.573    571.600    575.400    571.600    571.625    571.600
 11.470    584.000    576.493      7.507    571.621    576.465    571.621    571.646    571.621
 11.570    557.000    578.271    -21.271    571.636    578.242    571.636    571.662    571.636
 11.670    544.688    581.896    -37.208    571.647    581.865    571.647    571.672    571.647
 11.770    714.000    590.102    123.898    571.651    590.066    571.651    571.677    571.651
 11.870    670.000    607.437     62.563    571.651    607.391    571.651    571.677    571.651
 11.970    654.000    637.606     16.394    571.645    637.543    571.645    571.671    571.645
 12.070    624.595    676.855    -52.260    571.634    676.769    571.634    571.661    571.634
 12.170    718.000    707.902     10.098    571.619    707.797    571.619    571.646    571.619
 12.270    673.000    708.899    -35.899    571.598    708.792    571.598    571.626    571.598
 12.370    728.428    678.921     49.507    571.572    678.831    571.572    571.600    571.572
 12.470    658.000    639.437     18.563    571.541    639.370    571.541    571.569    571.541
 12.570    570.711    608.517    -37.806    571.505    608.468    571.505    571.534    571.505
 12.670    624.301    590.529     33.772    571.464    590.490    571.464    571.493    571.464
 12.770    608.124    581.946     26.178    571.419    581.911    571.419    571.448    571.419
 12.870    594.000    578.140     15.860    571.369    578.108    571.369    571.398    571.369
 12.970    556.000    576.273    -20.273    571.314    576.241    571.314    571.343    571.314
 13.070    543.227    575.148    -31.922    571.255    575.117    571.255    571.284    571.255
 13.170    551.000    574.358    -23.358    571.190    574.326    571.190    571.220    571.190
 13.270    565.000    573.757     -8.757    571.122    573.725    571.122    571.153    571.122
 13.370    591.000    573.290     17.710    571.049    573.247    571.049    571.090    571.049
 13.470    555.000    572.899    -17.899    570.971    572.856    570.971    571.014    570.971
 13.570    586.270    572.569     13.701    570.889    572.525    570.889    570.932    570.889
 13.670    530.000    572.283    -42.283    570.803    572.239    570.803    570.846    570.803
 13.770    571.000    572.029     -1.029    570.712    571.986    570.712    570.756    570.712
 13.870    557.923    571.800    -13.877    570.618    571.756    570.618    570.661    570.618
 13.970    560.000    571.590    -11.590    570.519    571.545    570.519    570.563    570.519
 14.070    554.903    571.392    -16.489    570.415    571.347    570.415    570.460    570.415
 14.170    612.732    571.205     41.527    570.308    571.159    570.308    570.354    570.308
 14.270    545.000    571.030    -26.030    570.197    570.979    570.197    570.248    570.197
 14.370    535.000    570.857    -35.857    570.082    570.805    570.082    570.133    570.082
 14.470    557.000    570.686    -13.686    569.962    570.634    569.962    570.014    569.962
 14.570    595.000    570.518     24.482    569.839    570.466    569.839    569.891    569.839
 14.670    561.000    570.352     -9.352    569.712    570.300    569.712    569.765    569.712
 14.770    562.000    570.190     -8.190    569.581    570.137    569.581    569.634    569.581
 14.870    600.000    570.027     29.973    569.447    569.973    569.447    569.500    569.447
 14.970    550.000    569.862    -19.862    569.308    569.808    569.308    569.362    569.308
 15.070    555.000    569.696    -14.696    569.166    569.642    569.166    569.220    569.166
 15.170    579.000    569.529      9.471    569.021    569.475    569.021    569.075    569.021
 15.270    615.505    569.361     46.144    568.871    569.306    568.871    568.926    568.871
 15.370    594.034    569.191     24.843    568.718    569.136    568.718    568.773    568.718
 15.470    556.000    569.020    -13.020    568.562    568.965    568.562    568.617    568.562
 15.570    596.073    568.846     27.226    568.402    568.791    568.402    568.458    568.402
 15.670    548.000    568.671    -20.671    568.239    568.615    568.239    568.295    568.239
 15.770    520.000    568.494    -48.494    568.073    568.437    568.073    568.129    568.073
 15.870    588.539    568.314     20.225    567.903    568.257    567.903    567.959    567.903
 15.970    566.000    568.132     -2.132    567.730    568.075    567.730    567.786    567.730
 16.070    616.012    567.948     48.064    567.553    567.891    567.553    567.610    567.553
 16.170    601.000    567.761     33.239    567.374    567.704    567.374    567.431    567.374
 16.270    519.000    567.572    -48.572    567.191    567.514    567.191    567.249    567.191
 16.370    584.000    567.381     16.619    567.005    567.323    567.005    567.063    567.005
 16.470    543.000    567.187    -24.187    566.816    567.128    566.816    566.875    566.816
 16.570    522.000    566.991    -44.991    566.624    566.932    566.624    566.683    566.624
 16.670    533.000    566.793    -33.793    566.429    566.734    566.429    566.489    566.429
 16.770    527.212    566.595    -39.383    566.231    566.534    566.231    566.292    566.231
 16.870    601.000    566.394     34.606    566.031    566.330    566.031    566.094    566.031
 16.970    579.000    566.188     12.812    565.827    566.124    565.827    565.891    565.827
 17.070    589.000    565.980     23.020    565.621    565.915    565.621    565.685    565.621
 17.170    577.000    565.770     11.230    565.411    565.704    565.411    565.477    565.411
 17.270    612.674    565.557     47.117    565.199    565.490    565.199    565.266    565.199
 17.370    523.000    565.342    -42.342    564.985    565.275    564.985    565.052    564.985
 17.470    540.000    565.124    -25.124    564.768    565.057    564.768    564.835    564.768
 17.570    534.375    564.907    -30.532    564.548    564.839    564.548    564.616    564.548
 17.670    575.000    564.685     10.315    564.325    564.617    564.325    564.394    564.325
 17.770    570.000    564.461      5.539    564.100    564.392    564.100    564.169    564.100
 17.870    521.191    564.234    -43.043    563.873    564.164    563.873    563.942    563.873
 17.970    536.804    564.005    -27.202    563.643    563.935    563.643    563.713    563.643
 18.070    578.000    563.774     14.226    563.410    563.704    563.410    563.481    563.410
 18.170    599.000    563.541     35.459    563.176    563.470    563.176    563.247    563.176
 18.270    567.000    563.306      3.694    562.938    563.234    562.938    563.010    562.938
 18.370    594.394    563.069     31.324    562.699    562.997    562.699    562.771    562.699
 18.470    544.000    562.830    -18.830    562.457    562.757    562.457    562.530    562.457
 18.570    577.000    562.589     14.411    562.214    562.515    562.214    562.287    562.214
 18.670    602.642    562.346     40.296    561.967    562.272    561.967    562.041    561.967
 18.770    609.000    562.101     46.899    561.719    562.026    561.719    561.794    561.719
 18.870    569.003    561.854      7.149    561.469    561.779    561.469    561.544    561.469
 18.970    524.086    561.606    -37.520    561.216    561.530    561.216    561.293    561.216
 19.070    545.000    561.357    -16.357    560.962    561.279    560.962    561.040    560.962
 19.170    564.000    561.106      2.894    560.706    561.027    560.706    560.784    560.706
 19.270    533.488    560.852    -27.364    560.447    560.773    560.447    560.526    560.447
 19.370    576.000    560.597     15.403    560.187    560.517    560.187    560.267    560.187
 19.470    573.000    560.340     12.660    559.925    560.260    559.925    560.005    559.925
 19.570    542.000    560.082    -18.082    559.660    560.001    559.660    559.742    559.660
 19.670    513.000    559.822    -46.822    559.394    559.740    559.394    559.477    559.394
 19.770    598.643    559.562     39.081    559.127    559.479    559.127    559.210    559.127
 19.870    561.000    559.300      1.700    558.857    559.217    558.857    558.941    558.857
 19.970    556.000    559.036     -3.036    558.586    558.952    558.586    558.670    558.586
 20.070    543.000    558.771    -15.771    558.313    558.686    558.313    558.398    558.313
 20.170    568.881    558.506     10.375    558.039    558.420    558.039    558.125    558.039
 20.270    575.000    558.252     16.748    557.763    558.165    557.763    557.849    557.763
 20.370    524.145    557.993    -33.848    557.485    557.906    557.485    557.572    557.485
 20.470    527.842    557.725    -29.882    557.206    557.636    557.206    557.294    557.206
 20.570    551.438    557.455     -6.017    556.925    557.365    556.925    557.014    556.925
 20.670    548.000    557.187     -9.187    556.642    557.093    556.642    556.737    556.642
 20.770    585.728    556.917     28.811    556.359    556.820    556.359    556.456    556.359
 20.870    540.000    556.644    -16.644    556.074    556.546    556.074    556.172    556.074
 20.970    558.000    556.371      1.629    555.787    556.271    555.787    555.887    555.787
 21.070    552.000    556.097     -4.097    555.499    555.997    555.499    555.600    555.499
 21.170    556.000    555.823      0.177    555.210    555.721    555.210    555.312    555.210
 21.270    607.000    555.548     51.452    554.920    555.445    554.920    555.022    554.920
 21.370    567.734    555.273     12.461    554.628    555.169    554.628    554.732    554.628
 21.470    549.000    554.998     -5.998    554.335    554.893    554.335    554.440    554.335
 21.570    562.863    554.723      8.140    554.041    554.617    554.041    554.147    554.041
 21.670    542.000    554.449    -12.449    553.746    554.342    553.746    553.853    553.746
 21.770    582.000    554.175     27.825    553.449    554.066    553.449    553.558    553.449
 21.870    507.693    553.910    -46.217    553.152    553.800    553.152    553.262    553.152
 21.970    579.000    553.723     25.277    552.853    553.612    552.853    552.964    552.853
 22.070    564.000    553.496     10.504    552.554    553.383    552.554    552.666    552.554
 22.170    539.000    553.256    -14.256    552.253    553.142    552.253    552.367    552.253
 22.270    580.000    552.992     27.008    551.951    552.876    551.951    552.067    551.951
 22.370    521.000    552.727    -31.727    551.649    552.610    551.649    551.766    551.649
 22.470    512.387    552.470    -40.083    551.345    552.352    551.345    551.464    551.345
 22.570    564.000    552.257     11.743    551.041    552.137    551.041    551.161    551.041
 22.670    542.710    552.022     -9.313    550.736    551.901    550.736    550.858    550.736
 22.770    588.000    551.776     36.224    550.430    551.653    550.430    550.554    550.430
 22.870    513.040    551.537    -38.497    550.123    551.412    550.123    550.249    550.123
 22.970    527.243    551.309    -24.066    549.815    551.182    549.815    549.943    549.815
 23.070    564.000    551.087     12.913    549.507    550.958    549.507    549.637    549.507
 23.170    529.834    550.878    -21.043    549.198    550.747    549.198    549.330    549.198
 23.270    547.000    550.685     -3.685    548.888    550.552    548.888    549.022    548.888
 23.370    573.663    550.513     23.151    548.578    550.377    548.578    548.714    548.578
 23.470    515.528    550.368    -34.840    548.267    550.230    548.267    548.405    548.267
 23.570    567.000    550.259     16.741    547.956    550.119    547.956    548.096    547.956
 23.670    566.000    550.198     15.802    547.643    550.056    547.643    547.786    547.643
 23.770    594.591    550.204     44.387    547.331    550.059    547.331    547.476    547.331
 23.870    545.773    550.305     -4.532    547.017    550.158    547.017    547.166    547.017
 23.970    484.000    550.554    -66.554    546.704    550.404    546.704    546.855    546.704
 24.070    579.583    551.073     28.510    546.390    550.921    546.390    546.544    546.390
 24.170    524.509    552.209    -27.701    546.075    552.055    546.075    546.233    546.075
 24.270    571.070    554.931     16.140    545.760    554.773    545.760    545.923    545.760
 24.370    583.000    561.323     21.677    545.445    561.166    545.445    545.612    545.445
 24.470    597.000    574.374     22.626    545.129    574.223    545.129    545.300    545.129
 24.570    592.000    595.680     -3.680    544.813    595.540    544.813    544.987    544.813
 24.670    597.348    621.111    -23.764    544.496    620.986    544.496    544.675    544.496
 24.770    625.000    638.030    -13.030    544.180    637.912    544.180    544.363    544.180
 24.870    614.716    633.866    -19.149    543.863    633.741    543.863    544.050    543.863
 24.970    599.000    612.045    -13.045    543.545    611.901    543.545    543.738    543.545
 25.070    603.000    586.680     16.320    543.228    586.512    543.228    543.426    543.228
 25.170    549.791    567.520    -17.729    542.910    567.333    542.910    543.114    542.910
 25.270    540.000    556.396    -16.396    542.593    556.196    542.593    542.802    542.593
 25.370    560.000    550.917      9.083    542.275    550.707    542.275    542.490    542.275
 25.470    590.000    548.307     41.693    541.957    548.088    541.957    542.179    541.957
 25.570    568.000    546.901     21.099    541.639    546.674    541.639    541.868    541.639
 25.670    541.000    545.977     -4.977    541.321    545.742    541.321    541.557    541.321
 25.770    586.000    545.284     40.716    541.002    545.041    541.002    541.247    541.002
 25.870    547.000    544.731      2.269    540.684    544.478    540.684    540.938    540.684
 25.970    552.000    544.273      7.727    540.366    544.011    540.366    540.629    540.366
 26.070    568.695    543.887     24.808    540.048    543.615    540.048    540.321    540.048
 26.170    530.000    543.562    -13.562    539.730    543.279    539.730    540.014    539.730
 26.270    541.367    543.290     -1.923    539.412    542.995    539.412    539.708    539.412
 26.370    567.301    543.071     24.230    539.094    542.762    539.094    539.403    539.094
 26.470    567.000    542.925     24.075    538.776    542.602    538.776    539.099    538.776
 26.570    531.000    542.828    -11.828    538.459    542.490    538.459    538.797    538.459
 26.670    546.000    542.766      3.234    538.141    542.411    538.141    538.496    538.141
 26.770    538.000    542.768     -4.768    537.824    542.394    537.824    538.198    537.824
 26.870    501.261    542.848    -41.587    537.507    542.453    537.507    537.901    537.507
 26.970    596.000    543.026     52.974    537.190    542.608    537.190    537.607    537.190
 27.070    565.000    543.330     21.670    536.873    542.886    536.873    537.316    536.873
 27.170    571.000    543.799     27.201    536.557    543.327    536.557    537.028    536.557
 27.270    562.000    544.483     17.517    536.241    543.978    536.241    536.744    536.241
 27.370    537.636    545.484     -7.848    535.925    544.944    535.925    536.464    535.925
 27.470    588.000    546.972     41.028    535.610    546.390    535.610    536.189    535.610
 27.570    532.494    549.329    -16.835    535.294    548.700    535.294    535.921    535.294
 27.670    547.000    553.986     -6.986    534.980    553.303    534.980    535.659    534.980
 27.770    534.000    565.678    -31.678    534.666    564.929    534.666    535.406    534.666
 27.870    602.703    596.043      6.660    534.352    595.212    534.352    535.164    534.352
 27.970    675.000    662.716     12.284    534.038    661.780    534.038    534.934    534.038
 28.070    742.000    773.007    -31.007    533.725    771.939    533.725    534.719    533.725
 28.170    891.000    895.820     -4.820    533.413    894.605    533.413    534.525    533.413
 28.270    956.509    956.438      0.070    533.101    955.082    533.101    534.355    533.101
 28.370    893.000    905.338    -12.338    532.789    903.845    532.789    534.216    532.789
 28.470    810.000    795.283     14.717    532.478    793.613    532.478    534.120    532.478
 28.570    709.000    709.985     -0.985    532.168    708.057    532.168    534.081    532.168
 28.670    703.000    692.503     10.497    531.858    690.218    531.858    534.126    531.858
 28.770    709.983    738.175    -28.192    531.549    735.397    531.549    534.304    531.549
 28.870    832.855    807.138     25.716    531.240    803.652    531.240    534.709    531.240
 28.970    753.000    839.676    -86.676    530.932    835.095    530.932    535.510    530.932
 29.070    827.934    800.359     27.575    530.624    794.016    530.624    536.976    530.624
 29.170    727.000    720.314      6.686    530.318    711.180    530.318    539.461    530.318
 29.270    636.000    647.368    -11.368    530.011    634.075    530.011    543.310    530.011
 29.370    573.642    603.037    -29.395    529.706    584.097    529.706    548.647    529.706
 29.470    626.565    584.501     42.065    529.401    558.885    529.401    555.015    529.401
 29.570    577.000    579.642     -2.642    529.097    547.892    529.097    560.843    529.097
 29.670    588.000    577.620     10.380    528.794    542.980    528.794    563.430    528.794
 29.770    611.000    572.863     38.137    528.492    540.320    528.492    561.030    528.492
 29.870    576.000    565.376     10.624    528.190    538.580    528.190    554.983    528.190
 29.970    537.810    557.450    -19.640    527.889    537.352    527.889    547.984    527.889
 30.070    562.000    550.729     11.271    527.589    536.500    527.589    541.815    527.589
 30.170    572.000    545.807     26.193    527.290    535.997    527.290    537.097    527.290
 30.270    540.000    542.746     -2.746    526.991    535.951    526.991    533.784    526.991
 30.370    537.000    541.665     -4.665    526.694    536.799    526.694    531.555    526.694
 30.470    572.994    543.360     29.633    526.397    539.701    526.397    530.049    526.397
 30.570    596.801    549.710     47.090    526.101    546.817    526.101    528.982    526.101
 30.670    561.000    562.903     -1.903    525.806    560.519    525.806    528.167    525.806
 30.770    613.000    582.781     30.219    525.512    580.756    525.512    527.498    525.512
 30.870    616.000    603.439     12.561    525.219    601.684    525.219    526.922    525.219
 30.970    625.000    612.879     12.121    524.927    611.342    524.927    526.407    524.927
 31.070    637.000    603.137     33.863    524.636    601.789    524.636    525.937    524.636
 31.170    543.000    581.603    -38.603    524.345    580.417    524.345    525.501    524.345
 31.270    558.000    560.282     -2.282    524.056    559.230    524.056    525.092    524.056
 31.370    568.087    545.335     22.753    523.768    544.392    523.768    524.703    523.768
 31.470    539.528    537.026      2.502    523.481    536.171    523.481    524.331    523.481
 31.570    517.650    533.026    -15.375    523.195    532.245    523.195    523.973    523.195
 31.670    517.052    531.122    -14.070    522.909    530.403    522.909    523.626    522.909
 31.770    554.000    530.084     23.916    522.625    529.419    522.625    523.289    522.625
 31.870    538.000    529.411      8.589    522.342    528.792    522.342    522.959    522.342
 31.970    525.613    528.935     -3.321    522.061    528.357    522.061    522.637    522.061
 32.070    560.000    528.596     31.404    521.780    528.054    521.780    522.321    521.780
 32.170    563.000    528.376     34.624    521.500    527.865    521.500    522.010    521.500
 32.270    522.000    528.262     -6.262    521.221    527.778    521.221    521.704    521.221
 32.370    531.000    528.254      2.746    520.944    527.795    520.944    521.402    520.944
 32.470    509.078    528.361    -19.284    520.668    527.924    520.668    521.104    520.668
 32.570    539.000    528.601     10.399    520.392    528.183    520.392    520.809    520.392
 32.670    575.000    528.998     46.002    520.119    528.598    520.119    520.517    520.119
 32.770    505.862    529.590    -23.728    519.846    529.206    519.846    520.229    519.846
 32.870    564.000    530.433     33.567    519.574    530.063    519.574    519.943    519.574
 32.970    562.000    531.607     30.393    519.304    531.250    519.304    519.660    519.304
 33.070    504.633    533.239    -28.606    519.035    532.893    519.035    519.379    519.035
 33.170    557.312    535.555     21.757    518.767    535.219    518.767    519.100    518.767
 33.270    584.000    539.079     44.921    518.500    538.753    518.500    518.824    518.500
 33.370    573.000    545.238     27.762    518.234    544.919    518.234    518.549    518.234
 33.470    572.000    557.809     14.191    517.970    557.496    517.970    518.277    517.970
 33.570    583.000    585.043     -2.043    517.707    584.732    517.707    518.007    517.707
 33.670    605.688    640.092    -34.404    517.446    639.777    517.446    517.739    517.446
 33.770    775.131    735.011     40.120    517.185    734.686    517.185    517.472    517.185
 33.870    906.062    866.228     39.834    516.926    865.890    516.926    517.208    516.926
 33.970   1017.000    998.082     18.918    516.669    997.738    516.669    516.945    516.669
 34.070   1032.000   1062.757    -30.757    516.412   1062.426    516.412    516.684    516.412
 34.170   1012.974   1014.139     -1.165    516.157   1013.840    516.157    516.424    516.157
 34.270    844.000    888.370    -44.370    515.904    888.100    515.904    516.167    515.904
 34.370    706.564    753.717    -47.153    515.651    753.463    515.651    515.911    515.651
 34.470    622.000    651.554    -29.554    515.400    651.305    515.400    515.656    515.400
 34.570    585.000    589.856     -4.856    515.151    589.608    515.151    515.404    515.151
 34.670    578.000    558.197     19.803    514.903    557.949    514.903    515.153    514.903
 34.770    559.000    543.138     15.862    514.656    542.890    514.656    514.904    514.656
 34.870    531.000    535.590     -4.590    514.410    535.344    514.410    514.656    514.410
 34.970    499.000    531.153    -32.153    514.166    530.909    514.166    514.410    514.166
 35.070    546.635    528.099     18.536    513.924    527.857    513.924    514.165    513.924
 35.170    509.113    525.793    -16.680    513.683    525.552    513.683    513.923    513.683
 35.270    515.000    523.969     -8.969    513.443    523.730    513.443    513.681    513.443
 35.370    534.000    522.487     11.513    513.205    522.249    513.205    513.442    513.205
 35.470    501.000    521.256    -20.256    512.968    521.020    512.968    513.204    512.968
 35.570    559.000    520.217     38.783    512.732    519.982    512.732    512.967    512.732
 35.670    533.177    519.325     13.853    512.499    519.090    512.499    512.733    512.499
 35.770    533.000    518.548     14.452    512.266    518.315    512.266    512.500    512.266
 35.870    473.018    517.865    -44.846    512.035    517.632    512.035    512.268    512.035
 35.970    517.000    517.257     -0.257    511.806    517.024    511.806    512.038    511.806
 36.070    481.219    516.711    -35.492    511.578    516.479    511.578    511.810    511.578
 36.170    539.000    516.218     22.782    511.351    515.986    511.351    511.583    511.351
 36.270    511.000    515.771     -4.771    511.126    515.539    511.126    511.358    511.126
 36.370    501.000    515.364    -14.364    510.903    515.132    510.903    511.135    510.903
 36.470    562.000    514.994     47.006    510.681    514.763    510.681    510.913    510.681
 36.570    512.000    514.660     -2.660    510.461    514.429    510.461    510.693    510.461
 36.670    495.000    514.363    -19.363    510.242    514.131    510.242    510.474    510.242
 36.770    514.000    514.108     -0.108    510.025    513.876    510.025    510.257    510.025
 36.870    547.843    513.913     33.930    509.809    513.680    509.809    510.042    509.809
 36.970    546.000    513.825     32.175    509.595    513.592    509.595    509.828    509.595
 37.070    551.946    513.966     37.981    509.382    513.732    509.382    509.616    509.382
 37.170    518.000    514.578      3.422    509.171    514.344    509.171    509.406    509.171
 37.270    507.000    516.019     -9.019    508.962    515.784    508.962    509.197    508.962
 37.370    497.000    518.605    -21.605    508.754    518.370    508.754    508.990    508.754
 37.470    497.000    522.261    -25.261    508.548    522.025    508.548    508.785    508.548
 37.570    521.743    526.138     -4.395    508.343    525.903    508.343    508.581    508.343
 37.670    530.000    528.573      1.427    508.140    528.338    508.140    508.379    508.140
 37.770    542.000    528.169     13.831    507.939    527.935    507.939    508.179    507.939
 37.870    487.000    525.289    -38.289    507.739    525.056    507.739    507.980    507.739
 37.970    529.000    521.468      7.532    507.541    521.235    507.541    507.783    507.541
 38.070    506.000    517.898    -11.898    507.344    517.665    507.344    507.588    507.344
 38.170    525.000    515.040      9.960    507.149    514.804    507.149    507.394    507.149
 38.270    490.159    512.962    -22.803    506.956    512.722    506.956    507.202    506.956
 38.370    530.329    511.547     18.782    506.764    511.304    506.764    507.012    506.764
 38.470    490.621    510.613    -19.993    506.574    510.366    506.574    506.824    506.574
 38.570    540.136    509.992     30.143    506.385    509.742    506.385    506.637    506.385
 38.670    512.000    509.560      2.440    506.199    509.308    506.199    506.452    506.199
 38.770    486.000    509.233    -23.233    506.014    508.979    506.014    506.269    506.014
 38.870    541.622    508.962     32.659    505.830    508.706    505.830    506.087    505.830
 38.970    516.160    508.723      7.437    505.648    508.465    505.648    505.907    505.648
 39.070    454.000    508.504    -54.504    505.468    508.243    505.468    505.729    505.468
 39.170    535.577    508.300     27.277    505.290    508.037    505.290    505.553    505.290
 39.270    510.000    508.108      1.892    505.113    507.843    505.113    505.378    505.113
 39.370    537.000    507.926     29.074    504.937    507.659    504.937    505.205    504.937
 39.470    531.260    507.754     23.507    504.764    507.484    504.764    505.034    504.764
 39.570    513.259    507.590      5.670    504.592    507.317    504.592    504.865    504.592
 39.670    534.164    507.434     26.730    504.422    507.159    504.422    504.697    504.422
 39.770    531.016    507.286     23.731    504.254    507.008    504.254    504.531    504.254
 39.870    539.088    507.145     31.943    504.087    506.865    504.087    504.367    504.087
 39.970    530.153    507.013     23.141    503.922    506.730    503.922    504.205    503.922
 40.070    485.000    506.888    -21.888    503.758    506.602    503.758    504.044    503.758
 40.170    505.000    506.772     -1.772    503.597    506.483    503.597    503.886    503.597
 40.270    490.000    506.665    -16.665    503.437    506.373    503.437    503.729    503.437
 40.370    489.000    506.568    -17.568    503.278    506.273    503.278    503.574    503.278
 40.470    494.000    506.482    -12.482    503.122    506.184    503.122    503.420    503.122
 40.570    494.000    506.408    -12.408    502.967    506.106    502.967    503.269    502.967
 40.670    534.432    506.348     28.084    502.813    506.042    502.813    503.119    502.813
 40.770    477.000    506.303    -29.303    502.662    505.994    502.662    502.971    502.662
 40.870    473.899    506.277    -32.378    502.512    505.964    502.512    502.825    502.512
 40.970    456.000    506.273    -50.273    502.364    505.956    502.364    502.681    502.364
 41.070    512.000    506.295      5.705    502.218    505.975    502.218    502.538    502.218
 41.170    487.000    506.349    -19.349    502.073    506.025    502.073    502.398    502.073
 41.270    503.000    506.444     -3.444    501.930    506.116    501.930    502.259    501.930
 41.370    502.000    506.590     -4.590    501.789    506.257    501.789    502.122    501.789
 41.470    504.000    506.803     -2.803    501.649    506.465    501.649    501.987    501.649
 41.570    519.387    507.105     12.281    501.511    506.764    501.511    501.854    501.511
 41.670    492.093    507.542    -15.449    501.375    507.196    501.375    501.723    501.375
 41.770    550.109    508.208     41.900    501.241    507.857    501.241    501.594    501.241
 41.870    536.748    509.338     27.411    501.108    508.982    501.108    501.466    501.108
 41.970    530.019    511.475     18.544    500.977    511.115    500.977    501.340    500.977
 42.070    557.460    515.719     41.740    500.848    515.356    500.848    501.217    500.848
 42.170    538.000    523.849     14.151    500.720    523.483    500.720    501.095    500.720
 42.270    507.000    537.928    -30.928    500.595    537.562    500.595    500.975    500.595
 42.370    530.000    559.063    -29.063    500.470    558.702    500.470    500.857    500.470
 42.470    585.000    585.532     -0.532    500.348    585.178    500.348    500.741    500.348
 42.570    580.000    611.149    -31.149    500.227    610.802    500.227    500.627    500.227
 42.670    566.000    625.818    -59.818    500.108    625.475    500.108    500.515    500.108
 42.770    534.000    621.824    -87.824    499.991    621.475    499.991    500.405    499.991
 42.870    613.642    601.517     12.124    499.876    601.153    499.876    500.297    499.876
 42.970    560.014    574.519    -14.504    499.762    574.132    499.762    500.191    499.762
 43.070    527.000    549.605    -22.605    499.650    549.196    499.650    500.087    499.650
 43.170    530.000    531.089     -1.089    499.539    530.661    499.539    499.985    499.539
 43.270    553.000    519.378     33.622    499.430    518.934    499.430    499.885    499.430
 43.370    500.000    512.818    -12.818    499.323    512.360    499.323    499.787    499.323
 43.470    482.791    509.384    -26.593    499.218    508.915    499.218    499.691    499.218
 43.570    506.000    507.565     -1.565    499.115    507.085    499.115    499.597    499.115
 43.670    473.235    506.503    -33.269    499.013    506.012    499.013    499.506    499.013
 43.770    482.617    505.798    -23.180    498.913    505.295    498.913    499.416    498.913
 43.870    501.314    505.279     -3.965    498.814    504.765    498.814    499.329    498.814
 43.970    509.865    504.877      4.989    498.717    504.351    498.717    499.244    498.717
 44.070    535.000    504.557     30.443    498.622    504.018    498.622    499.162    498.622
 44.170    517.992    504.299     13.693    498.529    503.748    498.529    499.081    498.529
 44.270    531.000    504.091     26.909    498.437    503.526    498.437    499.003    498.437
 44.370    524.000    503.922     20.078    498.347    503.343    498.347    498.927    498.347
 44.470    545.622    503.787     41.835    498.259    503.192    498.259    498.854    498.259
 44.570    479.000    503.680    -24.680    498.172    503.070    498.172    498.783    498.172
 44.670    521.000    503.598     17.402    498.088    502.970    498.088    498.715    498.088
 44.770    524.000    503.537     20.463    498.004    502.892    498.004    498.650    498.004
 44.870    533.000    503.496     29.504    497.923    502.832    497.923    498.587    497.923
 44.970    472.242    503.473    -31.231    497.843    502.790    497.843    498.527    497.843
 45.070    532.000    503.468     28.532    497.765    502.763    497.765    498.469    497.765
 45.170    540.000    503.480     36.520    497.688    502.753    497.688    498.415    497.688
 45.270    519.000    503.508     15.492    497.613    502.757    497.613    498.364    497.613
 45.370    471.487    503.553    -32.066    497.540    502.777    497.540    498.316    497.540
 45.470    498.000    503.615     -5.615    497.469    502.813    497.469    498.271    497.469
 45.570    473.000    503.695    -30.695    497.399    502.864    497.399    498.230    497.399
 45.670    512.000    503.794      8.206    497.331    502.933    497.331    498.192    497.331
 45.770    510.000    503.913      6.087    497.264    503.019    497.264    498.158    497.264
 45.870    511.000    504.054      6.946    497.199    503.124    497.199    498.129    497.199
 45.970    515.000    504.219     10.781    497.136    503.252    497.136    498.103    497.136
 46.070    534.601    504.411     30.190    497.075    503.403    497.075    498.083    497.075
 46.170    474.836    504.633    -29.797    497.015    503.581    497.015    498.067    497.015
 46.270    487.000    504.890    -17.890    496.956    503.790    496.956    498.056    496.956
 46.370    464.000    505.188    -41.188    496.900    504.035    496.900    498.052    496.900
 46.470    533.000    505.534     27.466    496.845    504.324    496.845    498.054    496.845
 46.570    533.778    505.938     27.841    496.791    504.665    496.791    498.062    496.791
 46.670    479.000    506.414    -27.414    496.739    505.074    496.739    498.078    496.739
 46.770    551.132    506.990     44.142    496.689    505.575    496.689    498.103    496.689
 46.870    464.949    507.716    -42.766    496.641    506.217    496.641    498.137    496.641
 46.970    526.294    508.713     17.581    496.594    507.123    496.594    498.182    496.594
 47.070    494.155    510.244    -16.090    496.548    508.551    496.548    498.238    496.548
 47.170    520.000    512.821      7.179    496.505    511.012    496.505    498.308    496.505
 47.270    487.064    517.283    -30.219    496.463    515.344    496.463    498.393    496.463
 47.370    518.000    524.708     -6.708    496.422    522.619    496.422    498.497    496.422
 47.470    559.572    535.978     23.594    496.383    533.718    496.383    498.621    496.383
 47.570    541.164    551.036     -9.873    496.346    548.579    496.346    498.770    496.346
 47.670    565.000    568.068     -3.068    496.310    565.385    496.310    498.947    496.310
 47.770    538.000    583.048    -45.048    496.276    580.108    496.276    499.160    496.276
 47.870    541.710    590.586    -48.876    496.243    587.356    496.243    499.414    496.243
 47.970    597.984    587.488     10.497    496.212    583.925    496.212    499.720    496.212
 48.070    622.000    575.920     46.080    496.182    571.968    496.182    500.091    496.182
 48.170    571.000    561.161      9.839    496.155    556.739    496.155    500.545    496.155
 48.270    559.000    547.739     11.261    496.128    542.734    496.128    501.113    496.128
 48.370    525.000    538.082    -13.082    496.103    532.327    496.103    501.845    496.103
 48.470    535.000    532.753      2.247    496.080    525.990    496.080    502.834    496.080
 48.570    507.000    531.249    -24.249    496.058    523.061    496.058    504.240    496.058
 48.670    484.403    532.843    -48.440    496.038    522.537    496.038    506.339    496.038
 48.770    545.344    537.136      8.208    496.019    523.595    496.019    509.555    496.019
 48.870    538.000    544.244     -6.244    496.002    525.768    496.002    514.472    496.002
 48.970    513.807    554.706    -40.899    495.986    528.921    495.986    521.765    495.986
 49.070    579.000    569.286      9.714    495.972    533.225    495.972    532.025    495.972
 49.170    567.748    588.845    -21.097    495.959    539.322    495.959    545.472    495.959
 49.270    630.000    614.599     15.401    495.948    548.961    495.948    561.572    495.948
 49.370    697.480    649.193     48.287    495.938    566.534    495.938    578.577    495.938
 49.470    686.228    699.083    -12.855    495.930    601.823    495.930    593.157    495.930
 49.570    818.000    778.266     39.734    495.923    673.193    495.923    600.942    495.923
 49.670    906.000    911.243     -5.243    495.917    808.122    495.917    598.950    495.917
 49.770   1171.064   1128.172     42.892    495.913   1035.913    495.913    588.040    495.913
 49.870   1362.000   1445.768    -83.768    495.911   1369.414    495.911    572.089    495.911
 49.970   1848.000   1840.256      7.744    495.910   1780.788    495.910    555.181    495.910
 50.070   2306.312   2229.989     76.323    495.910   2185.727    495.910    540.006    495.910
 50.170   2452.217   2487.902    -35.685    495.912   2455.948    495.912    527.790    495.912
 50.270   2429.893   2502.878    -72.985    495.916   2480.107    495.916    518.733    495.916
 50.370   2279.472   2263.667     15.804    495.920   2247.293    495.920    512.436    495.920
 50.470   1893.000   1870.087     22.913    495.926   1857.942    495.926    508.250    495.926
 50.570   1511.679   1454.220     57.458    495.934   1444.797    495.934    505.524    495.934
 50.670   1101.000   1110.017     -9.017    495.943   1102.354    495.943    503.734    495.943
 50.770    860.841    873.806    -12.965    495.953    867.331    495.953    502.518    495.953
 50.870    698.000    736.529    -38.529    495.965    730.906    495.965    501.649    495.965
 50.970    684.000    667.506     16.494    495.978    662.535    495.978    500.995    495.978
 51.070    660.500    634.734     25.765    495.993    630.282    495.993    500.484    495.993
 51.170    620.000    615.491      4.509    496.008    611.460    496.008    500.073    496.008
 51.270    600.000    598.725      1.275    496.026    595.041    496.026    499.739    496.026
 51.370    627.733    582.019     45.713    496.044    578.623    496.044    499.464    496.044
 51.470    567.000    566.586      0.414    496.064    563.430    496.064    499.236    496.064
 51.570    589.000    553.914     35.086    496.085    550.961    496.085    499.048    496.085
 51.670    550.023    544.642      5.380    496.108    541.864    496.108    498.893    496.108
 51.770    572.310    538.557     33.753    496.132    535.928    496.132    498.766    496.132
 51.870    523.457    534.974    -11.517    496.157    532.472    496.157    498.662    496.157
 51.970    549.939    533.148     16.791    496.183    530.756    496.183    498.578    496.183
 52.070    522.000    532.525    -10.525    496.211    530.227    496.211    498.511    496.211
 52.170    501.265    532.811    -31.546    496.240    530.593    496.240    498.460    496.240
 52.270    557.000    533.958     23.042    496.270    531.808    496.270    498.422    496.270
 52.370    596.000    536.178     59.822    496.302    534.085    496.302    498.396    496.302
 52.470    513.000    540.094    -27.094    496.335    538.049    496.335    498.381    496.335
 52.570    560.000    547.100     12.900    496.369    545.094    496.369    498.376    496.369
 52.670    604.000    559.922     44.078    496.404    557.946    496.404    498.379    496.404
 52.770    613.000    583.178     29.822    496.441    581.226    496.441    498.391    496.441
 52.870    638.697    623.390     15.307    496.479    621.454    496.479    498.411    496.479
 52.970    694.000    687.675      6.325    496.518    685.750    496.518    498.438    496.518
 53.070    846.000    780.618     65.382    496.558    778.697    496.558    498.471    496.558
 53.170    992.000    899.813     92.187    496.600    897.894    496.600    498.511    496.600
 53.270   1034.000   1031.601      2.399    496.642   1029.681    496.642    498.558    496.642
 53.370   1140.000   1149.125     -9.125    496.686   1147.204    496.686    498.610    496.686
 53.470   1204.000   1217.203    -13.203    496.731   1215.281    496.731    498.668    496.731
 53.570   1185.000   1210.006    -25.006    496.778   1208.079    496.778    498.732    496.778
 53.670   1054.000   1130.790    -76.790    496.825   1128.849    496.825    498.802    496.825
 53.770   1045.783   1008.852     36.931    496.873   1006.883    496.873    498.878    496.873
 53.870    903.990    878.514     25.476    496.923    876.509    496.923    498.960    496.923
 53.970    746.000    764.201    -18.201    496.974    762.152    496.974    499.047    496.974
 54.070    668.000    677.251     -9.251    497.026    675.153    497.026    499.141    497.026
 54.170    591.000    618.447    -27.447    497.079    616.296    497.079    499.240    497.079
 54.270    583.000    582.457      0.543    497.133    580.251    497.133    499.346    497.133
 54.370    534.000    562.125    -28.125    497.189    559.859    497.189    499.459    497.189
 54.470    549.000    551.248     -2.248    497.245    548.917    497.245    499.579    497.245
 54.570    573.160    545.585     27.575    497.302    543.184    497.302    499.705    497.302
 54.670    592.000    542.694     49.306    497.361    540.216    497.361    499.840    497.361
 54.770    522.969    541.347    -18.377    497.421    538.785    497.421    499.983    497.421
 54.870    570.000    540.985     29.015    497.481    538.333    497.481    500.134    497.481
 54.970    578.387    541.379     37.009    497.543    538.627    497.543    500.295    497.543
 55.070    545.631    542.443      3.188    497.606    539.584    497.606    500.466    497.606
 55.170    515.233    544.172    -28.939    497.670    541.194    497.670    500.647    497.670
 55.270    604.000    546.604     57.396    497.734    543.498    497.734    500.841    497.734
 55.370    625.000    549.832     75.168    497.800    546.585    497.800    501.047    497.800
 55.470    533.000    554.020    -21.020    497.867    550.620    497.867    501.267    497.867
 55.570    543.000    559.482    -16.482    497.935    555.914    497.935    501.503    497.935
 55.670    557.000    566.869     -9.869    498.004    563.116    498.004    501.756    498.004
 55.770    605.000    577.589     27.411    498.074    573.634    498.074    502.028    498.074
 55.870    572.000    594.642    -22.642    498.144    590.462    498.144    502.321    498.144
 55.970    664.000    623.940     40.060    498.216    619.511    498.216    502.638    498.216
 56.070    656.144    675.879    -19.735    498.289    671.172    498.289    502.982    498.289
 56.170    699.000    766.201    -67.201    498.362    761.182    498.362    503.356    498.362
 56.270    868.000    914.432    -46.432    498.437    909.063    498.437    503.765    498.437
 56.370   1133.478   1138.198     -4.720    498.512   1132.440    498.512    504.213    498.512
 56.470   1421.000   1443.297    -22.297    498.588   1437.108    498.588    504.706    498.588
 56.570   1773.000   1812.211    -39.211    498.666   1805.554    498.666    505.251    498.666
 56.670   2121.151   2195.688    -74.537    498.744   2188.525    498.744    505.858    498.744
 56.770   2449.000   2512.815    -63.815    498.823   2505.108    498.823    506.535    498.823
 56.870   2736.000   2670.674     65.326    498.903   2662.368    498.903    507.296    498.903
 56.970   2637.322   2613.361     23.961    498.983   2604.361    498.983    508.157    498.983
 57.070   2382.000   2363.715     18.285    499.065   2353.874    499.065    509.136    499.065
 57.170   2113.000   2004.038    108.962    499.147   1993.166    499.147    510.261    499.147
 57.270   1632.000   1624.205      7.795    499.230   1612.088    499.230    511.566    499.230
 57.370   1304.000   1289.060     14.940    499.314   1275.446    499.314    513.102    499.314
 57.470   1052.939   1030.572     22.368    499.399   1015.144    499.399    514.952    499.399
 57.570    863.000    852.945     10.055    499.485    835.262    499.485    517.249    499.485
 57.670    784.687    743.386     41.302    499.571    722.779    499.571    520.226    499.571
 57.770    735.000    683.412     51.588    499.658    658.820    499.658    524.275    499.658
 57.870    671.000    656.930     14.070    499.746    626.650    499.746    530.036    499.746
 57.970    646.761    653.886     -7.126    499.835    615.247    499.835    538.472    499.835
 58.070    677.000    670.497      6.503    499.924    619.493    499.924    550.916    499.924
 58.170    727.000    707.600     19.400    500.015    638.595    500.015    568.995    500.015
 58.270    790.576    768.228     22.348    500.106    673.898    500.106    594.398    500.106
 58.370    904.582    854.961     49.621    500.197    726.673    500.197    628.434    500.197
 58.470    922.000    967.459    -45.459    500.289    796.252    500.289    671.433    500.289
 58.570   1071.000   1100.304    -29.304    500.382    878.558    500.382    722.056    500.382
 58.670   1166.000   1241.985    -75.985    500.476    965.842    500.476    776.547    500.476
 58.770   1394.000   1375.979     18.021    500.570   1048.486    500.570    827.998    500.570
 58.870   1436.000   1483.923    -47.923    500.665   1118.155    500.665    866.381    500.665
 58.970   1480.137   1548.915    -68.778    500.761   1168.352    500.761    881.292    500.761
 59.070   1488.235   1559.552    -71.316    500.857   1192.492    500.857    867.907    500.857
 59.170   1577.338   1515.735     61.603    500.954   1186.031    500.954    830.666    500.954
 59.270   1525.000   1431.184     93.816    501.052   1152.415    501.052    779.836    501.052
 59.370   1307.655   1328.261    -20.605    501.150   1103.884    501.150    725.534    501.150
 59.470   1178.000   1229.316    -51.316    501.249   1055.726    501.249    674.824    501.249
 59.570   1166.394   1152.597     13.797    501.348   1022.290    501.348    631.608    501.348
 59.670   1153.671   1113.100     40.571    501.448   1017.129    501.448    597.328    501.448
 59.770   1119.000   1122.015     -3.015    501.549   1051.699    501.549    571.722    501.549
 59.870   1111.648   1182.159    -70.511    501.650   1130.092    501.650    553.517    501.650
 59.970   1332.000   1283.359     48.641    501.751   1243.822    501.751    541.034    501.751
 60.070   1428.000   1401.060     26.940    501.853   1369.982    501.853    532.636    501.853
 60.170   1463.919   1498.989    -35.070    501.956   1473.661    501.956    526.975    501.956
 60.270   1588.368   1538.662     49.705    502.059   1517.366    502.059    523.069    502.059
 60.370   1576.000   1497.635     78.365    502.163   1479.297    502.163    520.267    502.163
 60.470   1392.000   1383.238      8.762    502.267   1367.170    502.267    518.169    502.267
 60.570   1290.000   1225.307     64.693    502.371   1211.036    502.371    516.540    502.371
 60.670   1052.000   1058.025     -6.025    502.477   1045.199    502.477    515.247    502.477
 60.770    932.663    907.746     24.917    502.582    896.085    502.582    514.216    502.582
 60.870    790.178    789.037      1.141    502.688    778.304    502.688    513.410    502.688
 60.970    715.112    705.677      9.435    502.794    695.656    502.794    512.808    502.794
 61.070    679.000    654.380     24.620    502.901    644.868    502.901    512.405    502.901
 61.170    592.012    629.376    -37.364    503.009    620.173    503.009    512.197    503.009
 61.270    656.000    626.175     29.825    503.116    617.088    503.116    512.181    503.116
 61.370    627.000    643.616    -16.616    503.224    634.464    503.224    512.343    503.224
 61.470    682.000    684.013     -2.013    503.333    674.643    503.333    512.652    503.333
 61.570    709.000    751.575    -42.575    503.441    741.890    503.441    513.051    503.441
 61.670    817.000    849.445    -32.445    503.551    839.438    503.551    513.450    503.551
 61.770    927.000    976.024    -49.024    503.660    965.813    503.660    513.730    503.660
 61.870   1078.000   1121.686    -43.686    503.770   1111.520    503.770    513.764    503.770
 61.970   1197.000   1267.089    -70.089    503.880   1257.292    503.880    513.486    503.880
 62.070   1310.000   1384.361    -74.361    503.991   1375.235    503.991    512.925    503.991
 62.170   1458.000   1443.717     14.283    504.101   1435.465    504.101    512.185    504.101
 62.270   1390.942   1427.034    -36.092    504.212   1419.735    504.212    511.386    504.212
 62.370   1310.000   1339.303    -29.303    504.324   1332.931    504.324    510.618    504.324
 62.470   1230.000   1205.030     24.970    504.435   1199.488    504.435    509.939    504.435
 62.570   1005.999   1054.337    -48.338    504.547   1049.497    504.547    509.377    504.547
 62.670    903.000    912.042     -9.042    504.659    907.770    504.659    508.937    504.659
 62.770    747.248    793.427    -46.179    504.772    789.600    504.772    508.610    504.772
 62.870    674.000    704.255    -30.255    504.884    700.771    504.884    508.377    504.884
 62.970    623.000    643.048    -20.048    504.997    639.831    504.997    508.221    504.997
 63.070    649.652    604.327     45.325    505.110    601.319    505.110    508.120    505.110
 63.170    586.000    581.579      4.421    505.223    578.741    505.223    508.060    505.223
 63.270    529.000    569.210    -40.210    505.337    566.514    505.337    508.028    505.337
 63.370    579.000    563.364     15.636    505.450    560.790    505.450    508.018    505.450
 63.470    548.587    561.994    -13.407    505.564    559.528    505.564    508.023    505.564
 63.570    570.000    564.610      5.390    505.678    562.239    505.678    508.039    505.678
 63.670    549.242    571.997    -22.755    505.792    569.710    505.792    508.064    505.792
 63.770    605.646    585.956     19.690    505.906    583.743    505.906    508.097    505.906
 63.870    577.000    608.944    -31.944    506.020    606.794    506.020    508.139    506.020
 63.970    636.000    643.471     -7.471    506.134    641.375    506.134    508.186    506.134
 64.070    671.000    691.183    -20.183    506.249    689.130    506.249    508.238    506.249
 64.170    805.237    751.732     53.505    506.363    749.715    506.363    508.296    506.363
 64.270    784.296    821.712    -37.416    506.478    819.726    506.478    508.358    506.478
 64.370    892.956    893.970     -1.014    506.593    892.014    506.593    508.424    506.593
 64.470    896.475    957.835    -61.361    506.707    955.914    506.707    508.494    506.707
 64.570    993.182   1001.374     -8.192    506.822    999.495    506.822    508.568    506.822
 64.670    999.000   1016.060    -17.060    506.937   1014.233    506.937    508.644    506.937
 64.770   1037.000   1000.610     36.390    507.051    998.842    507.051    508.724    507.051
 64.870    996.925    960.508     36.418    507.166    958.801    507.166    508.806    507.166
 64.970    977.000    905.030     71.970    507.281    903.381    507.281    508.891    507.281
 65.070    870.000    844.176     25.824    507.396    842.579    507.396    508.979    507.396
 65.170    766.000    785.936    -19.936    507.510    784.383    507.510    509.068    507.510
 65.270    722.000    734.785    -12.785    507.625    733.268    507.625    509.160    507.625
 65.370    674.000    691.989    -17.989    507.739    690.499    507.739    509.254    507.739
 65.470    664.847    657.062      7.785    507.854    655.591    507.854    509.350    507.854
 65.570    583.528    629.090    -45.562    507.968    627.633    507.968    509.447    507.968
 65.670    641.000    607.194     33.806    508.083    605.747    508.083    509.547    508.083
 65.770    556.000    590.525    -34.525    508.197    589.085    508.197    509.648    508.197
 65.870    553.000    578.276    -25.276    508.311    576.843    508.311    509.751    508.311
 65.970    592.000    569.713     22.287    508.425    568.286    508.425    509.855    508.425
 66.070    527.000    564.173    -37.173    508.539    562.752    508.539    509.961    508.539
 66.170    528.000    561.071    -33.071    508.653    559.655    508.653    510.068    508.653
 66.270    541.000    559.915    -18.915    508.767    558.504    508.767    510.177    508.767
 66.370    550.718    560.336     -9.617    508.880    558.928    508.880    510.287    508.880
 66.470    542.000    562.130    -20.130    508.993    560.723    508.993    510.399    508.993
 66.570    593.117    565.319     27.798    509.106    563.913    509.106    510.512    509.106
 66.670    548.000    570.256    -22.256    509.219    568.849    509.219    510.627    509.219
 66.770    613.000    577.821     35.179    509.332    576.410    509.332    510.743    509.332
 66.870    544.000    589.758    -45.758    509.445    588.341    509.445    510.860    509.445
 66.970    618.034    609.150      8.883    509.557    607.726    509.557    510.979    509.557
 67.070    662.000    640.950     21.050    509.669    639.513    509.669    511.100    509.669
 67.170    702.000    692.310      9.690    509.781    690.859    509.781    511.222    509.781
 67.270    807.000    772.347     34.653    509.892    770.878    509.892    511.345    509.892
 67.370    861.472    890.878    -29.406    510.003    889.389    510.003    511.471    510.003
 67.470   1040.000   1055.879    -15.879    510.114   1054.371    510.114    511.597    510.114
 67.570   1333.105   1269.880     63.226    510.225   1268.356    510.225    511.726    510.225
 67.670   1499.000   1526.100    -27.100    510.335   1524.570    510.335    511.857    510.335
 67.770   1878.556   1805.475     73.081    510.445   1803.951    510.445    511.989    510.445
 67.870   2099.000   2075.675     23.325    510.555   2074.172    510.555    512.124    510.555
 67.970   2261.373   2293.626    -32.252    510.664   2292.158    510.664    512.261    510.664
 68.070   2442.000   2414.590     27.410    510.773   2413.162    510.773    512.400    510.773
 68.170   2323.022   2409.186    -86.164    510.882   2407.790    510.882    512.542    510.882
 68.270   2275.896   2278.916     -3.020    510.990   2277.524    510.990    512.687    510.990
 68.370   2136.398   2055.216     81.182    511.098   2053.793    511.098    512.834    511.098
 68.470   1813.557   1783.181     30.376    511.206   1781.694    511.206    512.985    511.206
 68.570   1446.165   1505.165    -59.000    511.313   1503.591    511.313    513.139    511.313
 68.670   1231.000   1252.399    -21.399    511.419   1250.725    511.419    513.297    511.419
 68.770   1097.000   1042.842     54.158    511.526   1041.062    511.526    513.459    511.526
 68.870    923.522    882.356     41.166    511.632    880.471    511.632    513.626    511.632
 68.970    820.828    767.805     53.023    511.737    765.819    511.737    513.798    511.737
 69.070    659.000    690.940    -31.940    511.842    688.856    511.842    513.975    511.842
 69.170    680.000    641.930     38.070    511.946    639.749    511.946    514.158    511.946
 69.270    616.304    611.792      4.512    512.050    609.514    512.050    514.348    512.050
 69.370    574.000    593.553    -19.553    512.154    591.174    512.154    514.546    512.154
 69.470    627.000    582.418     44.582    512.257    579.932    512.257    514.752    512.257
 69.570    606.000    575.404     30.596    512.359    572.803    512.359    514.967    512.359
 69.670    531.000    570.801    -39.801    512.461    568.074    512.461    515.193    512.461
 69.770    531.778    567.689    -35.911    512.563    564.825    512.563    515.430    512.563
 69.870    578.000    565.599     12.401    512.664    562.584    512.664    515.681    512.664
 69.970    603.672    564.299     39.373    512.764    561.117    512.764    515.947    512.764
 70.070    605.000    563.680     41.320    512.864    560.314    512.864    516.231    512.864
 70.170    547.492    563.709    -16.217    512.963    560.138    512.963    516.534    512.963
 70.270    544.000    564.413    -20.413    513.062    560.614    513.062    516.859    513.062
 70.370    571.000    565.901      5.099    513.160    561.847    513.160    517.211    513.160
 70.470    577.000    568.415      8.585    513.258    564.076    513.258    517.593    513.258
 70.570    564.000    572.434     -8.434    513.354    567.772    513.354    518.011    513.354
 70.670    631.000    578.831     52.169    513.451    573.804    513.451    518.470    513.451
 70.770    575.000    589.118    -14.118    513.546    583.674    513.546    518.978    513.546
 70.870    633.952    605.702     28.250    513.641    599.776    513.641    519.548    513.641
 70.970    602.000    632.121    -30.121    513.736    625.633    513.736    520.195    513.736
 71.070    669.371    673.092     -3.721    513.829    665.935    513.829    520.944    513.829
 71.170    759.000    734.180     24.820    513.922    726.205    513.922    521.835    513.922
 71.270    806.000    820.913    -14.913    514.015    811.904    514.015    522.936    514.015
 71.370    881.575    937.313    -55.737    514.106    926.946    514.106    524.356    514.106
 71.470   1133.381   1084.023     49.358    514.197   1071.798    514.197    526.271    514.197
 71.570   1199.000   1256.445    -57.445    514.288   1241.596    514.288    528.953    514.288
 71.670   1459.000   1443.412     15.588    514.377   1424.786    514.377    532.794    514.377
 71.770   1596.000   1626.845    -30.845    514.466   1602.763    514.466    538.325    514.466
 71.870   1721.477   1782.994    -61.516    514.554   1751.122    514.554    546.204    514.554
 71.970   1924.000   1886.540     37.460    514.641   1843.817    514.641    557.163    514.641
 72.070   1830.005   1918.608    -88.603    514.728   1861.274    514.728    571.895    514.728
 72.170   1899.610   1875.568     24.043    514.814   1799.364    514.814    590.891    514.814
 72.270   1795.000   1771.156     23.844    514.899   1671.734    514.899    614.232    514.899
 72.370   1559.095   1629.386    -70.291    514.983   1502.929    514.983    641.382    514.983
 72.470   1554.944   1474.891     80.053    515.066   1318.918    515.066    671.001    515.066
 72.570   1396.000   1326.814     69.186    515.149   1141.117    515.149    700.822    515.149
 72.670   1195.851   1196.532     -0.681    515.231    984.126    515.231    727.618    515.231
 72.770   1092.240   1087.752      4.488    515.312    855.548    515.312    747.498    515.312
 72.870   1019.808    998.424     21.383    515.392    756.983    515.392    756.816    515.392
 72.970    952.366    923.917     28.449    515.471    685.753    515.471    753.619    515.471
 73.070    852.000    859.963     -7.963    515.550    636.857    515.550    738.640    515.550
 73.170    765.000    803.950    -38.950    515.628    604.673    515.628    714.891    515.628
 73.270    673.000    754.695    -81.695    515.704    584.110    515.704    686.278    515.704
 73.370    733.242    711.800     21.442    515.780    571.170    515.780    656.402    515.780
 73.470    722.155    675.201     46.954    515.855    563.049    515.855    628.001    515.855
 73.570    609.828    644.896    -35.069    515.929    557.965    515.929    602.858    515.929
 73.670    597.547    620.763    -23.215    516.002    554.886    516.002    581.879    516.002
 73.770    617.964    602.449     15.516    516.075    553.266    516.075    565.261    516.075
 73.870    584.000    589.363     -5.363    516.146    552.829    516.146    552.688    516.146
 73.970    602.970    580.728     22.242    516.217    553.413    516.217    543.543    516.217
 74.070    556.000    575.659    -19.659    516.286    554.863    516.286    537.099    516.286
 74.170    617.000    573.236     43.764    516.355    556.961    516.355    532.653    516.355
 74.270    620.000    572.552     47.448    516.422    559.395    516.422    529.608    516.422
 74.370    670.000    572.730     97.270    516.489    561.747    516.489    527.506    516.489
 74.470    638.000    572.953     65.047    516.554    563.528    516.554    526.020    516.554
 74.570    619.000    572.536     46.464    516.619    564.268    516.619    524.930    516.619
 74.670    669.000    571.042     97.958    516.683    563.671    516.683    524.097    516.683
 74.770    604.000    568.399     35.601    516.745    561.750    516.745    523.436    516.745
 74.870    583.000    564.873     18.127    516.807    558.824    516.807    522.893    516.807
 74.970    536.067    560.933    -24.865    516.868    555.393    516.868    522.438    516.868
 75.070    576.000    557.103     18.897    516.927    552.004    516.927    522.052    516.927
 75.170    588.123    553.892     34.231    516.986    549.178    516.986    521.719    516.986
 75.270    582.000    551.778     30.222    517.044    547.403    517.044    521.431    517.044
 75.370    555.000    551.228      3.772    517.100    547.154    517.100    521.181    517.100
 75.470    566.000    552.728     13.272    517.156    548.921    517.156    520.963    517.156
 75.570    560.000    556.792      3.208    517.210    553.225    517.210    520.773    517.210
 75.670    533.000    563.943    -30.943    517.263    560.590    517.263    520.606    517.263
 75.770    652.000    574.626     77.374    517.316    571.465    517.316    520.460    517.316
 75.870    588.000    589.077     -1.077    517.367    586.087    517.367    520.332    517.367
 75.970    622.000    607.149     14.851    517.417    604.313    517.417    520.219    517.417
 76.070    607.000    628.150    -21.150    517.466    625.454    517.466    520.119    517.466
 76.170    665.190    650.730     14.460    517.514    648.161    517.514    520.032    517.514
 76.270    676.877    672.855      4.021    517.560    670.402    517.560    519.954    517.560
 76.370    711.000    691.903     19.097    517.606    689.558    517.606    519.886    517.606
 76.470    726.000    704.999     21.001    517.650    702.757    517.650    519.826    517.650
 76.570    717.000    709.734      7.266    517.694    707.590    517.694    519.774    517.694
 76.670    712.000    705.098      6.902    517.736    703.049    517.736    519.727    517.736
 76.770    688.226    691.981     -3.755    517.777    690.022    517.777    519.686    517.777
 76.870    668.000    672.718     -4.718    517.817    670.845    517.817    519.650    517.817
 76.970    660.403    650.165     10.239    517.856    648.371    517.856    519.618    517.856
 77.070    630.000    626.949      3.051    517.893    625.229    517.893    519.590    517.893
 77.170    611.000    605.120      5.880    517.929    603.468    517.929    519.566    517.929
 77.270    537.000    586.031    -49.031    517.965    584.440    517.965    519.544    517.965
 77.370    582.333    570.349     11.984    517.999    568.816    517.999    519.525    517.999
 77.470    546.000    558.171    -12.171    518.031    556.690    518.031    519.508    518.031
 77.570    543.000    549.180     -6.180    518.063    547.746    518.063    519.494    518.063
 77.670    564.000    542.832     21.168    518.093    541.441    518.093    519.481    518.093
 77.770    540.000    538.512      1.488    518.122    537.162    518.122    519.470    518.122
 77.870    550.000    535.651     14.349    518.150    534.340    518.150    519.460    518.150
 77.970    518.000    533.783    -15.783    518.177    532.508    518.177    519.451    518.177
 78.070    554.000    532.563     21.437    518.202    531.320    518.202    519.443    518.202
 78.170    550.925    531.752     19.173    518.226    530.541    518.226    519.436    518.226
 78.270    512.967    531.198    -18.231    518.249    530.016    518.249    519.430    518.249
 78.370    566.133    530.797     35.336    518.271    529.642    518.271    519.425    518.271
 78.470    518.698    530.514    -11.816    518.291    529.384    518.291    519.420    518.291
 78.570    551.194    530.359     20.835    518.310    529.253    518.310    519.416    518.310
 78.670    513.000    530.305    -17.305    518.328    529.221    518.328    519.412    518.328
 78.770    558.487    530.360     28.128    518.345    529.295    518.345    519.408    518.345
 78.870    539.000    530.541      8.459    518.360    529.494    518.360    519.406    518.360
 78.970    542.278    530.875     11.404    518.374    529.844    518.374    519.404    518.374
 79.070    539.000    531.393      7.607    518.387    530.375    518.387    519.403    518.387
 79.170    514.000    532.129    -18.129    518.398    531.120    518.398    519.405    518.398
 79.270    550.000    533.113     16.887    518.408    532.110    518.408    519.409    518.408
 79.370    555.000    534.375     20.625    518.417    533.372    518.417    519.416    518.417
 79.470    534.000    535.938     -1.938    518.424    534.929    518.424    519.429    518.424
 79.570    538.000    537.831      0.169    518.430    536.809    518.430    519.447    518.430
 79.670    520.010    540.097    -20.087    518.435    539.054    518.435    519.472    518.435
 79.770    585.643    542.812     42.831    518.438    541.738    518.438    519.506    518.438
 79.870    558.000    546.105     11.895    518.440    544.991    518.440    519.548    518.440
 79.970    531.000    550.191    -19.191    518.441    549.026    518.441    519.599    518.441
 80.070    540.000    555.390    -15.390    518.440    554.167    518.440    519.658    518.440
 80.170    504.000    562.137    -58.137    518.438    560.849    518.438    519.722    518.438
 80.270    562.181    570.928     -8.747    518.435    569.572    518.435    519.788    518.435
 80.370    586.000    582.221      3.779    518.430    580.801    518.430    519.851    518.430
 80.470    599.912    596.320      3.592    518.424    594.844    518.424    519.904    518.424
 80.570    656.282    613.256     43.027    518.416    611.740    518.416    519.940    518.416
 80.670    583.000    632.703    -49.703    518.407    631.172    518.407    519.950    518.407
 80.770    627.000    653.933    -26.933    518.397    652.415    518.397    519.932    518.397
 80.870    721.119    675.840     45.279    518.385    674.363    518.385    519.885    518.385
 80.970    717.000    697.053     19.947    518.372    695.642    518.372    519.813    518.372
 81.070    709.777    716.147     -6.370    518.358    714.817    518.358    519.724    518.358
 81.170    696.484    731.827    -35.343    518.342    730.588    518.342    519.624    518.342
 81.270    751.000    743.054      7.946    518.324    741.907    518.324    519.520    518.324
 81.370    710.603    749.115    -38.512    518.306    748.058    518.306    519.418    518.306
 81.470    731.000    749.714    -18.714    518.285    748.738    518.285    519.321    518.285
 81.570    764.564    744.979     19.585    518.264    744.075    518.264    519.231    518.264
 81.670    762.000    735.416     26.584    518.241    734.572    518.241    519.150    518.241
 81.770    754.000    721.875     32.125    518.216    721.081    518.216    519.076    518.216
 81.870    674.410    705.521    -31.111    518.191    704.765    518.191    519.011    518.191
 81.970    637.337    687.669    -50.332    518.163    686.943    518.163    518.952    518.163
 82.070    683.000    669.514     13.486    518.135    668.810    518.135    518.899    518.135
 82.170    648.000    651.909     -3.909    518.104    651.220    518.104    518.849    518.104
 82.270    649.000    635.318     13.682    518.073    634.641    518.073    518.803    518.073
 82.370    603.000    619.927    -16.927    518.040    619.257    518.040    518.758    518.040
 82.470    575.000    605.817    -30.817    518.005    605.151    518.005    518.714    518.005
 82.570    604.493    593.096     11.397    517.969    592.432    517.969    518.671    517.969
 82.670    534.000    581.922    -47.922    517.932    581.258    517.932    518.627    517.932
 82.770    559.000    572.464    -13.464    517.893    571.798    517.893    518.583    517.893
 82.870    556.000    564.869     -8.869    517.852    564.200    517.852    518.538    517.852
 82.970    532.351    559.246    -26.895    517.811    558.575    517.811    518.493    517.811
 83.070    567.000    555.656     11.344    517.767    554.980    517.767    518.446    517.767
 83.170    579.000    554.088     24.912    517.723    553.408    517.723    518.399    517.723
 83.270    531.413    554.448    -23.035    517.676    553.763    517.676    518.350    517.676
 83.370    510.753    556.530    -45.777    517.629    555.840    517.629    518.301    517.629
 83.470    536.563    560.013    -23.450    517.580    559.318    517.580    518.250    517.580
 83.570    540.000    564.454    -24.454    517.529    563.754    517.529    518.198    517.529
 83.670    601.407    569.302     32.105    517.477    568.596    517.477    518.145    517.477
 83.770    582.000    573.922      8.078    517.423    573.212    517.423    518.090    517.423
 83.870    583.499    577.648      5.851    517.368    576.936    517.368    518.035    517.368
 83.970    579.000    579.869     -0.869    517.311    579.156    517.311    517.978    517.311
 84.070    554.000    580.153    -26.153    517.253    579.441    517.253    517.920    517.253
 84.170    579.000    578.372      0.628    517.194    577.662    517.194    517.861    517.194
 84.270    571.000    574.731     -3.731    517.133    574.024    517.133    517.800    517.133
 84.370    552.000    569.683    -17.683    517.070    568.980    517.070    517.739    517.070
 84.470    530.000    563.789    -33.789    517.006    563.091    517.006    517.676    517.006
 84.570    581.061    557.600     23.461    516.941    556.905    516.941    517.611    516.941
 84.670    556.000    551.581      4.419    516.874    550.890    516.874    517.546    516.874
 84.770    535.000    546.083    -11.083    516.805    545.394    516.805    517.479    516.805
 84.870    533.000    541.328     -8.328    516.735    540.640    516.735    517.411    516.735
 84.970    563.033    537.418     25.615    516.664    536.730    516.664    517.342    516.664
 85.070    521.000    534.355    -13.355    516.590    533.667    516.590    517.272    516.590
 85.170    538.000    532.071      5.929    516.516    531.382    516.516    517.200    516.516
 85.270    523.000    530.461     -7.461    516.440    529.769    516.440    517.127    516.440
 85.370    521.963    529.407     -7.444    516.362    528.712    516.362    517.053    516.362
 85.470    513.000    528.803    -15.803    516.283    528.104    516.283    516.978    516.283
 85.570    544.000    528.571     15.429    516.203    527.869    516.203    516.901    516.203
 85.670    500.000    528.668    -28.668    516.121    527.961    516.121    516.823    516.121
 85.770    501.000    529.093    -28.093    516.037    528.380    516.037    516.744    516.037
 85.870    543.000    529.886     13.114    515.952    529.167    515.952    516.664    515.952
 85.970    508.000    531.132    -23.132    515.866    530.407    515.866    516.582    515.866
 86.070    587.000    532.962     54.038    515.778    532.229    515.778    516.499    515.778
 86.170    548.307    535.539     12.768    515.689    534.797    515.689    516.415    515.689
 86.270    581.000    539.057     41.943    515.598    538.304    515.598    516.330    515.598
 86.370    516.000    543.710    -27.710    515.505    542.945    515.505    516.244    515.505
 86.470    555.000    549.673      5.327    515.411    548.895    515.411    516.156    515.411
 86.570    592.428    557.059     35.369    515.316    556.264    515.316    516.068    515.316
 86.670    555.000    565.875    -10.875    515.219    565.062    515.219    515.978    515.219
 86.770    612.000    575.973     36.027    515.120    575.141    515.120    515.887    515.120
 86.870    566.000    587.055    -21.055    515.020    586.203    515.020    515.795    515.020
 86.970    646.113    598.615     47.498    514.919    597.743    514.919    515.702    514.919
 87.070    625.000    609.943     15.057    514.816    609.052    514.816    515.606    514.816
 87.170    617.661    620.178     -2.517    514.712    619.269    514.712    515.511    514.712
 87.270    613.000    628.377    -15.377    514.606    627.453    514.606    515.414    514.606
 87.370    638.000    633.663      4.337    514.498    632.727    514.498    515.317    514.498
 87.470    631.000    635.428     -4.428    514.390    634.485    514.390    515.219    514.390
 87.570    662.901    633.516     29.385    514.279    632.568    514.279    515.120    514.279
 87.670    623.135    628.264     -5.128    514.167    627.314    514.167    515.020    514.167
 87.770    629.000    620.399      8.601    514.054    619.450    514.054    514.919    514.054
 87.870    625.000    610.857     14.143    513.939    609.909    513.939    514.817    513.939
 87.970    619.000    600.626     18.374    513.823    599.677    513.823    514.714    513.823
 88.070    639.827    590.634     49.193    513.706    589.685    513.706    514.611    513.706
 88.170    588.000    581.687      6.313    513.586    580.734    513.586    514.507    513.586
 88.270    535.119    574.415    -39.295    513.466    573.457    513.466    514.402    513.466
 88.370    563.000    569.252     -6.252    513.344    568.287    513.344    514.297    513.344
 88.470    532.882    566.427    -33.544    513.220    565.453    513.220    514.191    513.220
 88.570    594.271    565.970     28.301    513.095    564.986    513.095    514.084    513.095
 88.670    579.785    567.726     12.059    512.969    566.730    512.969    513.978    512.969
 88.770    616.987    571.375     45.612    512.841    570.365    512.841    513.871    512.841
 88.870    556.716    576.449    -19.732    512.712    575.425    512.712    513.763    512.712
 88.970    617.000    582.362     34.638    512.581    581.322    512.581    513.656    512.581
 89.070    607.000    588.436     18.564    512.449    587.379    512.449    513.548    512.449
 89.170    598.000    593.942      4.058    512.315    592.866    512.315    513.440    512.315
 89.270    574.544    598.158    -23.614    512.180    597.060    512.180    513.333    512.180
 89.370    599.000    600.466     -1.466    512.044    599.343    512.044    513.226    512.044
 89.470    620.000    600.471     19.529    511.906    599.319    511.906    513.120    511.906
 89.570    586.000    598.090    -12.090    511.767    596.905    511.767    513.014    511.767
 89.670    604.261    593.562     10.699    511.626    592.339    511.626    512.909    511.626
 89.770    568.202    587.363    -19.161    511.484    586.098    511.484    512.805    511.484
 89.870    591.378    580.081     11.297    511.341    578.769    511.341    512.703    511.341
 89.970    540.992    572.305    -31.313    511.196    570.943    511.196    512.602    511.196
 90.070    533.000    564.557    -31.557    511.050    563.141    511.050    512.503    511.050
 90.170    553.984    557.256     -3.272    510.902    555.782    510.902    512.407    510.902
 90.270    544.000    550.701     -6.701    510.753    549.165    510.753    512.313    510.753
 90.370    512.000    545.072    -33.072    510.603    543.470    510.603    512.223    510.603
 90.470    538.000    540.439     -2.439    510.451    538.767    510.451    512.137    510.451
 90.570    561.000    536.786     24.213    510.298    535.038    510.298    512.057    510.298
 90.670    541.994    534.037      7.956    510.144    532.206    510.144    511.982    510.144
 90.770    521.000    532.080    -11.080    509.988    530.156    509.988    511.916    509.988
 90.870    496.000    530.792    -34.792    509.831    528.766    509.831    511.860    509.831
 90.970    494.833    530.063    -35.231    509.672    527.920    509.672    511.817    509.672
 91.070    527.000    529.806     -2.806    509.513    527.528    509.513    511.791    509.513
 91.170    512.000    529.969    -17.969    509.351    527.528    509.351    511.791    509.351
 91.270    513.726    530.503    -16.777    509.189    527.864    509.189    511.826    509.189
 91.370    532.673    531.512      1.161    509.025    528.628    509.025    511.906    509.025
 91.470    492.134    533.066    -40.932    508.860    529.873    508.860    512.049    508.860
 91.570    503.000    535.278    -32.278    508.694    531.692    508.694    512.273    508.694
 91.670    525.000    538.322    -13.322    508.526    534.235    508.526    512.605    508.526
 91.770    541.000    542.420     -1.420    508.357    537.693    508.357    513.074    508.357
 91.870    572.614    547.817     24.797    508.187    542.277    508.187    513.714    508.187
 91.970    552.000    554.776     -2.776    508.016    548.212    508.016    514.563    508.016
 92.070    581.716    563.554     18.162    507.843    555.716    507.843    515.660    507.843
 92.170    612.000    574.374     37.626    507.669    564.974    507.669    517.041    507.669
 92.270    611.000    587.390     23.610    507.494    576.113    507.494    518.737    507.494
 92.370    605.729    602.658      3.071    507.318    589.168    507.318    520.768    507.318
 92.470    644.827    620.108     24.719    507.140    604.063    507.140    523.137    507.140
 92.570    625.000    639.512    -14.512    506.961    620.589    506.961    525.828    506.961
 92.670    643.532    660.475    -16.943    506.781    638.393    506.781    528.800    506.781
 92.770    702.000    682.427     19.573    506.600    656.975    506.600    531.983    506.600
 92.870    750.427    704.639     45.788    506.417    675.708    506.417    535.273    506.417
 92.970    732.000    726.273      5.727    506.234    693.892    506.234    538.535    506.234
 93.070    795.238    746.496     48.742    506.049    710.867    506.049    541.595    506.049
 93.170    800.000    764.606     35.394    505.863    726.132    505.863    544.253    505.863
 93.270    838.000    780.147     57.853    505.676    739.445    505.676    546.294    505.676
 93.370    839.680    792.962     46.718    505.487    750.851    505.487    547.516    505.487
 93.470    846.000    803.166     42.834    505.298    760.605    505.298    547.778    505.298
 93.570    789.000    811.067    -22.067    505.107    769.063    505.107    547.033    505.107
 93.670    863.000    817.110     45.890    504.916    776.607    504.916    545.343    504.916
 93.770    823.000    821.856      1.144    504.723    783.645    504.723    542.860    504.723
 93.870    867.227    825.982     41.246    504.529    790.650    504.529    539.790    504.529
 93.970    822.607    830.253     -7.645    504.334    798.170    504.334    536.348    504.334
 94.070    811.358    835.417    -24.059    504.138    806.756    504.138    532.732    504.138
 94.170    854.000    842.029     11.971    503.941    816.796    503.941    529.109    503.941
 94.270    845.000    850.270     -5.270    503.742    828.338    503.742    525.612    503.742
 94.370    877.000    859.831     17.169    503.543    840.975    503.543    522.338    503.543
 94.470    910.000    869.887     40.113    503.343    853.819    503.343    519.354    503.343
 94.570    846.451    879.160    -32.709    503.142    865.553    503.142    516.696    503.142
 94.670    829.427    886.063    -56.637    502.939    874.576    502.939    514.379    502.939
 94.770    906.000    888.930     17.070    502.736    879.231    502.736    512.396    502.736
 94.870    838.547    886.333    -47.786    502.532    878.110    502.532    510.724    502.532
 94.970    904.000    877.419     26.581    502.326    870.389    502.326    509.334    502.326
 95.070    905.000    862.138     42.862    502.120    856.058    502.120    508.187    502.120
 95.170    835.133    841.271     -6.138    501.913    835.933    501.913    507.245    501.913
 95.270    856.000    816.242     39.758    501.705    811.475    501.705    506.472    501.705
 95.370    811.000    788.858     22.142    501.496    784.526    501.496    505.833    501.496
 95.470    798.000    761.069     36.931    501.286    757.062    501.286    505.300    501.286
 95.570    707.947    734.784    -26.836    501.075    731.019    501.075    504.847    501.075
 95.670    721.000    711.832      9.168    500.863    708.245    500.863    504.456    500.863
 95.770    692.792    693.822     -1.030    500.651    690.363    500.651    504.112    500.651
 95.870    682.393    682.157      0.236    500.437    678.789    500.437    503.802    500.437
 95.970    727.000    678.037     48.963    500.223    674.730    500.223    503.520    500.223
 96.070    641.000    682.459    -41.459    500.007    679.190    500.007    503.259    500.007
 96.170    674.000    696.226    -22.226    499.791    692.977    499.791    503.014    499.791
 96.270    711.000    719.935     -8.935    499.575    716.689    499.575    502.783    499.575
 96.370    806.242    753.939     52.303    499.357    750.683    499.357    502.564    499.357
 96.470    804.000    798.262      5.738    499.139    794.983    499.139    502.356    499.139
 96.570    861.000    852.506      8.494    498.919    849.194    498.919    502.157    498.919
 96.670    925.000    915.746      9.254    498.699    912.392    498.699    501.968    498.699
 96.770    994.000    986.430      7.570    498.479    983.026    498.479    501.788    498.479
 96.870   1047.000   1062.319    -15.319    498.257   1058.856    498.257    501.616    498.257
 96.970   1157.000   1140.464     16.536    498.035   1136.935    498.035    501.454    498.035
 97.070   1189.838   1217.244    -27.406    497.812   1213.645    497.812    501.301    497.812
 97.170   1273.000   1288.493    -15.493    497.589   1284.817    497.589    501.158    497.589
 97.270   1279.932   1349.743    -69.811    497.365   1345.985    497.365    501.024    497.365
 97.370   1366.344   1396.651    -30.307    497.140   1392.804    497.140    500.901    497.140
 97.470   1526.000   1425.609    100.391    496.914   1421.666    496.914    500.790    496.914
 97.570   1447.000   1434.406     12.594    496.688   1430.357    496.688    500.691    496.688
 97.670   1443.000   1422.672     20.328    496.461   1418.503    496.461    500.606    496.461
 97.770   1410.323   1391.903     18.420    496.234   1387.598    496.234    500.536    496.234
 97.870   1331.000   1345.062    -14.062    496.006   1340.600    496.006    500.483    496.006
 97.970   1386.000   1285.988    100.012    495.778   1281.346    495.778    500.450    495.778
 98.070   1216.000   1218.866     -2.866    495.549   1214.015    495.549    500.442    495.549
 98.170   1119.000   1147.836    -28.836    495.319   1142.742    495.319    500.462    495.319
 98.270   1009.908   1076.752    -66.844    495.090   1071.374    495.090    500.518    495.090
 98.370    975.000   1009.030    -34.030    494.859   1003.318    494.859    500.620    494.859
 98.470    947.000    947.575     -0.575    494.628    941.467    494.628    500.781    494.628
 98.570    906.000    894.763     11.237    494.397    888.180    494.397    501.019    494.397
 98.670    888.965    852.464     36.501    494.165    845.302    494.165    501.358    494.165
 98.770    857.551    822.097     35.453    493.933    814.222    493.933    501.829    493.933
 98.870    827.000    804.711     22.289    493.700    795.949    493.700    502.474    493.700
 98.970    798.994    801.058     -2.064    493.467    791.184    493.467    503.343    493.467
 99.070    767.619    811.662    -44.044    493.234    800.388    493.234    504.500    493.234
 99.170    841.000    836.845      4.155    493.000    823.807    493.000    506.022    493.000
 99.270    882.000    876.764      5.236    492.766    861.511    492.766    507.996    492.766
 99.370    885.442    931.315    -45.872    492.531    913.295    492.531    510.522    492.531
 99.470    983.000   1000.065    -17.065    492.297    978.622    492.297    513.706    492.297
 99.570   1035.000   1082.176    -47.176    492.062   1056.545    492.062    517.658    492.062
 99.670   1189.015   1176.286     12.729    491.826   1145.598    491.826    522.482    491.826
 99.770   1285.000   1280.418      4.582    491.591   1243.712    491.591    528.270    491.591
 99.870   1432.000   1391.906     40.094    491.355   1348.155    491.355    535.089    491.355
 99.970   1485.302   1507.377    -22.076    491.120   1455.521    491.120    542.971    491.120
100.070   1690.081   1622.818     67.263    490.884   1561.812    490.884    551.902    490.884
100.170   1739.000   1733.770      5.230    490.647   1662.639    490.647    561.812    490.647
100.270   1921.000   1835.665     85.335    490.411   1753.573    490.411    572.562    490.411
100.370   1835.174   1924.243    -89.068    490.175   1830.560    490.175    583.942    490.175
100.470   2011.000   1995.899     15.101    489.938   1890.287    489.938    595.661    489.938
100.570   2030.529   2047.863    -17.333    489.701   1930.352    489.701    607.347    489.701
100.670   2181.000   2078.172    102.828    489.465   1949.247    489.465    618.546    489.465
100.770   2065.406   2085.633    -20.227    489.228   1946.300    489.228    628.735    489.228
100.870   2006.419   2069.907    -63.488    488.991   1921.742    488.991    637.344    488.991
100.970   1989.300   2031.776    -42.476    488.755   1876.923    488.755    643.805    488.755
101.070   2059.806   1973.402     86.404    488.518   1814.492    488.518    647.628    488.518
101.170   1948.531   1898.350     50.180    488.282   1738.343    488.282    648.487    488.282
101.270   1838.000   1811.283     26.717    488.045   1653.229    488.045    646.291    488.045
101.370   1745.892   1717.402     28.489    487.809   1564.190    487.809    641.202    487.809
101.470   1590.323   1621.843    -31.521    487.572   1475.980    487.572    633.603    487.572
101.570   1488.000   1529.183    -41.183    487.336   1392.657    487.336    624.016    487.336
101.670   1368.356   1443.112    -74.756    487.100   1317.335    487.100    613.015    487.100
101.770   1366.000   1366.267     -0.267    486.864   1252.091    486.864    601.163    486.864
101.870   1258.741   1300.175    -41.434    486.629   1197.948    486.629    588.964    486.629
101.970   1196.628   1245.288    -48.660    486.394   1154.927    486.394    576.850    486.394
102.070   1254.396   1201.072     53.324    486.158   1122.148    486.158    565.169    486.158
102.170   1184.370   1166.149     18.221    485.924   1097.965    485.924    554.187    485.924
102.270   1121.000   1138.476    -17.476    485.689   1080.145    485.689    544.094    485.689
102.370   1059.065   1115.572    -56.507    485.455   1066.092    485.455    535.008    485.455
102.470   1086.000   1094.805     -8.805    485.221   1053.118    485.221    526.981    485.221
102.570   1116.891   1073.704     43.187    484.988   1038.752    484.988    520.013    484.988
102.670    988.000   1050.284    -62.284    484.755   1021.054    484.755    514.060    484.755
102.770    972.507   1023.283    -50.776    484.522    998.835    484.522    509.047    484.522
102.870    941.229    992.239    -51.010    484.290    971.729    484.290    504.878    484.290
102.970    945.000    957.411    -12.411    484.058    940.101    484.058    501.445    484.058
103.070    911.924    919.572     -7.648    483.827    904.834    483.827    498.640    483.827
103.170    867.000    879.795    -12.795    483.596    867.105    483.596    496.358    483.596
103.270    813.000    839.262    -26.262    483.366    828.193    483.366    494.502    483.366
103.370    813.000    799.131     13.869    483.137    789.341    483.137    492.988    483.137
103.470    824.000    760.447     63.553    482.908    751.667    482.908    491.743    482.908
103.570    742.000    724.083     17.917    482.680    716.104    482.680    490.708    482.680
103.670    690.000    690.707     -0.707    482.452    683.369    482.452    489.833    482.452
103.770    660.000    660.766     -0.766    482.225    653.950    482.225    489.077    482.225
103.870    664.000    634.496     29.504    481.999    628.107    481.999    488.419    481.999
103.970    653.000    611.933     41.067    481.773    605.898    481.773    487.833    481.773
104.070    593.000    592.949      0.051    481.549    587.214    481.549    487.303    481.549
104.170    610.000    577.283     32.717    481.325    571.806    481.325    486.817    481.325
104.270    560.000    564.614     -4.614    481.102    559.362    481.102    486.365    481.102
104.370    571.000    554.561     16.439    480.879    549.507    480.879    485.942    480.879
104.470    572.409    546.739     25.671    480.658    541.860    480.658    485.542    480.658
104.570    573.000    540.778     32.222    480.437    536.058    480.437    485.161    480.437
104.670    597.000    536.343     60.657    480.218    531.773    480.218    484.789    480.218
104.770    579.000    533.170     45.830    479.999    528.728    479.999    484.441    479.999
104.870    552.900    531.026     21.874    479.782    526.699    479.782    484.108    479.782
104.970    525.000    529.740     -4.740    479.565    525.515    479.565    483.787    479.565
105.070    539.000    529.194      9.806    479.349    525.061    479.349    483.478    479.349
105.170    558.069    529.324     28.745    479.135    525.273    479.135    483.180    479.135
105.270    541.000    530.107     10.893    478.922    526.129    478.922    482.892    478.922
105.370    523.000    531.562     -8.562    478.709    527.649    478.709    482.614    478.709
105.470    541.382    533.743      7.639    478.498    529.887    478.498    482.344    478.498
105.570    541.289    536.731      4.558    478.288    532.924    478.288    482.082    478.288
105.670    566.000    540.624     25.376    478.080    536.859    478.080    481.829    478.080
105.770    559.000    545.526     13.474    477.872    541.797    477.872    481.583    477.872
105.870    584.000    551.532     32.468    477.666    547.834    477.666    481.345    477.666
105.970    565.000    558.715      6.285    477.461    555.039    477.461    481.113    477.461
106.070    548.950    567.105    -18.155    477.258    563.447    477.258    480.889    477.258
106.170    564.000    576.683    -12.683    477.056    573.039    477.056    480.671    477.056
106.270    590.000    587.370      2.630    476.855    583.732    476.855    480.459    476.855
106.370    558.000    599.016    -41.016    476.656    595.381    476.656    480.254    476.656
106.470    625.000    611.401     13.599    476.458    607.764    476.458    480.055    476.458
106.570    644.000    624.239     19.761    476.262    620.596    476.262    479.862    476.262
106.670    660.428    637.181     23.247    476.067    633.527    476.067    479.676    476.067
106.770    653.129    649.827      3.302    475.874    646.159    475.874    479.495    475.874
106.870    679.000    661.748     17.252    475.682    658.062    475.682    479.320    475.682
106.970    699.726    672.507     27.219    475.492    668.801    475.492    479.151    475.492
107.070    659.000    681.706    -22.706    475.304    677.975    475.304    478.988    475.304
107.170    642.000    689.027    -47.027    475.118    685.268    475.118    478.832    475.118
107.270    744.896    694.292     50.604    474.933    690.501    474.933    478.681    474.933
107.370    748.199    697.499     50.700    474.750    693.673    474.750    478.537    474.750
107.470    691.008    698.832     -7.824    474.569    694.967    474.569    478.399    474.569
107.570    651.000    698.633    -47.633    474.389    694.724    474.389    478.267    474.389
107.670    673.000    697.344    -24.344    474.212    693.387    474.212    478.142    474.212
107.770    663.000    695.439    -32.439    474.036    691.430    474.036    478.023    474.036
107.870    700.355    693.366      6.989    473.862    689.299    473.862    477.911    473.862
107.970    656.000    691.497    -35.497    473.690    687.368    473.690    477.806    473.690
108.070    668.000    690.102    -22.102    473.521    685.905    473.521    477.709    473.521
108.170    691.000    689.326      1.674    473.353    685.055    473.353    477.618    473.353
108.270    720.000    689.184     30.816    473.187    684.834    473.187    477.536    473.187
108.370    697.000    689.560      7.440    473.024    685.125    473.024    477.461    473.024
108.470    652.000    690.217    -38.217    472.863    685.690    472.863    477.395    472.863
108.570    737.377    690.817     46.559    472.704    686.192    472.704    477.337    472.704
108.670    647.000    690.954    -43.954    472.547    686.224    472.547    477.288    472.547
108.770    727.000    690.198     36.802    472.392    685.356    472.392    477.249    472.392
108.870    677.000    688.154    -11.154    472.240    683.192    472.240    477.219    472.240
108.970    691.000    684.521      6.479    472.090    679.431    472.090    477.199    472.090
109.070    710.000    679.139     30.861    471.942    673.911    471.942    477.190    471.942
109.170    669.189    672.007     -2.818    471.797    666.632    471.797    477.192    471.797
109.270    697.000    663.275     33.725    471.654    657.744    471.654    477.207    471.654
109.370    665.000    653.209     11.791    471.513    647.511    471.513    477.233    471.513
109.470    597.000    642.147    -45.147    471.376    636.271    471.376    477.273    471.376
109.570    614.421    630.456    -16.035    471.240    624.390    471.240    477.327    471.240
109.670    622.000    618.501      3.499    471.108    612.232    471.108    477.395    471.108
109.770    594.000    606.604    -12.604    470.978    600.119    470.978    477.480    470.978
109.870    587.000    595.100     -8.100    470.850    588.383    470.850    477.582    470.850
109.970    586.000    584.265      1.735    470.726    577.302    470.726    477.702    470.726
110.070    597.000    574.287     22.713    470.604    567.059    470.604    477.843    470.604
110.170    571.000    565.312      5.688    470.485    557.801    470.485    478.005    470.485
110.270    570.773    557.437     13.336    470.369    549.621    470.369    478.192    470.369
110.370    526.890    550.706    -23.816    470.255    542.560    470.255    478.406    470.255
110.470    500.223    545.117    -44.895    470.145    536.615    470.145    478.650    470.145
110.570    495.212    540.635    -45.423    470.037    531.744    470.037    478.930    470.037
110.670    554.998    537.194     17.804    469.933    527.877    469.933    479.250    469.933
110.770    498.831    534.712    -35.881    469.831    524.924    469.831    479.618    469.831
110.870    520.068    533.097    -13.029    469.733    522.783    469.733    480.044    469.733
110.970    532.000    532.254     -0.254    469.638    521.349    469.638    480.538    469.638
111.070    522.000    532.094    -10.094    469.546    520.517    469.546    481.117    469.546
111.170    521.839    532.537    -10.697    469.457    520.189    469.457    481.799    469.457
111.270    560.000    533.516     26.484    469.371    520.273    469.371    482.607    469.371
111.370    500.157    534.982    -34.824    469.289    520.690    469.289    483.573    469.289
111.470    591.000    536.901     54.099    469.210    521.370    469.210    484.732    469.210
111.570    516.000    539.261    -23.261    469.134    522.257    469.134    486.129    469.134
111.670    499.000    542.068    -43.068    469.062    523.303    469.062    487.817    469.062
111.770    572.817    545.350     27.467    468.993    524.472    468.993    489.860    468.993
111.870    555.000    549.155      5.845    468.928    525.740    468.928    492.332    468.928
111.970    583.327    553.555     29.773    468.866    527.092    468.866    495.317    468.866
112.070    581.076    558.640     22.436    468.808    528.526    468.808    498.910    468.808
112.170    574.000    564.521      9.479    468.753    530.048    468.753    503.214    468.753
112.270    600.000    571.326     28.674    468.702    531.674    468.702    508.341    468.702
112.370    553.072    579.193    -26.120    468.655    533.426    468.655    514.409    468.655
112.470    598.000    588.272      9.728    468.612    535.336    468.612    521.534    468.612
112.570    602.381    598.715      3.666    468.572    537.442    468.572    529.831    468.572
112.670    632.000    610.678     21.322    468.537    539.794    468.537    539.404    468.537
112.770    597.000    624.309    -27.309    468.505    542.452    468.505    550.344    468.505
112.870    647.000    639.753      7.247    468.477    545.494    468.477    562.718    468.477
112.970    680.000    657.147     22.853    468.453    549.020    468.453    576.560    468.453
113.070    681.000    676.621      4.379    468.433    553.161    468.433    591.871    468.433
113.170    650.000    698.301    -48.301    468.418    558.090    468.418    608.605    468.418
113.270    728.000    722.319      5.681    468.406    564.035    468.406    626.663    468.406
113.370    762.928    748.819     14.109    468.399    571.296    468.399    645.892    468.399
113.470    782.000    777.976      4.024    468.395    580.263    468.395    666.076    468.395
113.570    834.000    810.018     23.982    468.397    591.442    468.397    686.935    468.397
113.670    841.601    845.244     -3.643    468.402    605.481    468.402    708.121    468.402
113.770    938.454    884.057     54.397    468.412    623.197    468.412    729.222    468.412
113.870    930.000    926.991      3.009    468.426    645.602    468.426    749.756    468.426
113.970    989.000    974.746     14.254    468.445    673.936    468.445    769.186    468.445
114.070   1048.000   1028.222     19.778    468.468    709.685    468.468    786.924    468.468
114.170   1153.753   1088.559     65.194    468.495    754.598    468.495    802.360    468.495
114.270   1124.000   1157.172    -33.172    468.528    810.690    468.528    814.896    468.528
114.370   1297.951   1235.789     62.162    468.565    880.227    468.565    823.991    468.565
114.470   1302.740   1326.470    -23.731    468.607    965.695    468.607    829.221    468.607
114.570   1505.760   1431.603     74.157    468.653   1069.737    468.653    830.328    468.653
114.670   1628.000   1553.847     74.153    468.704   1195.067    468.704    827.258    468.704
114.770   1674.220   1696.029    -21.810    468.760   1344.356    468.760    820.167    468.760
114.870   1898.015   1860.970     37.046    468.821   1520.078    468.821    809.402    468.821
114.970   2092.000   2051.269     40.731    468.887   1724.344    468.887    795.451    468.887
115.070   2374.000   2269.057    104.943    468.959   1958.710    468.959    778.891    468.959
115.170   2463.000   2515.740    -52.740    469.035   2223.972    469.035    760.331    469.035
115.270   2777.000   2791.759    -14.759    469.116   2519.971    469.116    740.375    469.116
115.370   3122.479   3096.381     26.098    469.202   2845.410    469.202    719.588    469.202
115.470   3390.877   3427.528    -36.650    469.294   3197.699    469.294    698.481    469.294
115.570   3653.000   3781.659   -128.659    469.391   3572.856    469.391    677.502    469.391
115.670   4200.604   4153.719     46.885    469.493   3965.445    469.493    657.032    469.493
115.770   4380.000   4537.149   -157.149    469.600   4368.596    469.600    637.385    469.600
115.870   4670.000   4923.964   -253.964    469.713   4774.079    469.713    618.809    469.713
115.970   5427.402   5304.912    122.489    469.832   5172.457    469.832    601.489    469.832
116.070   5760.625   5669.703     90.923    469.956   5553.319    469.956    585.551    469.956
116.170   5856.731   6007.333   -150.602    470.085   5905.590    470.085    571.065    470.085
116.270   6160.470   6306.521   -146.051    470.221   6217.968    470.221    558.055    470.221
116.370   6693.000   6556.274    136.726    470.362   6479.477    470.362    546.503    470.362
116.470   6892.732   6746.595    146.138    470.508   6680.171    470.508    536.356    470.508
116.570   6808.000   6869.287    -61.287    470.661   6811.931    470.661    527.536    470.661
116.670   6899.000   6918.742    -19.742    470.819   6869.241    470.819    519.944    470.819
116.770   6862.106   6892.570    -30.464    470.983   6849.819    470.983    513.471    470.983
116.870   6759.505   6791.900    -32.396    471.154   6754.904    471.154    508.000    471.154
116.970   6649.000   6621.137     27.863    471.330   6589.013    471.330    503.413    471.330
117.070   6390.000   6387.502      2.498    471.512   6359.478    471.512    499.595    471.512
117.170   5952.361   6100.266   -147.905    471.701   6075.675    471.701    496.439    471.701
117.270   5759.904   5769.941    -10.037    471.895   5748.211    471.895    493.846    471.895
117.370   5460.060   5407.546     52.514    472.096   5388.196    472.096    491.725    472.096
117.470   4954.083   5024.012    -69.929    472.303   5006.639    472.303    489.998    472.303
117.570   4800.000   4629.719    170.281    472.517   4613.989    472.517    488.596    472.517
117.670   4291.000   4234.158     56.842    472.737   4219.796    472.737    487.460    472.737
117.770   4002.000   3845.678    156.322    472.963   3832.460    472.963    486.543    472.963
117.870   3648.000   3471.324    176.676    473.196   3459.070    473.196    485.803    473.196
117.970   3294.000   3116.754    177.246    473.436   3105.316    473.436    485.208    473.436
118.070   2942.000   2786.217    155.783    473.682   2775.477    473.682    484.731    473.682
118.170   2551.000   2482.607     68.393    473.935   2472.470    473.935    484.350    473.935
118.270   2222.684   2207.567     15.117    474.195   2197.959    474.195    484.049    474.195
118.370   1966.946   1961.635      5.311    474.462   1952.494    474.462    483.815    474.462
118.470   1755.000   1744.409     10.591    474.735   1735.686    474.735    483.637    474.735
118.570   1548.125   1554.729     -6.604    475.016   1546.386    475.016    483.508    475.016
118.670   1399.000   1390.867      8.133    475.303   1382.870    475.303    483.420    475.303
118.770   1218.186   1250.694    -32.508    475.598   1243.016    475.598    483.370    475.598
118.870   1147.372   1131.849     15.523    475.899   1124.468    475.899    483.353    475.899
118.970   1079.000   1031.881     47.119    476.208   1024.776    476.208    483.367    476.208
119.070    951.000    948.360      2.640    476.524    941.515    476.524    483.409    476.524
119.170    821.000    878.974    -57.974    476.848    872.371    476.848    483.477    476.848
119.270    801.000    821.585    -20.585    477.178    815.211    477.178    483.571    477.178
119.370    774.000    774.272     -0.272    477.516    768.112    477.516    483.688    477.516
119.470    680.000    735.349    -55.349    477.862    729.389    477.862    483.828    477.862
119.570    710.000    703.361      6.639    478.215    697.589    478.215    483.991    478.215
119.670    708.499    677.081     31.418    478.576    671.483    478.576    484.176    478.576
119.770    644.000    655.485    -11.485    478.945    650.047    478.945    484.382    478.945
119.870    645.013    637.732      7.281    479.321    632.442    479.321    484.611    479.321
119.970    608.000    623.141    -15.141    479.705    617.984    479.705    484.861    479.705
120.070    649.461    611.162     38.299    480.097    606.124    480.097    485.134    480.097
120.170    615.000    601.357     13.643    480.497    596.425    480.497    485.430    480.497
120.270    601.000    593.383      7.617    480.905    588.540    480.905    485.749    480.905
120.370    606.000    586.965     19.035    481.321    582.196    481.321    486.092    481.321
120.470    614.818    581.892     32.926    481.746    577.179    481.746    486.460    481.746
120.570    548.000    577.996    -29.996    482.178    573.322    482.178    486.854    482.178
120.670    606.000    575.151     30.849    482.619    570.497    482.619    487.275    482.619
120.770    615.543    573.254     42.289    483.068    568.600    483.068    487.724    483.068
120.870    550.000    572.227    -22.227    483.525    567.553    483.525    488.203    483.525
120.970    592.000    572.007     19.993    483.991    567.291    483.991    488.711    483.991
121.070    549.000    572.542    -23.542    484.465    567.762    484.465    489.251    484.465
121.170    578.000    573.784      4.216    484.948    568.917    484.948    489.822    484.948
121.270    613.000    575.691     37.309    485.440    570.713    485.440    490.426    485.440
121.370    612.000    578.218     33.782    485.940    573.105    485.940    491.062    485.940
121.470    591.000    581.315      9.685    486.449    576.045    486.449    491.731    486.449
121.570    597.000    584.928     12.072    486.967    579.480    486.967    492.430    486.967
121.670    605.000    588.998     16.002    487.494    583.347    487.494    493.160    487.494
121.770    532.000    593.454    -61.454    488.030    587.580    488.030    493.922    488.030
121.870    554.691    598.215    -43.524    488.575    592.100    488.575    494.710    488.575
121.970    623.000    603.191     19.809    489.129    596.820    489.129    495.523    489.129
122.070    596.665    608.285    -11.620    489.692    601.645    489.692    496.358    489.692
122.170    621.000    613.390      7.610    490.265    606.472    490.265    497.211    490.265
122.270    570.000    618.391    -48.391    490.847    611.192    490.847    498.077    490.847
122.370    619.422    623.173     -3.751    491.438    615.694    491.438    498.951    491.438
122.470    626.000    627.616     -1.616    492.039    619.863    492.039    499.828    492.039
122.570    590.625    631.606    -40.981    492.650    623.593    492.650    500.702    492.650
122.670    550.000    635.039    -85.039    493.270    626.784    493.270    501.565    493.270
122.770    650.965    637.823     13.142    493.899    629.354    493.899    502.410    493.899
122.870    678.000    639.891     38.109    494.539    631.241    494.539    503.232    494.539
122.970    661.000    641.198     19.802    495.188    632.407    495.188    504.023    495.188
123.070    661.000    641.730     19.270    495.847    632.844    495.847    504.777    495.847
123.170    656.780    641.499     15.282    496.517    632.569    496.517    505.491    496.517
123.270    606.674    640.543    -33.869    497.196    631.623    497.196    506.159    497.196
123.370    694.000    638.921     55.079    497.885    630.066    497.885    506.783    497.885
123.470    654.103    636.706     17.396    498.585    627.970    498.585    507.362    498.585
123.570    647.000    633.983     13.017    499.295    625.418    499.295    507.899    499.295
123.670    610.000    630.842    -20.842    500.015    622.495    500.015    508.399    500.015
123.770    654.000    627.372     26.628    500.746    619.285    500.746    508.867    500.746
123.870    636.000    623.662     12.338    501.487    615.870    501.487    509.310    501.487
123.970    653.300    619.795     33.505    502.239    612.326    502.239    509.736    502.239
124.070    626.000    615.846     10.154    503.001    608.723    503.001    510.150    503.001
124.170    618.148    611.880      6.268    503.774    605.117    503.774    510.560    503.774
124.270    642.352    607.953     34.399    504.558    601.559    504.558    510.971    504.558
124.370    589.000    604.106    -15.106    505.353    598.085    505.353    511.391    505.353
124.470    611.000    600.371     10.629    506.159    594.721    506.159    511.823    506.159
124.570    555.633    596.769    -41.136    506.975    591.484    506.975    512.272    506.975
124.670    606.000    593.311     12.689    507.803    588.382    507.803    512.743    507.803
124.770    606.801    590.002     16.799    508.642    585.414    508.642    513.238    508.642
124.870    597.000    586.838     10.162    509.492    582.577    509.492    513.760    509.492
124.970    588.000    583.812      4.188    510.354    579.859    510.354    514.311    510.354
