neutron_powder_diffraction_0206
R_wp: 3.889
Temperature (K): 1074.000
Counts: 83444.00
Wavelength (Ã…): 2.52098
COMMENTS
Test file for demonstrating the .xyy file format in Reel1.0
END OF HEADER
   tth       Y_obs     Y_calc      Y_res    Background    Phase_1_Nuc    Phase_1_Mag    Phase_2_Nuc    Phase_2_Mag
  9.970    601.000    565.213     35.787    564.604    565.158    564.604    564.658    564.604
 10.070    613.000    565.459     47.541    564.784    565.404    564.784    564.839    564.784
 10.170    606.749    565.692     41.058    564.958    565.637    564.958    565.012    564.958
 10.270    633.000    565.923     67.077    565.124    565.868    565.124    565.179    565.124
 10.370    587.000    566.158     20.842    565.284    566.103    565.284    565.339    565.284
 10.470    594.000    566.400     27.600    565.437    566.344    565.437    565.492    565.437
 10.570    602.000    566.651     35.349    565.583    566.594    565.583    565.639    565.583
 10.670    577.000    566.917     10.083    565.723    566.858    565.723    565.782    565.723
 10.770    607.000    567.201     39.799    565.855    567.141    565.855    565.915    565.855
 10.870    588.327    567.512     20.815    565.982    567.450    565.982    566.043    565.982
 10.970    581.000    567.860     13.140    566.102    567.798    566.102    566.163    566.102
 11.070    529.000    568.261    -39.261    566.215    568.198    566.215    566.277    566.215
 11.170    567.678    568.738     -1.060    566.322    568.674    566.322    566.385    566.322
 11.270    541.000    569.323    -28.323    566.423    569.259    566.423    566.486    566.423
 11.370    608.000    570.077     37.923    566.518    570.012    566.518    566.581    566.518
 11.470    542.820    571.122    -28.302    566.606    571.056    566.606    566.670    566.606
 11.570    601.000    572.816     28.184    566.688    572.749    566.688    566.752    566.688
 11.670    581.000    576.251      4.749    566.765    576.182    566.765    566.829    566.765
 11.770    614.000    584.194     29.806    566.835    584.120    566.835    566.899    566.835
 11.870    605.000    601.499      3.501    566.899    601.415    566.899    566.964    566.899
 11.970    668.710    632.403     36.307    566.958    632.302    566.958    567.023    566.958
 12.070    668.000    673.276     -5.276    567.010    673.151    567.010    567.075    567.010
 12.170    709.000    705.886      3.114    567.057    705.744    567.057    567.123    567.057
 12.270    644.000    706.997    -62.997    567.098    706.853    567.098    567.164    567.098
 12.370    632.371    675.624    -43.253    567.133    675.497    567.133    567.200    567.133
 12.470    633.000    634.606     -1.606    567.163    634.502    567.163    567.230    567.163
 12.570    560.702    603.022    -42.320    567.187    602.935    567.187    567.254    567.187
 12.670    555.000    585.162    -30.162    567.206    585.085    567.206    567.273    567.206
 12.770    580.000    576.966      3.034    567.219    576.894    567.219    567.287    567.219
 12.870    607.573    573.483     34.090    567.227    573.412    567.227    567.295    567.227
 12.970    535.675    571.828    -36.153    567.230    571.757    567.230    567.298    567.230
 13.070    586.898    570.850     16.048    567.227    570.780    567.227    567.296    567.227
 13.170    562.851    570.175     -7.325    567.219    570.105    567.219    567.288    567.219
 13.270    560.075    569.672     -9.597    567.206    569.602    567.206    567.275    567.206
 13.370    566.207    569.283     -3.076    567.188    569.212    567.188    567.258    567.188
 13.470    522.000    568.972    -46.972    567.165    568.901    567.165    567.235    567.165
 13.570    556.872    568.717    -11.845    567.136    568.644    567.136    567.208    567.136
 13.670    543.000    568.501    -25.501    567.103    568.428    567.103    567.176    567.103
 13.770    608.881    568.314     40.567    567.065    568.240    567.065    567.138    567.065
 13.870    530.000    568.148    -38.148    567.022    568.074    567.022    567.095    567.022
 13.970    539.000    567.997    -28.997    566.974    567.923    566.974    567.048    566.974
 14.070    607.465    567.858     39.607    566.922    567.784    566.922    566.996    566.922
 14.170    557.000    567.728    -10.728    566.865    567.653    566.865    566.939    566.865
 14.270    540.000    567.603    -27.603    566.803    567.528    566.803    566.877    566.803
 14.370    527.000    567.483    -40.483    566.736    567.408    566.736    566.811    566.736
 14.470    538.000    567.365    -29.365    566.665    567.290    566.665    566.741    566.665
 14.570    587.000    567.249     19.751    566.590    567.173    566.590    566.666    566.590
 14.670    574.750    567.134      7.616    566.510    567.057    566.510    566.586    566.510
 14.770    602.354    567.018     35.336    566.426    566.941    566.426    566.502    566.426
 14.870    584.000    566.903     17.097    566.337    566.825    566.337    566.414    566.337
 14.970    526.000    566.788    -40.788    566.244    566.711    566.244    566.322    566.244
 15.070    556.000    566.671    -10.671    566.147    566.593    566.147    566.225    566.147
 15.170    603.790    566.551     37.239    566.046    566.472    566.046    566.124    566.046
 15.270    595.000    566.428     28.572    565.940    566.349    565.940    566.019    565.940
 15.370    574.441    566.303      8.137    565.831    566.224    565.831    565.910    565.831
 15.470    547.000    566.176    -19.176    565.717    566.096    565.717    565.797    565.717
 15.570    567.441    566.047      1.395    565.599    565.966    565.599    565.680    565.599
 15.670    523.308    565.914    -42.606    565.478    565.833    565.478    565.559    565.478
 15.770    579.000    565.780     13.220    565.352    565.699    565.352    565.434    565.352
 15.870    535.553    565.644    -30.091    565.223    565.562    565.223    565.305    565.223
 15.970    578.578    565.503     13.075    565.090    565.421    565.090    565.172    565.090
 16.070    629.000    565.360     63.640    564.953    565.277    564.953    565.036    564.953
 16.170    553.702    565.213    -11.510    564.813    565.130    564.813    564.896    564.813
 16.270    586.756    565.064     21.692    564.668    564.980    564.668    564.752    564.668
 16.370    599.000    564.916     34.084    564.520    564.827    564.520    564.609    564.520
 16.470    562.871    564.762     -1.891    564.369    564.670    564.369    564.460    564.369
 16.570    566.000    564.604      1.396    564.214    564.511    564.214    564.306    564.214
 16.670    578.000    564.442     13.558    564.056    564.349    564.056    564.148    564.056
 16.770    609.000    564.278     44.722    563.894    564.184    563.894    563.987    563.894
 16.870    534.078    564.110    -30.032    563.729    564.016    563.729    563.822    563.729
 16.970    540.000    563.940    -23.940    563.560    563.846    563.560    563.654    563.560
 17.070    570.000    563.767      6.233    563.388    563.672    563.388    563.483    563.388
 17.170    574.000    563.591     10.409    563.213    563.495    563.213    563.309    563.213
 17.270    531.070    563.412    -32.342    563.035    563.315    563.035    563.131    563.035
 17.370    525.756    563.230    -37.474    562.853    563.133    562.853    562.950    562.853
 17.470    539.000    563.045    -24.045    562.668    562.948    562.668    562.766    562.668
 17.570    520.000    562.858    -42.858    562.481    562.760    562.481    562.579    562.481
 17.670    558.911    562.670     -3.760    562.290    562.572    562.290    562.389    562.290
 17.770    546.384    562.478    -16.094    562.096    562.379    562.096    562.196    562.096
 17.870    552.000    562.283    -10.283    561.899    562.183    561.899    562.000    561.899
 17.970    578.000    562.085     15.915    561.700    561.984    561.700    561.801    561.700
 18.070    538.000    561.884    -23.884    561.497    561.783    561.497    561.599    561.497
 18.170    557.680    561.681     -4.001    561.292    561.579    561.292    561.394    561.292
 18.270    528.000    561.475    -33.475    561.084    561.372    561.084    561.187    561.084
 18.370    575.000    561.267     13.733    560.873    561.163    560.873    560.977    560.873
 18.470    555.637    561.057     -5.419    560.660    560.952    560.660    560.764    560.660
 18.570    552.000    560.843     -8.843    560.444    560.738    560.444    560.549    560.444
 18.670    572.031    560.628     11.403    560.225    560.522    560.225    560.331    560.225
 18.770    523.508    560.410    -36.902    560.003    560.304    560.003    560.110    560.003
 18.870    574.000    560.190     13.810    559.779    560.083    559.779    559.887    559.779
 18.970    604.000    559.969     44.031    559.553    559.860    559.553    559.662    559.553
 19.070    527.626    559.745    -32.119    559.324    559.635    559.324    559.434    559.324
 19.170    565.538    559.518      6.020    559.093    559.408    559.093    559.203    559.093
 19.270    594.000    559.290     34.710    558.859    559.179    558.859    558.970    558.859
 19.370    540.000    559.059    -19.059    558.623    558.947    558.623    558.735    558.623
 19.470    568.000    558.827      9.173    558.385    558.714    558.385    558.498    558.385
 19.570    559.000    558.592      0.408    558.145    558.479    558.145    558.258    558.145
 19.670    585.778    558.357     27.421    557.902    558.242    557.902    558.017    557.902
 19.770    597.689    558.120     39.569    557.657    558.004    557.657    557.773    557.657
 19.870    564.000    557.880      6.120    557.410    557.763    557.410    557.527    557.410
 19.970    550.000    557.638     -7.638    557.161    557.520    557.161    557.279    557.161
 20.070    519.000    557.395    -38.395    556.910    557.276    556.910    557.028    556.910
 20.170    583.606    557.151     26.455    556.656    557.031    556.656    556.776    556.656
 20.270    600.818    556.918     43.900    556.401    556.797    556.401    556.522    556.401
 20.370    534.035    556.680    -22.645    556.144    556.558    556.144    556.266    556.144
 20.470    544.000    556.431    -12.431    555.885    556.308    555.885    556.008    555.885
 20.570    568.000    556.181     11.819    555.624    556.057    555.624    555.748    555.624
 20.670    514.000    555.929    -41.929    555.361    555.804    555.361    555.487    555.361
 20.770    548.000    555.677     -7.677    555.096    555.549    555.096    555.223    555.096
 20.870    552.000    555.425     -3.425    554.830    555.294    554.830    554.960    554.830
 20.970    574.000    555.171     18.829    554.562    555.038    554.562    554.694    554.562
 21.070    537.551    554.915    -17.364    554.292    554.781    554.292    554.426    554.292
 21.170    569.000    554.658     14.342    554.020    554.523    554.020    554.156    554.020
 21.270    593.513    554.401     39.112    553.747    554.264    553.747    553.884    553.747
 21.370    533.000    554.143    -21.143    553.472    554.005    553.472    553.611    553.472
 21.470    555.042    553.885      1.157    553.196    553.745    553.196    553.336    553.196
 21.570    588.924    553.635     35.290    552.918    553.493    552.918    553.060    552.918
 21.670    514.836    553.464    -38.628    552.639    553.320    552.639    552.782    552.639
 21.770    549.000    553.249     -4.249    552.358    553.105    552.358    552.503    552.358
 21.870    530.171    553.022    -22.850    552.076    552.875    552.076    552.222    552.076
 21.970    566.000    552.767     13.233    551.792    552.619    551.792    551.941    551.792
 22.070    535.000    552.511    -17.511    551.507    552.361    551.507    551.657    551.507
 22.170    547.414    552.256     -4.842    551.221    552.104    551.221    551.373    551.221
 22.270    524.000    552.002    -28.002    550.933    551.848    550.933    551.087    550.933
 22.370    566.740    551.751     14.989    550.645    551.595    550.645    550.801    550.645
 22.470    561.000    551.502      9.498    550.355    551.344    550.355    550.513    550.355
 22.570    562.556    551.256     11.300    550.063    551.096    550.063    550.224    550.063
 22.670    572.000    551.020     20.980    549.771    550.858    549.771    549.933    549.771
 22.770    546.000    550.831     -4.831    549.477    550.667    549.477    549.642    549.477
 22.870    545.000    550.619     -5.619    549.183    550.452    549.183    549.350    549.183
 22.970    553.000    550.397      2.603    548.887    550.228    548.887    549.057    548.887
 23.070    544.513    550.184     -5.670    548.590    550.012    548.590    548.763    548.590
 23.170    557.427    549.982      7.445    548.293    549.807    548.293    548.468    548.293
 23.270    570.000    549.795     20.205    547.994    549.618    547.994    548.172    547.994
 23.370    517.906    549.629    -31.723    547.694    549.449    547.694    547.875    547.694
 23.470    613.000    549.490     63.510    547.394    549.307    547.394    547.577    547.394
 23.570    578.000    549.382     28.618    547.093    549.196    547.093    547.279    547.093
 23.670    579.507    549.319     30.188    546.790    549.130    546.790    546.980    546.790
 23.770    523.910    549.318    -25.408    546.487    549.126    546.487    546.681    546.487
 23.870    564.000    549.408     14.592    546.183    549.212    546.183    546.380    546.183
 23.970    565.114    549.635     15.479    545.879    549.436    545.879    546.079    545.879
 24.070    544.000    550.115     -6.115    545.573    549.913    545.573    545.778    545.573
 24.170    511.884    551.188    -39.304    545.267    550.982    545.267    545.476    545.267
 24.270    539.434    553.813    -14.379    544.961    553.605    544.961    545.174    544.961
 24.370    577.000    560.122     16.878    544.653    559.914    544.653    544.871    544.653
 24.470    543.598    573.237    -29.639    544.345    573.034    544.345    544.568    544.345
 24.570    593.000    594.890     -1.890    544.037    594.698    544.037    544.264    544.037
 24.670    636.604    620.863     15.741    543.727    620.684    543.727    543.960    543.727
 24.770    630.000    638.167     -8.167    543.418    637.996    543.418    543.656    543.418
 24.870    667.797    633.928     33.869    543.108    633.748    543.108    543.352    543.108
 24.970    582.417    611.645    -29.228    542.797    611.443    542.797    543.048    542.797
 25.070    630.000    585.795     44.205    542.486    585.567    542.486    542.743    542.486
 25.170    564.000    566.414     -2.414    542.174    566.166    542.174    542.439    542.174
 25.270    568.411    555.314     13.096    541.862    555.050    541.862    542.134    541.862
 25.370    513.000    549.944    -36.944    541.550    549.669    541.550    541.830    541.550
 25.470    527.000    547.438    -20.438    541.237    547.152    541.237    541.526    541.237
 25.570    517.000    546.104    -29.104    540.925    545.808    540.925    541.222    540.925
 25.670    557.000    545.234     11.766    540.611    544.928    540.611    540.919    540.611
 25.770    559.000    544.581     14.419    540.298    544.264    540.298    540.616    540.298
 25.870    567.000    544.057     22.943    539.984    543.728    539.984    540.314    539.984
 25.970    573.000    543.625     29.375    539.670    543.284    539.670    540.012    539.670
 26.070    585.000    543.263     41.737    539.356    542.909    539.356    539.711    539.356
 26.170    544.000    542.961      1.039    539.042    542.592    539.042    539.411    539.042
 26.270    534.647    542.711     -8.064    538.727    542.326    538.727    539.112    538.727
 26.370    528.000    542.510    -14.510    538.413    542.109    538.413    538.814    538.413
 26.470    544.000    542.358      1.642    538.098    541.939    538.098    538.518    538.098
 26.570    563.000    542.262     20.738    537.784    541.822    537.784    538.223    537.784
 26.670    515.217    542.249    -27.031    537.469    541.787    537.469    537.931    537.469
 26.770    567.000    542.300     24.700    537.154    541.813    537.154    537.640    537.154
 26.870    592.000    542.411     49.589    536.839    541.897    536.839    537.352    536.839
 26.970    576.016    542.621     33.396    536.525    542.078    536.525    537.067    536.525
 27.070    541.877    542.966     -1.089    536.210    542.390    536.210    536.785    536.210
 27.170    600.000    543.488     56.512    535.896    542.875    535.896    536.507    535.896
 27.270    509.126    544.229    -35.103    535.581    543.575    535.581    536.234    535.581
 27.370    541.266    545.295     -4.028    535.267    544.594    535.267    535.966    535.267
 27.470    508.437    546.847    -38.409    534.953    546.093    534.953    535.704    534.953
 27.570    569.000    549.338     19.662    534.639    548.524    534.639    535.450    534.639
 27.670    518.122    554.259    -36.137    534.325    553.375    534.325    535.205    534.325
 27.770    547.000    566.365    -19.365    534.011    565.398    534.011    534.970    534.011
 27.870    627.000    597.203     29.797    533.698    596.134    533.698    534.748    533.698
 27.970    684.000    663.834     20.166    533.385    662.637    533.385    534.542    533.385
 28.070    775.946    772.874      3.072    533.072    771.519    533.072    534.355    533.072
 28.170    860.445    893.656    -33.210    532.760    892.124    532.760    534.193    532.760
 28.270    928.784    953.251    -24.467    532.447    951.541    532.447    534.061    532.447
 28.370    849.464    903.312    -53.848    532.136    901.416    532.136    533.969    532.136
 28.470    782.000    795.531    -13.531    531.824    793.397    531.824    533.931    531.824
 28.570    723.000    711.841     11.159    531.513    709.373    531.513    533.967    531.513
 28.670    739.000    694.814     44.186    531.202    691.885    531.202    534.116    531.202
 28.770    770.222    740.437     29.785    530.892    736.871    530.892    534.438    530.892
 28.870    853.825    809.411     44.414    530.582    804.943    530.582    535.037    530.582
 28.970    827.000    842.047    -15.047    530.273    836.251    530.273    536.070    530.273
 29.070    767.000    802.734    -35.734    529.964    794.962    529.964    537.747    529.964
 29.170    727.000    722.478      4.522    529.656    711.845    529.656    540.300    529.656
 29.270    630.000    648.989    -18.989    529.348    634.434    529.348    543.910    529.348
 29.370    620.000    603.681     16.319    529.041    584.158    529.041    548.565    529.041
 29.470    616.000    583.781     32.219    528.734    558.708    528.734    553.805    528.734
 29.570    606.000    577.494     28.506    528.428    547.560    528.428    558.359    528.428
 29.670    620.467    574.710     45.757    528.123    542.554    528.123    560.275    528.123
 29.770    602.149    570.390     31.759    527.818    539.835    527.818    558.369    527.818
 29.870    550.000    564.080    -14.080    527.514    538.050    527.514    553.540    527.514
 29.970    538.000    557.293    -19.293    527.210    536.784    527.210    547.716    527.210
 30.070    571.000    551.300     19.700    526.907    535.898    526.907    542.307    526.907
 30.170    584.433    546.655     37.777    526.605    535.362    526.605    537.896    526.605
 30.270    536.589    543.534     -6.945    526.304    535.281    526.304    534.554    526.304
 30.370    562.000    542.206     19.794    526.003    536.078    526.003    532.126    526.003
 30.470    535.000    543.590     -8.590    525.703    538.903    525.703    530.383    525.703
 30.570    542.000    549.628     -7.628    525.404    545.910    525.404    529.109    525.404
 30.670    543.267    562.549    -19.282    525.105    559.494    525.105    528.138    525.105
 30.770    607.000    582.221     24.779    524.808    579.635    524.808    527.356    524.808
 30.870    609.000    602.742      6.258    524.511    600.506    524.511    526.696    524.511
 30.970    572.485    612.098    -39.613    524.215    610.141    524.215    526.117    524.215
 31.070    623.000    602.309     20.691    523.920    600.589    523.920    525.594    523.920
 31.170    566.169    580.769    -14.601    523.625    579.250    523.625    525.115    523.625
 31.270    545.000    559.489    -14.489    523.332    558.137    523.332    524.668    523.332
 31.370    585.000    544.611     40.389    523.039    543.395    523.039    524.247    523.039
 31.470    505.000    536.363    -31.363    522.748    535.259    522.748    523.847    522.748
 31.570    566.000    532.396     33.604    522.457    531.386    522.457    523.464    522.457
 31.670    525.532    530.500     -4.968    522.167    529.570    522.167    523.095    522.167
 31.770    545.000    529.455     15.545    521.879    528.594    521.879    522.738    521.879
 31.870    567.811    528.770     39.042    521.591    527.968    521.591    522.391    521.591
 31.970    500.286    528.279    -27.994    521.304    527.530    521.304    522.052    521.304
 32.070    521.044    527.925     -6.880    521.018    527.221    521.018    521.721    521.018
 32.170    574.000    527.682     46.318    520.734    527.019    520.734    521.396    520.734
 32.270    539.000    527.546     11.454    520.450    526.918    520.450    521.076    520.450
 32.370    562.314    527.516     34.798    520.167    526.920    520.167    520.762    520.167
 32.470    522.343    527.600     -5.257    519.885    527.033    519.885    520.452    519.885
 32.570    518.467    527.815     -9.347    519.605    527.272    519.605    520.146    519.605
 32.670    566.000    528.184     37.816    519.325    527.664    519.325    519.844    519.325
 32.770    568.000    528.744     39.256    519.047    528.245    519.047    519.545    519.047
 32.870    524.251    529.550     -5.299    518.770    529.069    518.770    519.249    518.770
 32.970    538.000    530.677      7.323    518.494    530.213    518.494    518.956    518.494
 33.070    503.885    532.252    -28.367    518.219    531.803    518.219    518.666    518.219
 33.170    558.757    534.497     24.260    517.945    534.062    517.945    518.379    517.945
 33.270    502.000    537.919    -35.919    517.672    537.495    517.672    518.093    517.672
 33.370    560.000    543.913     16.087    517.401    543.500    517.401    517.811    517.401
 33.470    591.533    556.225     35.308    517.131    555.821    517.131    517.530    517.131
 33.570    579.111    583.157     -4.045    516.861    582.756    516.861    517.251    516.861
 33.670    668.030    638.125     29.905    516.594    637.724    516.594    516.975    516.594
 33.770    703.161    733.640    -30.479    516.327    733.231    516.327    516.700    516.327
 33.870    893.000    866.351     26.649    516.062    865.932    516.062    516.427    516.062
 33.970   1050.000   1000.057     49.943    515.798    999.634    515.798    516.157    515.798
 34.070   1075.000   1065.706      9.294    515.535   1065.299    515.535    515.888    515.535
 34.170   1070.069   1016.340     53.729    515.273   1015.966    515.273    515.620    515.273
 34.270    881.673    888.763     -7.090    515.013    888.418    515.013    515.355    515.013
 34.370    739.000    752.493    -13.493    514.754    752.164    514.754    515.091    514.754
 34.470    642.000    649.579     -7.579    514.496    649.255    514.496    514.829    514.496
 34.570    548.966    587.864    -38.898    514.240    587.541    514.240    514.569    514.240
 34.670    586.342    556.474     29.868    513.985    556.151    513.985    514.311    513.985
 34.770    538.000    541.668     -3.668    513.731    541.346    513.731    514.054    513.731
 34.870    566.000    534.283     31.717    513.479    533.963    513.479    513.798    513.479
 34.970    558.995    529.941     29.055    513.228    529.623    513.228    513.545    513.228
 35.070    538.000    526.945     11.055    512.978    526.630    512.978    513.293    512.978
 35.170    535.745    524.678     11.067    512.730    524.365    512.730    513.042    512.730
 35.270    552.000    522.882     29.118    512.483    522.572    512.483    512.794    512.483
 35.370    480.747    521.421    -40.674    512.238    521.112    512.238    512.547    512.238
 35.470    482.000    520.205    -38.205    511.994    519.898    511.994    512.301    511.994
 35.570    538.581    519.177     19.404    511.751    518.871    511.751    512.057    511.751
 35.670    499.000    518.292    -19.292    511.510    517.987    511.510    511.815    511.510
 35.770    524.000    517.521      6.479    511.270    517.216    511.270    511.574    511.270
 35.870    517.000    516.840      0.160    511.032    516.536    511.032    511.335    511.032
 35.970    523.000    516.232      6.768    510.795    515.930    510.795    511.098    510.795
 36.070    516.000    515.686      0.314    510.560    515.384    510.560    510.862    510.560
 36.170    516.000    515.192      0.808    510.326    514.890    510.326    510.628    510.326
 36.270    477.000    514.741    -37.741    510.094    514.440    510.094    510.395    510.094
 36.370    496.000    514.331    -18.331    509.863    514.029    509.863    510.164    509.863
 36.470    505.000    513.956     -8.956    509.634    513.655    509.634    509.935    509.634
 36.570    505.000    513.617     -8.617    509.406    513.315    509.406    509.707    509.406
 36.670    520.739    513.313      7.426    509.179    513.011    509.179    509.481    509.179
 36.770    473.076    513.050    -39.974    508.954    512.748    508.954    509.257    508.954
 36.870    515.000    512.845      2.155    508.731    512.542    508.731    509.034    508.731
 36.970    536.000    512.747     23.253    508.509    512.444    508.509    508.813    508.509
 37.070    525.055    512.877     12.178    508.289    512.573    508.289    508.593    508.289
 37.170    488.000    513.478    -25.478    508.071    513.173    508.071    508.376    508.071
 37.270    541.000    514.907     26.093    507.853    514.601    507.853    508.160    507.853
 37.370    520.000    517.472      2.528    507.638    517.165    507.638    507.945    507.638
 37.470    498.000    521.089    -23.089    507.424    520.782    507.424    507.732    507.424
 37.570    537.834    524.911     12.923    507.212    524.604    507.212    507.521    507.212
 37.670    562.841    527.308     35.533    507.001    527.002    507.001    507.312    507.001
 37.770    492.000    526.927    -34.927    506.792    526.621    506.792    507.104    506.792
 37.870    555.445    524.113     31.332    506.584    523.808    506.584    506.898    506.584
 37.970    478.076    520.352    -42.275    506.378    520.046    506.378    506.694    506.378
 38.070    522.000    516.808      5.192    506.174    516.502    506.174    506.491    506.174
 38.170    496.000    513.944    -17.944    505.971    513.634    505.971    506.290    505.971
 38.270    500.131    511.843    -11.712    505.770    511.529    505.770    506.091    505.770
 38.370    519.175    510.406      8.769    505.570    510.088    505.570    505.893    505.570
 38.470    495.000    509.456    -14.456    505.372    509.134    505.372    505.697    505.372
 38.570    504.000    508.826     -4.826    505.176    508.500    505.176    505.503    505.176
 38.670    507.406    508.389     -0.983    504.981    508.060    504.981    505.311    504.981
 38.770    471.125    508.057    -36.933    504.789    507.726    504.789    505.121    504.789
 38.870    513.000    507.782      5.218    504.597    507.448    504.597    504.932    504.597
 38.970    541.468    507.538     33.930    504.408    507.202    504.408    504.745    504.408
 39.070    537.326    507.314     30.012    504.220    506.975    504.220    504.559    504.220
 39.170    469.665    507.104    -37.439    504.033    506.762    504.033    504.376    504.033
 39.270    528.221    506.907     21.315    503.849    506.561    503.849    504.194    503.849
 39.370    482.000    506.719    -24.719    503.666    506.370    503.666    504.014    503.666
 39.470    519.000    506.540     12.460    503.484    506.189    503.484    503.836    503.484
 39.570    497.945    506.370     -8.425    503.305    506.015    503.305    503.660    503.305
 39.670    489.000    506.207    -17.207    503.127    505.849    503.127    503.485    503.127
 39.770    516.129    506.052     10.076    502.951    505.691    502.951    503.312    502.951
 39.870    531.068    505.905     25.163    502.776    505.540    502.776    503.141    502.776
 39.970    487.000    505.766    -18.766    502.603    505.397    502.603    502.972    502.603
 40.070    528.880    505.635     23.245    502.432    505.262    502.432    502.805    502.432
 40.170    517.000    505.512     11.488    502.263    505.135    502.263    502.639    502.263
 40.270    476.000    505.397    -29.397    502.095    505.017    502.095    502.476    502.095
 40.370    469.901    505.293    -35.392    501.929    504.909    501.929    502.314    501.929
 40.470    475.000    505.200    -30.200    501.765    504.811    501.765    502.154    501.765
 40.570    494.000    505.118    -11.118    501.602    504.725    501.602    501.996    501.602
 40.670    463.000    505.050    -42.050    501.442    504.652    501.442    501.839    501.442
 40.770    538.850    504.997     33.853    501.283    504.595    501.283    501.685    501.283
 40.870    478.000    504.963    -26.963    501.125    504.556    501.125    501.533    501.125
 40.970    498.000    504.950     -6.950    500.969    504.538    500.969    501.382    500.969
 41.070    516.000    504.963     11.037    500.816    504.546    500.816    501.233    500.816
 41.170    476.000    505.008    -29.008    500.663    504.586    500.663    501.086    500.663
 41.270    475.679    505.092    -29.413    500.513    504.664    500.513    500.941    500.513
 41.370    530.000    505.227     24.773    500.364    504.793    500.364    500.798    500.364
 41.470    535.685    505.426     30.258    500.217    504.987    500.217    500.657    500.217
 41.570    494.000    505.715    -11.715    500.072    505.270    500.072    500.518    500.072
 41.670    466.920    506.134    -39.214    499.928    505.683    499.928    500.381    499.928
 41.770    521.000    506.779     14.221    499.787    506.322    499.787    500.246    499.787
 41.870    541.434    507.882     33.552    499.647    507.419    499.647    500.113    499.647
 41.970    483.000    509.989    -26.989    499.508    509.520    499.508    499.981    499.508
 42.070    528.402    514.209     14.193    499.372    513.735    499.372    499.852    499.372
 42.170    516.819    522.346     -5.528    499.237    521.868    499.237    499.725    499.237
 42.270    502.208    536.505    -34.297    499.104    536.025    499.104    499.599    499.104
 42.370    556.000    557.824     -1.824    498.973    557.347    498.973    499.476    498.973
 42.470    612.875    584.557     28.318    498.843    584.085    498.843    499.355    498.843
 42.570    605.858    610.430     -4.572    498.715    609.964    498.715    499.236    498.715
 42.670    636.000    625.237     10.763    498.589    624.772    498.589    499.119    498.589
 42.770    624.834    621.202      3.632    498.465    620.729    498.465    499.004    498.465
 42.870    612.000    600.691     11.309    498.343    600.201    498.343    498.891    498.343
 42.970    542.000    573.412    -31.412    498.222    572.897    498.222    498.780    498.222
 43.070    523.000    548.251    -25.251    498.103    547.711    498.103    498.672    498.103
 43.170    560.000    529.586     30.414    497.986    529.024    497.986    498.565    497.986
 43.270    523.000    517.819      5.181    497.870    517.238    497.870    498.461    497.870
 43.370    489.481    511.259    -21.778    497.756    510.662    497.756    498.359    497.756
 43.470    502.000    507.846     -5.846    497.644    507.234    497.644    498.259    497.644
 43.570    486.506    506.047    -19.542    497.534    505.422    497.534    498.162    497.534
 43.670    544.984    505.002     39.982    497.425    504.362    497.425    498.067    497.425
 43.770    523.969    504.308     19.661    497.319    503.654    497.319    497.974    497.319
 43.870    518.000    503.797     14.203    497.213    503.128    497.213    497.884    497.213
 43.970    476.883    503.401    -26.518    497.110    502.716    497.110    497.796    497.110
 44.070    469.258    503.086    -33.827    497.009    502.385    497.009    497.710    497.009
 44.170    529.041    502.832     26.209    496.909    502.114    496.909    497.627    496.909
 44.270    483.000    502.627    -19.627    496.811    501.891    496.811    497.547    496.811
 44.370    534.186    502.461     31.724    496.714    501.707    496.714    497.469    496.714
 44.470    500.000    502.328     -2.328    496.620    501.555    496.620    497.394    496.620
 44.570    505.000    502.224      2.776    496.527    501.429    496.527    497.322    496.527
 44.670    504.000    502.144      1.856    496.436    501.327    496.436    497.252    496.436
 44.770    485.000    502.085    -17.085    496.346    501.246    496.346    497.186    496.346
 44.870    468.766    502.047    -33.280    496.259    501.183    496.259    497.122    496.259
 44.970    548.000    502.027     45.973    496.173    501.137    496.173    497.062    496.173
 45.070    497.000    502.025     -5.025    496.089    501.108    496.089    497.005    496.089
 45.170    501.432    502.040     -0.608    496.006    501.094    496.006    496.951    496.006
 45.270    528.000    502.072     25.928    495.925    501.096    495.925    496.901    495.925
 45.370    468.842    502.121    -33.279    495.846    501.113    495.846    496.855    495.846
 45.470    510.000    502.188      7.812    495.769    501.145    495.769    496.812    495.769
 45.570    496.290    502.274     -5.984    495.693    501.193    495.693    496.774    495.693
 45.670    492.000    502.379    -10.379    495.619    501.259    495.619    496.739    495.619
 45.770    459.000    502.505    -43.505    495.547    501.342    495.547    496.710    495.547
 45.870    537.000    502.653     34.347    495.477    501.445    495.477    496.685    495.477
 45.970    541.398    502.827     38.571    495.408    501.569    495.408    496.665    495.408
 46.070    506.000    503.028      2.972    495.341    501.717    495.341    496.651    495.341
 46.170    498.185    503.261     -5.076    495.276    501.893    495.276    496.643    495.276
 46.270    506.000    503.529      2.471    495.212    502.099    495.212    496.641    495.212
 46.370    497.000    503.840     -6.840    495.150    502.342    495.150    496.647    495.150
 46.470    491.000    504.199    -13.199    495.090    502.628    495.090    496.660    495.090
 46.570    504.000    504.616     -0.616    495.031    502.965    495.031    496.682    495.031
 46.670    466.000    505.109    -39.109    494.974    503.369    494.974    496.713    494.974
 46.770    500.542    505.703     -5.161    494.919    503.866    494.919    496.754    494.919
 46.870    499.000    506.451     -7.451    494.865    504.508    494.865    496.807    494.865
 46.970    511.000    507.474      3.526    494.813    505.412    494.813    496.873    494.813
 47.070    531.000    509.035     21.965    494.763    506.840    494.763    496.954    494.763
 47.170    542.000    511.651     30.349    494.714    509.308    494.714    497.052    494.714
 47.270    512.000    516.170     -4.170    494.667    513.659    494.667    497.170    494.667
 47.370    558.000    523.672     34.328    494.622    520.971    494.622    497.310    494.622
 47.470    565.000    535.041     29.959    494.579    532.122    494.579    497.476    494.579
 47.570    517.644    550.208    -32.564    494.537    547.039    494.537    497.673    494.537
 47.670    537.000    567.338    -30.338    494.496    563.884    494.496    497.906    494.496
 47.770    585.796    582.397      3.400    494.458    578.617    494.458    498.183    494.458
 47.870    586.000    590.021     -4.021    494.420    585.870    494.420    498.514    494.420
 47.970    551.544    587.047    -35.503    494.385    582.469    494.385    498.910    494.385
 48.070    617.106    575.635     41.470    494.351    570.555    494.351    499.389    494.351
 48.170    544.000    561.026    -17.026    494.319    555.336    494.319    499.979    494.319
 48.270    563.000    547.773     15.227    494.288    541.320    494.288    500.721    494.288
 48.370    524.347    538.335    -13.988    494.259    530.895    494.259    501.686    494.259
 48.470    491.435    533.337    -41.902    494.232    524.571    494.232    502.990    494.232
 48.570    511.000    532.296    -21.296    494.206    521.680    494.206    504.816    494.206
 48.670    560.000    534.483     25.517    494.182    521.218    494.182    507.441    494.182
 48.770    533.991    539.450     -5.459    494.159    522.361    494.159    511.244    494.159
 48.870    559.527    547.189     12.338    494.138    524.639    494.138    516.683    494.138
 48.970    582.399    558.037     24.362    494.119    527.923    494.119    524.226    494.119
 49.070    530.956    572.520    -41.563    494.101    532.395    494.101    534.218    494.101
 49.170    622.577    591.324     31.253    494.085    538.723    494.085    546.676    494.085
 49.270    633.832    615.668     18.165    494.070    548.698    494.070    561.026    494.070
 49.370    680.663    648.479     32.184    494.057    566.774    494.057    575.743    494.057
 49.470    728.410    696.823     31.586    494.045    602.760    494.045    588.078    494.045
 49.570    779.270    775.471      3.799    494.035    674.885    494.035    594.569    494.035
 49.670    889.000    909.142    -20.142    494.026    810.164    494.026    592.921    494.026
 49.770   1109.000   1126.986    -17.986    494.019   1037.094    494.019    583.784    494.019
 49.870   1496.765   1444.118     52.646    494.014   1367.788    494.014    570.178    494.014
 49.970   1858.178   1836.053     22.125    494.009   1774.491    494.009    555.389    494.009
 50.070   2214.000   2222.073     -8.073    494.007   2174.257    494.007    541.674    494.007
 50.170   2501.000   2477.130     23.870    494.006   2440.927    494.006    530.151    494.006
 50.270   2512.000   2491.861     20.139    494.006   2464.797    494.006    521.135    494.006
 50.370   2237.000   2255.374    -18.374    494.008   2235.083    494.008    514.455    494.008
 50.470   1892.000   1866.312     25.688    494.012   1850.808    494.012    509.705    494.012
 50.570   1403.000   1454.774    -51.774    494.017   1442.556    494.017    506.408    494.017
 50.670   1064.595   1113.194    -48.600    494.023   1103.220    494.023    504.131    494.023
 50.770    823.000    877.594    -54.594    494.031    869.181    494.031    502.537    494.031
 50.870    768.096    739.548     28.548    494.040    732.265    494.040    501.387    494.040
 50.970    644.000    669.251    -25.251    494.051    662.825    494.051    500.525    494.051
 51.070    659.452    635.351     24.101    494.063    629.598    494.063    499.856    494.063
 51.170    593.803    615.429    -21.625    494.077    610.219    494.077    499.321    494.077
 51.270    573.422    598.415    -24.993    494.092    593.650    494.092    498.886    494.092
 51.370    587.000    581.679      5.321    494.108    577.284    494.108    498.527    494.108
 51.470    579.000    566.238     12.762    494.126    562.152    494.126    498.229    494.126
 51.570    521.000    553.489    -32.489    494.145    549.665    494.145    497.981    494.145
 51.670    557.000    544.069     12.931    494.166    540.469    494.166    497.774    494.166
 51.770    585.122    537.800     47.322    494.188    534.391    494.188    497.602    494.188
 51.870    519.000    534.037    -15.037    494.212    530.792    494.212    497.460    494.212
 51.970    560.000    532.059     27.941    494.237    528.955    494.237    497.343    494.237
 52.070    542.620    531.316     11.304    494.263    528.334    494.263    497.248    494.263
 52.170    581.000    531.507     49.493    494.290    528.627    494.290    497.172    494.290
 52.270    556.000    532.572     23.428    494.319    529.779    494.319    497.113    494.319
 52.370    521.961    534.717    -12.756    494.350    531.998    494.350    497.070    494.350
 52.470    580.000    538.571     41.429    494.381    535.913    494.381    497.040    494.381
 52.570    564.000    545.539     18.461    494.414    542.931    494.414    497.022    494.414
 52.670    513.762    558.358    -44.596    494.448    555.791    494.448    497.015    494.448
 52.770    623.000    581.633     41.367    494.484    579.097    494.484    497.019    494.484
 52.870    645.000    621.818     23.182    494.521    619.304    494.521    497.033    494.521
 52.970    704.000    685.879     18.121    494.559    683.379    494.559    497.055    494.559
 53.070    785.000    778.194      6.806    494.598    775.702    494.598    497.086    494.598
 53.170    882.000    896.189    -14.189    494.639    893.700    494.639    497.125    494.639
 53.270   1068.000   1026.227     41.773    494.681   1023.737    494.681    497.172    494.681
 53.370   1132.518   1141.852     -9.334    494.724   1139.360    494.724    497.226    494.724
 53.470   1201.465   1208.689     -7.224    494.769   1206.193    494.769    497.288    494.769
 53.570   1180.000   1201.626    -21.626    494.815   1199.119    494.815    497.357    494.815
 53.670   1052.000   1123.819    -71.819    494.862   1121.289    494.862    497.434    494.862
 53.770    930.000   1003.777    -73.777    494.910   1001.211    494.910    497.517    494.910
 53.870    859.000    875.077    -16.077    494.959    872.464    494.959    497.608    494.959
 53.970    720.257    761.828    -41.571    495.010    759.158    495.010    497.707    495.010
 54.070    720.427    675.391     45.036    495.062    672.659    495.062    497.812    495.062
 54.170    652.000    616.735     35.265    495.115    613.936    495.115    497.926    495.115
 54.270    551.000    580.729    -29.729    495.169    577.858    495.169    498.048    495.169
 54.370    576.830    560.349     16.481    495.225    557.400    495.225    498.177    495.225
 54.470    551.000    549.449      1.551    495.281    546.417    495.281    498.316    495.281
 54.570    511.000    543.796    -32.796    495.339    540.673    495.339    498.464    495.339
 54.670    581.000    540.935     40.065    495.398    537.713    495.398    498.622    495.398
 54.770    529.317    539.623    -10.305    495.458    536.292    495.458    498.789    495.458
 54.870    526.000    539.294    -13.294    495.519    535.846    495.519    498.968    495.519
 54.970    536.000    539.713     -3.713    495.581    536.136    495.581    499.159    495.581
 55.070    512.512    540.796    -28.284    495.645    537.079    495.645    499.362    495.645
 55.170    587.581    542.534     45.047    495.709    538.664    495.709    499.580    495.709
 55.270    535.000    544.967     -9.967    495.775    540.931    495.775    499.812    495.775
 55.370    537.000    548.185    -11.185    495.841    543.966    495.841    500.061    495.841
 55.470    544.929    552.349     -7.420    495.909    547.932    495.909    500.327    495.909
 55.570    575.000    557.767     17.233    495.978    553.132    495.978    500.614    495.978
 55.670    563.628    565.072     -1.444    496.048    560.198    496.048    500.922    496.048
 55.770    582.000    575.647      6.353    496.119    570.511    496.119    501.254    496.119
 55.870    632.000    592.447     39.553    496.191    587.022    496.191    501.614    496.191
 55.970    650.975    621.335     29.640    496.264    615.589    496.264    502.004    496.264
 56.070    678.000    672.686      5.314    496.338    666.583    496.338    502.429    496.338
 56.170    721.000    762.299    -41.299    496.413    755.798    496.413    502.892    496.413
 56.270    879.000    909.901    -30.901    496.489    902.954    496.489    503.399    496.489
 56.370   1045.000   1133.442    -88.442    496.566   1125.999    496.566    503.957    496.566
 56.470   1403.594   1439.042    -35.448    496.644   1431.051    496.644    504.572    496.644
 56.570   1746.000   1809.288    -63.288    496.722   1800.698    496.722    505.254    496.722
 56.670   2202.984   2194.653      8.331    496.802   2185.411    496.802    506.013    496.802
 56.770   2425.000   2513.617    -88.617    496.883   2503.662    496.883    506.863    496.883
 56.870   2673.000   2672.556      0.444    496.965   2661.810    496.965    507.820    496.965
 56.970   2617.000   2615.152      1.848    497.048   2603.492    497.048    508.903    497.048
 57.070   2422.845   2364.423     58.423    497.131   2351.665    497.131    510.139    497.131
 57.170   2056.000   2003.298     52.702    497.216   1989.209    497.216    511.563    497.216
 57.270   1592.255   1622.364    -30.109    497.301   1606.672    497.301    513.223    497.301
 57.370   1234.277   1286.936    -52.659    497.387   1269.310    497.387    515.195    497.387
 57.470   1060.385   1029.085     31.301    497.474   1009.094    497.474    517.595    497.474
 57.570    877.000    852.825     24.175    497.562    829.862    497.562    520.608    497.562
 57.670    704.527    745.090    -40.563    497.651    718.257    497.651    524.533    497.651
 57.770    676.694    687.208    -10.514    497.741    655.149    497.741    529.825    497.741
 57.870    666.077    663.004      3.073    497.831    623.689    497.831    537.156    497.831
 57.970    643.142    662.360    -19.218    497.923    612.848    497.923    547.432    497.923
 58.070    695.000    681.318     13.682    498.015    617.538    498.015    561.782    498.015
 58.170    695.000    720.344    -25.344    498.108    636.983    498.108    581.444    498.108
 58.270    738.000    781.978    -43.978    498.202    672.589    498.202    607.554    498.202
 58.370    866.548    868.269     -1.720    498.296    725.688    498.296    640.827    498.296
 58.470    981.000    978.522      2.478    498.392    795.696    498.392    681.157    498.392
 58.570   1082.000   1107.404    -25.404    498.488    878.693    498.488    727.131    498.488
 58.670   1298.000   1243.950     54.050    498.585    967.047    498.585    775.420    498.585
 58.770   1369.000   1372.683     -3.683    498.682   1051.149    498.682    820.158    498.682
 58.870   1519.000   1476.820     42.180    498.780   1122.513    498.780    853.044    498.780
 58.970   1571.000   1541.174     29.826    498.879   1174.312    498.879    865.718    498.879
 59.070   1547.654   1554.909     -7.255    498.979   1199.502    498.979    854.385    498.979
 59.170   1555.367   1516.578     38.789    499.079   1193.140    499.079    822.535    499.079
 59.270   1441.000   1437.812      3.188    499.181   1158.608    499.181    778.407    499.181
 59.370   1360.000   1339.551     20.449    499.282   1108.480    499.282    730.367    499.282
 59.470   1225.000   1243.612    -18.612    499.385   1058.582    499.385    684.406    499.385
 59.570   1272.000   1168.269    103.731    499.488   1023.749    499.488    643.966    499.488
 59.670   1190.000   1128.807     61.193    499.591   1017.768    499.591    610.545    499.591
 59.770   1092.305   1136.791    -44.487    499.696   1052.047    499.696    584.303    499.696
 59.870   1191.000   1195.453     -4.453    499.801   1130.503    499.801    564.557    499.801
 59.970   1275.474   1295.010    -19.535    499.906   1244.484    499.906    550.185    499.906
 60.070   1515.000   1411.174    103.826    500.012   1370.950    500.012    539.949    500.012
 60.170   1539.197   1507.755     31.441    500.119   1474.859    500.119    532.715    500.119
 60.270   1527.000   1546.193    -19.193    500.227   1518.579    500.227    527.564    500.227
 60.370   1571.000   1503.939     67.061    500.334   1480.234    500.334    523.816    500.334
 60.470   1471.000   1388.337     82.663    500.443   1367.615    500.443    521.008    500.443
 60.570   1310.000   1229.314     80.686    500.552   1210.928    500.552    518.842    500.552
 60.670   1073.905   1061.122     12.783    500.661   1044.601    500.661    517.132    500.661
 60.770    883.165    910.125    -26.960    500.771    895.106    500.771    515.768    500.771
 60.870    828.940    790.861     38.079    500.882    777.048    500.882    514.686    500.882
 60.970    717.521    707.062     10.459    500.993    694.201    500.993    513.849    500.993
 61.070    695.000    655.392     39.608    501.104    643.255    501.104    513.234    501.104
 61.170    635.000    630.033      4.967    501.216    618.411    501.216    512.826    501.216
 61.270    629.000    626.464      2.536    501.329    615.164    501.329    512.608    501.329
 61.370    629.565    643.514    -13.949    501.442    632.362    501.442    512.561    501.442
 61.470    717.083    683.514     33.568    501.555    672.368    501.555    512.651    501.555
 61.570    715.602    750.730    -35.128    501.669    739.497    501.669    512.828    501.669
 61.670    827.625    848.382    -20.758    501.783    837.048    501.783    513.014    501.783
 61.770    922.000    974.949    -52.949    501.897    963.600    501.897    513.110    501.897
 61.870   1117.000   1120.837     -3.837    502.012   1109.664    502.012    513.019    502.012
 61.970   1241.000   1266.650    -25.650    502.128   1255.907    502.128    512.687    502.128
 62.070   1334.589   1384.367    -49.777    502.243   1374.292    502.243    512.135    502.243
 62.170   1429.000   1444.000    -15.000    502.359   1434.761    502.359    511.440    502.359
 62.270   1369.000   1427.288    -58.288    502.476   1418.953    502.476    510.695    502.476
 62.370   1361.000   1339.232     21.768    502.593   1331.784    502.593    509.972    502.593
 62.470   1218.000   1204.479     13.521    502.710   1197.840    502.710    509.319    502.710
 62.570   1051.225   1053.314     -2.088    502.827   1047.378    502.827    508.759    502.827
 62.670    885.000    910.670    -25.670    502.945    905.325    502.945    508.299    502.945
 62.770    784.000    791.871     -7.871    503.063    787.011    503.063    507.937    503.063
 62.870    670.000    702.656    -32.656    503.181    698.189    503.181    507.660    503.181
 62.970    667.000    641.492     25.508    503.300    637.343    503.300    507.457    503.300
 63.070    568.000    602.839    -34.839    503.418    598.949    503.418    507.311    503.418
 63.170    574.001    580.144     -6.143    503.537    576.471    503.537    507.210    503.537
 63.270    583.000    567.796     15.204    503.657    564.306    503.657    507.144    503.657
 63.370    575.000    561.937     13.063    503.776    558.606    503.776    507.103    503.776
 63.470    518.000    560.527    -42.527    503.896    557.334    503.896    507.081    503.896
 63.570    547.465    563.085    -15.620    504.016    560.016    504.016    507.076    504.016
 63.670    576.000    570.413      5.587    504.136    567.453    504.136    507.082    504.136
 63.770    553.761    584.332    -30.570    504.256    581.468    504.256    507.100    504.256
 63.870    661.000    607.328     53.672    504.376    604.549    504.376    507.126    504.376
 63.970    639.000    641.944     -2.944    504.497    639.238    504.497    507.160    504.497
 64.070    710.395    689.843     20.552    504.618    687.199    504.618    507.201    504.618
 64.170    777.174    750.665     26.509    504.739    748.073    504.739    507.248    504.739
 64.270    857.119    820.941     36.178    504.859    818.397    504.859    507.302    504.859
 64.370    906.498    893.422     13.077    504.981    890.922    504.981    507.360    504.981
 64.470    910.727    957.321    -46.593    505.102    954.869    505.102    507.424    505.102
 64.570    994.000   1000.614     -6.614    505.223    998.218    505.223    507.491    505.223
 64.670   1028.000   1014.753     13.247    505.344   1012.420    505.344    507.563    505.344
 64.770   1010.000    998.522     11.478    505.466    996.259    505.466    507.639    505.466
 64.870    907.072    957.531    -50.459    505.587    955.338    505.587    507.719    505.587
 64.970    917.000    901.191     15.809    505.708    899.065    505.708    507.802    505.708
 65.070    798.000    839.614    -41.614    505.830    837.547    505.830    507.888    505.830
 65.170    833.031    780.883     52.148    505.951    778.866    505.951    507.977    505.951
 65.270    764.000    729.554     34.446    506.073    727.579    506.073    508.068    506.073
 65.370    729.000    686.938     42.062    506.194    684.995    506.194    508.163    506.194
 65.470    606.945    652.507    -45.562    506.316    650.589    506.316    508.260    506.316
 65.570    608.624    625.213    -16.589    506.437    623.313    506.437    508.359    506.437
 65.670    566.000    604.010    -38.010    506.559    602.125    506.559    508.461    506.559
 65.770    616.000    587.929     28.071    506.680    586.055    506.680    508.566    506.680
 65.870    594.217    576.104     18.113    506.801    574.240    506.801    508.672    506.801
 65.970    533.633    567.793    -34.160    506.922    565.939    506.922    508.780    506.922
 66.070    524.000    562.364    -38.364    507.043    560.517    507.043    508.891    507.043
 66.170    532.940    559.273    -26.334    507.164    557.434    507.164    509.003    507.164
 66.270    549.000    558.069     -9.069    507.285    556.236    507.285    509.118    507.285
 66.370    521.000    558.411    -37.411    507.406    556.582    507.406    509.234    507.406
 66.470    499.000    560.108    -61.108    507.527    558.282    507.527    509.353    507.527
 66.570    537.000    563.181    -26.181    507.647    561.356    507.647    509.473    507.647
 66.670    556.000    567.972    -11.972    507.767    566.145    507.767    509.596    507.767
 66.770    569.987    575.337     -5.351    507.888    573.506    507.888    509.720    507.888
 66.870    594.834    586.990      7.845    508.008    585.151    508.008    509.846    508.008
 66.970    615.000    605.975      9.025    508.127    604.127    508.127    509.974    508.127
 67.070    587.000    637.208    -50.208    508.247    635.346    508.247    510.105    508.247
 67.170    687.000    687.824     -0.824    508.366    685.945    508.366    510.237    508.366
 67.270    792.000    766.961     25.039    508.485    765.062    508.485    510.372    508.485
 67.370    875.000    884.506     -9.506    508.604    882.584    508.604    510.508    508.604
 67.470    995.148   1048.555    -53.406    508.723   1046.611    508.723    510.648    508.723
 67.570   1283.000   1261.770     21.230    508.841   1259.808    508.841    510.789    508.841
 67.670   1498.000   1517.465    -19.465    508.959   1515.493    508.959    510.933    508.959
 67.770   1824.000   1796.586     27.414    509.077   1794.617    509.077    511.080    509.077
 67.870   1988.052   2066.735    -78.683    509.194   2064.783    509.194    511.230    509.194
 67.970   2280.687   2284.731     -4.044    509.312   2282.808    509.312    511.382    509.312
 68.070   2455.422   2405.747     49.676    509.429   2403.857    509.429    511.538    509.429
 68.170   2314.460   2400.355    -85.895    509.545   2398.487    509.545    511.697    509.545
 68.270   2320.000   2270.058     49.942    509.661   2268.182    509.661    511.860    509.661
 68.370   2013.769   2046.344    -32.575    509.777   2044.424    509.777    512.027    509.777
 68.470   1700.494   1774.401    -73.907    509.893   1772.402    509.893    512.198    509.893
 68.570   1558.000   1496.686     61.314    510.008   1494.584    510.008    512.372    510.008
 68.670   1294.000   1244.498     49.502    510.122   1242.279    510.122    512.552    510.122
 68.770   1068.000   1035.774     32.226    510.237   1033.431    510.237    512.739    510.237
 68.870    854.000    876.278    -22.278    510.351    873.811    510.351    512.931    510.351
 68.970    776.000    762.740     13.260    510.464    760.151    510.464    513.130    510.464
 69.070    711.000    686.794     24.206    510.577    684.086    510.577    513.336    510.577
 69.170    659.000    638.544     20.456    510.690    635.716    510.690    513.550    510.690
 69.270    631.000    608.989     22.011    510.802    606.039    510.802    513.772    510.802
 69.370    573.427    591.176    -17.748    510.914    588.098    510.914    514.005    510.914
 69.470    561.000    580.346    -19.346    511.025    577.132    511.025    514.248    511.025
 69.570    571.000    573.552     -2.552    511.136    570.190    511.136    514.504    511.136
 69.670    598.000    569.113     28.887    511.246    565.591    511.246    514.773    511.246
 69.770    583.001    566.130     16.871    511.356    562.432    511.356    515.058    511.356
 69.870    523.188    564.146    -40.959    511.465    560.254    511.465    515.359    511.465
 69.970    586.228    562.936     23.292    511.574    558.831    511.574    515.681    511.574
 70.070    563.000    562.395      0.605    511.682    558.054    511.682    516.024    511.682
 70.170    523.000    562.492    -39.492    511.790    557.889    511.790    516.393    511.790
 70.270    572.000    563.254      8.746    511.897    558.359    511.897    516.791    511.897
 70.370    600.000    564.788     35.212    512.003    559.566    512.003    517.222    512.003
 70.470    538.000    567.328    -29.328    512.109    561.742    512.109    517.692    512.109
 70.570    550.000    571.350    -21.350    512.214    565.352    512.214    518.208    512.214
 70.670    584.000    577.719      6.281    512.319    571.254    512.319    518.777    512.319
 70.770    558.862    587.926    -29.065    512.423    580.927    512.423    519.411    512.423
 70.870    606.000    604.365      1.635    512.527    596.749    512.527    520.126    512.527
 70.970    635.995    630.568      5.426    512.630    622.228    512.630    520.943    512.630
 71.070    719.928    671.264     48.663    512.732    662.056    512.732    521.899    512.732
 71.170    760.521    732.052     28.469    512.833    721.777    512.833    523.049    512.833
 71.270    887.000    818.526     68.474    512.934    806.898    512.934    524.478    512.934
 71.370    876.000    934.793    -58.793    513.034    921.393    513.034    526.322    513.034
 71.470   1093.000   1081.582     11.418    513.134   1065.790    513.134    528.782    513.134
 71.570   1229.000   1254.346    -25.346    513.233   1235.258    513.233    532.146    513.233
 71.670   1416.000   1441.911    -25.911    513.331   1418.238    513.331    536.805    513.331
 71.770   1588.250   1626.125    -37.875    513.428   1596.088    513.428    543.254    513.428
 71.870   1767.000   1783.114    -16.114    513.525   1744.366    513.525    552.065    513.525
 71.970   1871.041   1887.411    -16.370    513.621   1837.016    513.621    563.829    513.621
 72.070   1933.000   1919.970     13.030    513.716   1854.473    513.716    579.061    513.716
 72.170   1905.000   1876.977     28.023    513.811   1792.612    513.811    598.063    513.811
 72.270   1805.000   1772.017     32.983    513.904   1665.071    513.904    620.775    513.904
 72.370   1727.000   1629.061     97.939    513.997   1496.393    513.997    646.619    513.997
 72.470   1548.896   1472.865     76.031    514.089   1312.573    514.089    674.353    514.089
 72.570   1329.242   1322.853      6.390    514.180   1135.069    514.180    701.947    514.180
 72.670   1209.000   1190.787     18.213    514.271    978.507    514.271    726.538    514.271
 72.770   1028.000   1080.808    -52.808    514.361    850.476    514.361    744.681    514.361
 72.870    957.566    991.252    -33.686    514.449    752.524    514.449    753.164    514.449
 72.970    900.000    917.664    -17.664    514.537    681.910    514.537    750.277    514.537
 73.070    828.000    855.628    -27.628    514.625    633.577    514.625    736.662    514.625
 73.170    818.311    802.134     16.178    514.711    601.869    514.711    714.963    514.711
 73.270    675.000    755.531    -80.531    514.796    581.685    514.796    688.632    514.796
 73.370    691.000    715.023    -24.023    514.881    569.037    514.881    660.858    514.881
 73.470    632.000    680.261    -48.261    514.965    561.140    514.965    634.080    514.965
 73.570    611.000    651.099    -40.099    515.047    556.231    515.047    609.912    515.047
 73.670    650.000    627.408     22.592    515.129    553.297    515.129    589.240    515.129
 73.770    569.459    608.950    -39.491    515.210    551.806    515.210    572.358    515.210
 73.870    554.729    595.316    -40.587    515.290    551.492    515.290    559.122    515.290
 73.970    606.000    585.921     20.079    515.369    552.197    515.369    549.105    515.369
 74.070    572.000    580.044     -8.044    515.447    553.769    515.447    541.740    515.447
 74.170    559.762    576.876    -17.113    515.525    555.988    515.525    536.436    515.525
 74.270    649.000    575.562     73.438    515.601    558.536    515.601    532.657    515.601
 74.370    621.000    575.238     45.762    515.676    560.988    515.676    529.961    515.676
 74.470    593.000    575.070     17.930    515.750    562.850    515.750    528.011    515.750
 74.570    643.000    574.343     68.657    515.824    563.646    515.824    526.564    515.824
 74.670    540.280    572.595    -32.315    515.896    563.078    515.896    525.457    515.896
 74.770    616.000    569.730     46.270    515.967    561.159    515.967    524.581    515.967
 74.870    642.000    566.002     75.998    516.038    558.210    516.038    523.867    516.038
 74.970    632.000    561.872     70.128    516.107    554.739    516.107    523.272    516.107
 75.070    587.823    557.865     29.958    516.175    551.300    516.175    522.766    516.175
 75.170    594.935    554.491     40.444    516.242    548.421    516.242    522.332    516.242
 75.270    572.000    552.233     19.767    516.308    546.598    516.308    521.956    516.308
 75.370    594.259    551.562     42.696    516.373    546.314    516.373    521.629    516.373
 75.470    523.000    552.970    -29.970    516.437    548.066    516.437    521.343    516.437
 75.570    551.092    556.979     -5.887    516.500    552.383    516.500    521.092    516.500
 75.670    519.284    564.117    -44.833    516.562    559.797    516.562    520.872    516.562
 75.770    580.000    574.837      5.163    516.623    570.765    516.623    520.678    516.623
 75.870    578.000    589.381    -11.381    516.683    585.532    516.683    520.508    516.683
 75.970    602.000    607.602     -5.602    516.741    603.953    516.741    520.357    516.741
 76.070    620.000    628.798     -8.798    516.799    625.332    516.799    520.224    516.799
 76.170    635.417    651.601    -16.184    516.855    648.300    516.855    520.106    516.855
 76.270    645.000    673.947    -28.947    516.910    670.797    516.910    520.002    516.910
 76.370    660.000    693.181    -33.181    516.964    690.173    516.964    519.910    516.964
 76.470    738.389    706.402     31.988    517.017    703.526    517.017    519.828    517.017
 76.570    704.353    711.174     -6.821    517.069    708.424    517.069    519.756    517.069
 76.670    722.783    706.482     16.301    517.119    703.852    517.119    519.693    517.119
 76.770    711.000    693.221     17.779    517.169    690.705    517.169    519.636    517.169
 76.870    660.000    673.749    -13.749    517.217    671.340    517.217    519.587    517.217
 76.970    639.000    650.947    -11.947    517.264    648.638    517.264    519.543    517.264
 77.070    603.000    627.478    -24.478    517.310    625.262    517.310    519.505    517.310
 77.170    597.576    605.418     -7.843    517.354    603.287    517.354    519.471    517.354
 77.270    616.000    586.138     29.862    517.398    584.084    517.398    519.441    517.398
 77.370    561.000    570.314     -9.314    517.440    568.332    517.440    519.415    517.440
 77.470    521.000    558.040    -37.040    517.481    556.124    517.481    519.392    517.481
 77.570    500.000    548.991    -48.991    517.521    547.136    517.521    519.373    517.521
 77.670    540.000    542.614     -2.614    517.559    540.815    517.559    519.355    517.559
 77.770    561.000    538.284     22.716    517.596    536.538    517.596    519.341    517.596
 77.870    561.928    535.425     26.503    517.632    533.728    517.632    519.328    517.632
 77.970    522.000    533.565    -11.565    517.667    531.913    517.667    519.317    517.667
 78.070    558.000    532.354     25.646    517.700    530.745    517.700    519.308    517.700
 78.170    528.000    531.552     -3.552    517.732    529.983    517.732    519.300    517.732
 78.270    555.000    531.012     23.988    517.763    529.481    517.763    519.293    517.763
 78.370    539.000    530.645      8.355    517.793    529.149    517.793    519.288    517.793
 78.470    545.000    530.401     14.599    517.821    528.938    517.821    519.284    517.821
 78.570    568.002    530.259     37.743    517.848    528.826    517.848    519.281    517.848
 78.670    513.000    530.197    -17.197    517.874    528.792    517.874    519.278    517.874
 78.770    521.000    530.236     -9.236    517.898    528.857    517.898    519.277    517.898
 78.870    538.000    530.429      7.571    517.921    529.072    517.921    519.277    517.921
 78.970    508.000    530.775    -22.775    517.943    529.438    517.943    519.279    517.943
 79.070    552.000    531.302     20.698    517.963    529.981    517.963    519.283    517.963
 79.170    523.000    532.041     -9.041    517.982    530.732    517.982    519.289    517.982
 79.270    502.000    533.021    -31.021    518.000    531.720    518.000    519.298    518.000
 79.370    558.576    534.269     24.306    518.016    532.971    518.016    519.312    518.016
 79.470    559.126    535.812     23.314    518.031    534.510    518.031    519.330    518.031
 79.570    516.000    537.683    -21.683    518.045    536.370    518.045    519.354    518.045
 79.670    526.000    539.932    -13.932    518.057    538.599    518.057    519.385    518.057
 79.770    542.000    542.645     -0.645    518.068    541.284    518.068    519.424    518.068
 79.870    546.000    545.968      0.032    518.078    544.570    518.078    519.470    518.078
 79.970    536.000    550.128    -14.128    518.086    548.685    518.086    519.523    518.086
 80.070    552.000    555.461     -3.461    518.092    553.966    518.092    519.583    518.092
 80.170    538.000    562.409    -24.409    518.098    560.857    518.098    519.646    518.098
 80.270    571.000    571.469     -0.469    518.102    569.859    518.102    519.711    518.102
 80.370    627.383    583.099     44.284    518.104    581.433    518.104    519.771    518.104
 80.470    605.000    597.595      7.405    518.105    595.882    518.105    519.822    518.105
 80.570    564.000    614.980    -50.980    518.105    613.236    518.105    519.857    518.105
 80.670    609.000    634.919    -25.919    518.103    633.166    518.103    519.870    518.103
 80.770    660.000    656.664      3.336    518.100    654.926    518.100    519.857    518.100
 80.870    633.136    679.078    -45.942    518.095    677.381    518.095    519.817    518.095
 80.970    678.000    700.755    -22.755    518.089    699.121    518.089    519.755    518.089
 81.070    692.000    720.229    -28.229    518.081    718.672    518.081    519.677    518.081
 81.170    754.898    736.170     18.728    518.072    734.700    518.072    519.588    518.072
 81.270    752.000    747.509      4.491    518.062    746.128    518.062    519.495    518.062
 81.370    785.748    753.525     32.223    518.050    752.230    518.050    519.403    518.050
 81.470    785.000    753.930     31.070    518.037    752.715    518.037    519.315    518.037
 81.570    774.267    748.889     25.378    518.022    747.745    518.022    519.232    518.022
 81.670    738.000    738.953     -0.953    518.006    737.871    518.006    519.156    518.006
 81.770    737.000    725.022     11.978    517.988    723.991    517.988    519.087    517.988
 81.870    665.685    708.294    -42.609    517.968    707.305    517.968    519.024    517.968
 81.970    722.757    690.106     32.651    517.948    689.151    517.948    518.968    517.948
 82.070    660.000    671.661    -11.661    517.925    670.732    517.925    518.917    517.925
 82.170    668.000    653.810     14.190    517.902    652.900    517.902    518.870    517.902
 82.270    590.944    637.008    -46.064    517.877    636.113    517.877    518.826    517.877
 82.370    594.315    621.432    -27.117    517.850    620.547    517.850    518.785    517.850
 82.470    605.000    607.156     -2.156    517.822    606.278    517.822    518.744    517.822
 82.570    612.000    594.284     17.716    517.792    593.410    517.792    518.705    517.792
 82.670    573.230    582.977     -9.748    517.761    582.105    517.761    518.665    517.761
 82.770    598.584    573.413     25.171    517.728    572.540    517.728    518.626    517.728
 82.870    574.447    565.746      8.700    517.694    564.872    517.694    518.586    517.694
 82.970    541.000    560.094    -19.094    517.658    559.218    517.658    518.545    517.658
 83.070    546.000    556.525    -10.525    517.620    555.645    517.620    518.504    517.620
 83.170    557.000    555.033      1.967    517.582    554.151    517.582    518.461    517.582
 83.270    552.120    555.527     -3.407    517.541    554.640    517.541    518.418    517.541
 83.370    545.000    557.798    -12.798    517.499    556.906    517.499    518.373    517.499
 83.470    586.000    561.516     24.484    517.456    560.619    517.456    518.328    517.456
 83.570    535.000    566.222    -31.222    517.411    565.320    517.411    518.281    517.411
 83.670    565.599    571.343     -5.743    517.364    570.436    517.364    518.233    517.364
 83.770    531.734    576.218    -44.484    517.316    575.307    517.316    518.184    517.316
 83.870    561.915    580.150    -18.235    517.267    579.237    517.267    518.134    517.267
 83.970    561.877    582.498    -20.621    517.216    581.584    517.216    518.083    517.216
 84.070    541.774    582.812    -41.038    517.163    581.899    517.163    518.030    517.163
 84.170    579.000    580.956     -1.956    517.109    580.045    517.109    517.977    517.109
 84.270    548.000    577.148    -29.148    517.053    576.240    517.053    517.922    517.053
 84.370    564.878    571.864     -6.986    516.996    570.960    516.996    517.865    516.996
 84.470    557.000    565.693     -8.693    516.937    564.793    516.937    517.808    516.937
 84.570    572.731    559.214     13.517    516.876    558.318    516.876    517.749    516.876
 84.670    543.321    552.916     -9.595    516.814    552.022    516.814    517.689    516.814
 84.770    558.000    547.165     10.835    516.751    546.272    516.751    517.628    516.751
 84.870    533.000    542.193     -9.193    516.686    541.301    516.686    517.566    516.686
 84.970    509.000    538.107    -29.107    516.619    537.215    516.619    517.502    516.619
 85.070    552.000    534.909     17.091    516.551    534.015    516.551    517.438    516.551
 85.170    512.000    532.526    -20.526    516.481    531.630    516.481    517.371    516.481
 85.270    537.000    530.846      6.154    516.409    529.947    516.409    517.304    516.409
 85.370    515.000    529.746    -14.746    516.337    528.843    516.337    517.236    516.337
 85.470    461.000    529.115    -68.115    516.262    528.207    516.262    517.166    516.262
 85.570    531.000    528.868      2.132    516.186    527.955    516.186    517.095    516.186
 85.670    573.396    528.960     44.436    516.108    528.041    516.108    517.022    516.108
 85.770    555.520    529.383     26.137    516.029    528.457    516.029    516.949    516.029
 85.870    516.000    530.177    -14.177    515.948    529.244    515.948    516.874    515.948
 85.970    567.121    531.423     35.698    515.866    530.481    515.866    516.798    515.866
 86.070    555.000    533.246     21.754    515.782    532.295    515.782    516.721    515.782
 86.170    513.734    535.808    -22.075    515.697    534.847    515.697    516.643    515.697
 86.270    517.000    539.295    -22.295    515.610    538.321    515.610    516.564    515.610
 86.370    543.000    543.898     -0.898    515.521    542.910    515.521    516.483    515.521
 86.470    547.000    549.785     -2.785    515.431    548.781    515.431    516.401    515.431
 86.570    609.000    557.065     51.935    515.339    556.044    515.339    516.319    515.339
 86.670    606.000    565.745     40.255    515.246    564.704    515.246    516.235    515.246
 86.770    585.000    575.676      9.324    515.151    574.614    515.151    516.150    515.151
 86.870    551.993    586.565    -34.571    515.055    585.480    515.055    516.064    515.055
 86.970    612.000    597.914     14.086    514.957    596.806    514.957    515.977    514.957
 87.070    586.000    609.027    -23.027    514.857    607.897    514.857    515.888    514.857
 87.170    622.000    619.060      2.940    514.756    617.909    514.756    515.799    514.756
 87.270    645.858    627.092     18.766    514.653    625.923    514.653    515.709    514.653
 87.370    621.000    632.270    -11.270    514.549    631.087    514.549    515.618    514.549
 87.470    607.340    634.005    -26.665    514.443    632.810    514.443    515.526    514.443
 87.570    640.000    632.144      7.856    514.336    630.942    514.336    515.434    514.336
 87.670    684.000    627.020     56.980    514.227    625.812    514.227    515.340    514.227
 87.770    631.000    619.344     11.656    514.117    618.133    514.117    515.246    514.117
 87.870    630.000    610.033     19.967    514.005    608.818    514.005    515.150    514.005
 87.970    651.000    600.055     50.945    513.891    598.836    513.891    515.055    513.891
 88.070    593.000    590.327      2.673    513.776    589.102    513.776    514.958    513.776
 88.170    619.000    581.643     37.357    513.660    580.410    513.660    514.861    513.660
 88.270    607.000    574.629     32.371    513.542    573.387    513.542    514.764    513.542
 88.370    539.097    569.721    -30.625    513.422    568.467    513.422    514.666    513.422
 88.470    606.000    567.152     38.848    513.301    565.883    513.301    514.567    513.301
 88.570    556.000    566.957    -10.957    513.178    565.672    513.178    514.469    513.178
 88.670    590.964    568.985     21.978    513.054    567.683    513.054    514.370    513.054
 88.770    565.255    572.917     -7.662    512.928    571.595    512.928    514.271    512.928
 88.870    602.000    578.282     23.718    512.801    576.940    512.801    514.172    512.801
 88.970    614.000    584.485     29.515    512.672    583.120    512.672    514.073    512.672
 89.070    624.000    590.834     33.166    512.542    589.445    512.542    513.975    512.542
 89.170    579.000    596.579    -17.579    512.410    595.162    512.410    513.877    512.410
 89.270    616.000    600.978     15.022    512.276    599.532    512.276    513.780    512.276
 89.370    580.458    603.394    -22.937    512.142    601.914    512.142    513.683    512.142
 89.470    634.877    603.420     31.457    512.005    601.902    512.005    513.587    512.005
 89.570    576.114    600.971    -24.856    511.867    599.409    511.867    513.493    511.867
 89.670    586.287    596.296    -10.009    511.728    594.686    511.728    513.400    511.728
 89.770    557.717    589.891    -32.174    511.587    588.227    511.587    513.309    511.587
 89.870    611.000    582.364     28.636    511.445    580.642    511.445    513.219    511.445
 89.970    524.000    574.329    -50.329    511.301    572.544    511.301    513.133    511.301
 90.070    594.139    566.328     27.811    511.156    564.474    511.156    513.049    511.156
 90.170    499.000    558.794    -59.794    511.009    556.866    511.009    512.969    511.009
 90.270    546.000    552.037     -6.037    510.861    550.031    510.861    512.892    510.861
 90.370    521.000    546.242    -25.242    510.711    544.152    510.711    512.821    510.711
 90.470    535.000    541.483     -6.483    510.560    539.302    510.560    512.756    510.560
 90.570    516.000    537.741    -21.741    510.408    535.462    510.408    512.697    510.408
 90.670    512.084    534.934    -22.850    510.254    532.547    510.254    512.648    510.254
 90.770    575.322    532.946     42.375    510.098    530.439    510.098    512.611    510.098
 90.870    508.220    531.652    -23.432    509.941    529.009    509.941    512.588    509.941
 90.970    526.000    530.931     -4.931    509.783    528.132    509.783    512.583    509.783
 91.070    520.000    530.660    -10.660    509.624    527.680    509.624    512.604    509.624
 91.170    553.001    530.854     22.147    509.462    527.657    509.462    512.659    509.462
 91.270    529.578    531.492     -1.914    509.300    528.033    509.300    512.757    509.300
 91.370    498.182    532.595    -34.412    509.136    528.816    509.136    512.912    509.136
 91.470    564.574    534.243     30.331    508.971    530.068    508.971    513.141    508.971
 91.570    502.000    536.569    -34.569    508.804    531.903    508.804    513.464    508.804
 91.670    519.000    539.750    -20.750    508.636    534.474    508.636    513.905    508.636
 91.770    568.218    544.005     24.213    508.467    537.970    508.467    514.491    508.467
 91.870    521.422    549.580    -28.158    508.296    542.609    508.296    515.253    508.296
 91.970    576.541    556.738     19.802    508.124    548.624    508.124    516.221    508.124
 92.070    563.000    565.738     -2.738    507.950    556.242    507.950    517.425    507.950
 92.170    577.661    576.793      0.868    507.775    565.649    507.775    518.892    507.775
 92.270    590.000    590.047     -0.047    507.599    576.972    507.599    520.641    507.599
 92.370    618.237    605.547     12.690    507.422    590.246    507.422    522.683    507.422
 92.470    598.551    623.206    -24.656    507.243    605.389    507.243    525.013    507.243
 92.570    667.000    642.784     24.216    507.063    622.181    507.063    527.612    507.063
 92.670    653.000    663.869    -10.869    506.881    640.252    506.881    530.436    506.881
 92.770    729.131    685.877     43.254    506.698    659.084    506.698    533.423    506.698
 92.870    729.000    708.070     20.930    506.514    678.031    506.514    536.480    506.514
 92.970    773.000    729.608     43.392    506.329    696.375    506.329    539.485    506.329
 93.070    741.824    749.656     -7.831    506.142    713.432    506.142    542.285    506.142
 93.170    809.000    767.515     41.485    505.955    728.685    505.955    544.703    505.955
 93.270    762.000    782.761    -20.761    505.766    741.897    505.766    546.548    505.766
 93.370    754.562    795.280    -40.718    505.575    753.131    505.575    547.645    505.575
 93.470    844.000    805.217     38.783    505.384    762.653    505.384    547.870    505.384
 93.570    849.000    812.908     36.092    505.191    770.842    505.191    547.182    505.191
 93.670    810.000    818.816     -8.816    504.997    778.104    504.997    545.636    504.997
 93.770    853.417    823.502     29.915    504.802    784.869    504.802    543.364    504.802
 93.870    829.622    827.634      1.988    504.605    791.626    504.605    540.546    504.605
 93.970    834.000    831.960      2.040    504.408    798.930    504.408    537.373    504.408
 94.070    863.000    837.204     25.796    504.209    807.331    504.209    534.019    504.209
 94.170    866.000    843.895     22.105    504.009    817.209    504.009    530.633    504.009
 94.270    889.000    852.192     36.808    503.808    828.607    503.808    527.333    503.808
 94.370    905.000    861.773     43.227    503.606    841.115    503.606    524.207    503.606
 94.470    892.000    871.808     20.192    503.402    853.841    503.402    521.316    503.402
 94.570    949.000    881.021     67.979    503.198    865.471    503.198    518.698    503.198
 94.670    928.000    887.829     40.171    502.992    874.406    502.992    516.372    502.992
 94.770    883.349    890.577     -7.228    502.786    878.987    502.786    514.339    502.786
 94.870    890.277    887.846      2.431    502.578    877.808    502.578    512.588    502.578
 94.970    918.389    878.793     39.595    502.369    870.046    502.369    511.097    502.369
 95.070    842.586    863.382    -20.797    502.159    855.691    502.159    509.841    502.159
 95.170    834.012    842.402     -8.390    501.948    835.559    501.948    508.788    501.948
 95.270    832.000    817.283     14.717    501.736    811.114    501.736    507.909    501.736
 95.370    812.000    789.833     22.167    501.523    784.190    501.523    507.173    501.523
 95.470    747.000    761.993    -14.993    501.309    756.757    501.309    506.554    501.309
 95.570    746.000    735.665     10.335    501.094    730.739    501.094    506.029    501.094
 95.670    759.935    712.665     47.269    500.878    707.973    500.878    505.578    500.878
 95.770    717.000    694.595     22.405    500.661    690.075    500.661    505.186    500.661
 95.870    708.000    682.853     25.147    500.443    678.457    500.443    504.838    500.443
 95.970    645.000    678.638    -33.638    500.224    674.328    500.224    504.526    500.224
 96.070    684.000    682.955      1.045    500.004    678.701    500.004    504.243    500.004
 96.170    710.000    696.618     13.382    499.784    692.397    499.784    503.980    499.784
 96.270    771.821    720.239     51.581    499.562    716.029    499.562    503.737    499.562
 96.370    783.017    754.182     28.834    499.339    749.964    499.339    503.511    499.339
 96.470    854.320    798.485     55.836    499.116    794.242    499.116    503.301    499.116
 96.570    844.000    852.766     -8.766    498.891    848.485    498.891    503.103    498.891
 96.670    901.190    916.101    -14.911    498.666    911.770    498.666    502.917    498.666
 96.770    939.000    986.938    -47.938    498.440    982.544    498.440    502.743    498.440
 96.870   1063.000   1063.025     -0.025    498.213   1058.559    498.213    502.582    498.213
 96.970   1171.936   1141.396     30.540    497.986   1136.848    497.986    502.431    497.986
 97.070   1207.000   1218.408    -11.408    497.757   1213.769    497.757    502.293    497.757
 97.170   1312.000   1289.870     22.130    497.528   1285.131    497.528    502.168    497.528
 97.270   1360.000   1351.288      8.712    497.298   1346.441    497.298    502.055    497.298
 97.370   1431.000   1398.299     32.701    497.067   1393.334    497.067    501.956    497.067
 97.470   1473.000   1427.282     45.718    496.836   1422.187    496.836    501.873    496.836
 97.570   1428.631   1436.016     -7.385    496.603   1430.778    496.603    501.805    496.603
 97.670   1354.125   1424.134    -70.009    496.370   1418.734    496.370    501.756    496.370
 97.770   1463.233   1393.142     70.091    496.137   1387.558    496.137    501.727    496.137
 97.870   1325.000   1346.020    -21.020    495.903   1340.226    495.903    501.722    495.903
 97.970   1332.000   1286.637     45.363    495.668   1280.601    495.668    501.744    495.668
 98.070   1285.000   1219.209     65.791    495.432   1212.893    495.432    501.798    495.432
 98.170   1141.000   1147.914     -6.914    495.196   1141.273    495.196    501.892    495.196
 98.270   1086.000   1076.641      9.359    494.959   1069.622    494.959    502.036    494.959
 98.370   1053.000   1008.836     44.164    494.722   1001.372    494.722    502.241    494.722
 98.470    944.000    947.422     -3.422    494.484    939.432    494.484    502.525    494.484
 98.570    909.429    894.782     14.647    494.245    886.162    494.245    502.909    494.245
 98.670    852.000    852.781     -0.781    494.006    843.401    494.006    503.421    494.006
 98.770    797.000    822.829    -25.829    493.766    812.524    493.766    504.097    493.766
 98.870    794.000    805.960    -11.960    493.526    794.521    493.526    504.981    493.526
 98.970    810.000    802.912      7.088    493.286    790.078    493.286    506.125    493.286
 99.070    801.000    814.194    -13.194    493.045    799.640    493.045    507.594    493.045
 99.170    786.000    840.109    -54.109    492.803    823.439    492.803    509.461    492.803
 99.270    838.000    880.794    -42.794    492.561    861.530    492.561    511.806    492.561
 99.370    929.000    936.116     -7.116    492.319    913.692    492.319    514.718    492.319
 99.470   1077.000   1005.607     71.393    492.076    979.368    492.076    518.287    492.076
 99.570   1123.000   1088.381     34.619    491.833   1057.583    491.833    522.603    491.833
 99.670   1161.000   1183.020    -22.020    491.590   1146.839    491.590    527.745    491.590
 99.770   1307.717   1287.484     20.233    491.346   1245.030    491.346    533.780    491.346
 99.870   1402.781   1399.042      3.738    491.102   1349.387    491.102    540.749    491.102
 99.970   1528.000   1514.264     13.736    490.858   1456.466    490.858    548.662    490.858
100.070   1581.547   1629.090    -47.543    490.613   1562.241    490.613    557.487    490.613
100.170   1763.000   1739.041     23.959    490.368   1662.312    490.368    567.145    490.368
100.270   1787.388   1839.562    -52.174    490.123   1752.255    490.123    577.503    490.123
100.370   1953.000   1926.437     26.563    489.878   1828.052    489.878    588.362    489.878
100.470   2060.000   1996.155     63.845    489.632   1886.454    489.632    599.459    489.632
100.570   2043.904   2046.070     -2.166    489.386   1925.152    489.386    610.455    489.386
100.670   2111.000   2074.383     36.617    489.141   1942.754    489.141    620.941    489.141
100.770   2159.705   2080.071     79.634    488.895   1938.712    488.895    630.443    488.895
100.870   2053.605   2062.967     -9.362    488.648   1913.376    488.648    638.443    488.648
100.970   2078.000   2023.992     54.008    488.402   1868.179    488.402    644.427    488.402
101.070   2036.000   1965.390     70.610    488.156   1805.808    488.156    647.952    488.156
101.170   1958.000   1890.743     67.257    487.910   1730.140    487.910    648.725    487.910
101.270   1759.635   1804.661    -45.026    487.663   1645.865    487.663    646.663    487.663
101.370   1756.000   1712.241     43.759    487.417   1557.937    487.417    641.913    487.417
101.470   1548.000   1618.485    -70.485    487.171   1471.014    487.171    634.820    487.171
101.570   1531.000   1527.830      3.170    486.925   1389.062    486.925    625.855    486.925
101.670   1402.000   1443.833    -41.833    486.679   1315.118    486.679    615.539    486.679
101.770   1398.530   1369.011     29.519    486.432   1251.190    486.432    604.383    486.432
101.870   1273.897   1304.794    -30.896    486.187   1198.252    486.187    592.844    486.187
101.970   1227.000   1251.556    -24.556    485.941   1156.289    485.941    581.311    485.941
102.070   1219.000   1208.712     10.288    485.695   1124.399    485.695    570.101    485.695
102.170   1185.000   1174.849     10.151    485.450   1100.929    485.450    559.456    485.450
102.270   1085.911   1147.915    -62.004    485.204   1083.644    485.204    549.557    485.204
102.370   1079.000   1125.439    -46.439    484.959   1069.957    484.959    540.521    484.959
102.470   1100.000   1104.806     -4.806    484.715   1057.189    484.715    532.412    484.715
102.570   1050.000   1083.582    -33.582    484.470   1042.885    484.470    525.248    484.470
102.670    996.902   1059.821    -62.919    484.226   1025.120    484.226    519.009    484.226
102.770   1040.000   1032.302      7.698    483.982   1002.721    483.982    513.647    483.982
102.870    953.000   1000.611    -47.611    483.739    975.343    483.739    509.091    483.739
102.970    960.000    965.047     -5.047    483.496    943.370    483.496    505.256    483.496
103.070    939.843    926.425     13.418    483.253    907.706    483.253    502.053    483.253
103.170    908.542    885.854     22.689    483.011    869.550    483.011    499.391    483.011
103.270    878.000    844.544     33.456    482.769    830.200    482.769    497.184    482.769
103.370    788.000    803.678    -15.678    482.528    790.918    482.528    495.354    482.528
103.470    790.000    764.318     25.682    482.287    752.836    482.287    493.829    482.287
103.570    766.051    727.351     38.700    482.047    716.901    482.047    492.549    482.047
103.670    724.000    693.450     30.550    481.807    683.839    481.807    491.464    481.807
103.770    626.000    663.064    -37.064    481.568    654.139    481.568    490.532    481.568
103.870    644.228    636.423      7.806    481.330    628.064    481.330    489.721    481.330
103.970    649.000    613.550     35.450    481.092    605.665    481.092    489.003    481.092
104.070    579.426    594.321    -14.894    480.855    586.837    480.855    488.360    480.855
104.170    614.000    578.469     35.531    480.618    571.329    480.618    487.775    480.618
104.270    568.000    565.648      2.352    480.383    558.806    480.383    487.237    480.383
104.370    538.775    555.472    -16.697    480.148    548.892    480.148    486.737    480.148
104.470    558.000    547.550     10.450    479.914    541.201    479.914    486.269    479.914
104.570    573.475    541.507     31.968    479.680    535.364    479.680    485.828    479.680
104.670    554.000    537.011     16.989    479.448    531.052    479.448    485.409    479.448
104.770    538.000    533.778      4.222    479.216    527.984    479.216    485.011    479.216
104.870    596.000    531.581     64.419    478.986    525.935    478.986    484.630    478.986
104.970    571.000    530.249     40.751    478.756    524.737    478.756    484.266    478.756
105.070    553.000    529.668     23.332    478.527    524.275    478.527    483.917    478.527
105.170    544.000    529.773     14.227    478.299    524.487    478.299    483.581    478.299
105.270    563.000    530.547     32.453    478.072    525.355    478.072    483.257    478.072
105.370    527.000    532.011     -5.011    477.847    526.904    477.847    482.946    477.847
105.470    547.742    534.223     13.520    477.622    529.190    477.622    482.645    477.622
105.570    550.000    537.267     12.733    477.398    532.299    477.398    482.355    477.398
105.670    572.570    541.248     31.322    477.176    536.335    477.176    482.074    477.176
105.770    528.140    546.270    -18.130    476.955    541.405    476.955    481.803    476.955
105.870    529.000    552.432    -23.432    476.735    547.606    476.735    481.541    476.735
105.970    548.000    559.806    -11.806    476.516    555.012    476.516    481.288    476.516
106.070    557.217    568.425    -11.207    476.299    563.654    476.299    481.043    476.299
106.170    549.419    578.267    -28.848    476.082    573.514    476.082    480.806    476.082
106.270    597.000    589.251      7.749    475.867    584.509    475.867    480.577    475.867
106.370    575.571    601.222    -25.651    475.654    596.484    475.654    480.356    475.654
106.470    650.000    613.955     36.045    475.442    609.215    475.442    480.142    475.442
106.570    593.000    627.153    -34.153    475.231    622.406    475.231    479.935    475.231
106.670    681.213    640.456     40.757    475.022    635.698    475.022    479.736    475.022
106.770    574.000    653.453    -79.453    474.814    648.677    474.814    479.544    474.814
106.870    699.698    665.700     33.999    474.608    660.901    474.608    479.359    474.608
106.970    719.000    676.746     42.254    474.403    671.920    474.403    479.182    474.403
107.070    630.000    686.175    -56.175    474.200    681.318    474.200    479.012    474.200
107.170    683.258    693.660    -10.402    473.999    688.767    473.999    478.849    473.999
107.270    643.000    699.011    -56.011    473.799    694.076    473.799    478.693    473.799
107.370    654.000    702.220    -48.220    473.601    697.239    473.601    478.545    473.601
107.470    695.000    703.471     -8.471    473.404    698.439    473.404    478.404    473.404
107.570    717.000    703.109     13.891    473.210    698.020    473.210    478.271    473.210
107.670    656.000    701.584    -45.584    473.017    696.431    473.017    478.145    473.017
107.770    672.000    699.379    -27.379    472.826    694.157    472.826    478.028    472.826
107.870    663.000    696.954    -33.954    472.637    691.657    472.637    477.919    472.637
107.970    678.549    694.695    -16.146    472.450    689.316    472.450    477.818    472.450
108.070    718.632    692.884     25.748    472.264    687.416    472.264    477.725    472.264
108.170    696.988    691.680      5.308    472.081    686.116    472.081    477.642    472.081
108.270    706.525    691.111     15.414    471.900    685.444    471.900    477.568    471.900
108.370    708.000    691.075     16.925    471.721    685.297    471.721    477.503    471.721
108.470    686.000    691.344     -5.344    471.544    685.452    471.544    477.443    471.544
108.570    695.000    691.602      3.398    471.369    685.583    471.369    477.398    471.369
108.670    705.000    691.449     13.551    471.196    685.294    471.196    477.365    471.196
108.770    713.605    690.466     23.139    471.025    684.165    471.025    477.343    471.025
108.870    729.000    688.266     40.734    470.857    681.810    470.857    477.332    470.857
108.970    706.000    684.552     21.448    470.691    677.930    470.691    477.334    470.691
109.070    644.000    679.161    -35.161    470.527    672.361    470.527    477.349    470.527
109.170    664.000    672.087     -8.087    470.365    665.098    470.365    477.378    470.365
109.270    626.000    663.470    -37.470    470.206    656.279    470.206    477.421    470.206
109.370    619.000    653.562    -34.562    470.050    646.156    470.050    477.480    470.050
109.470    562.000    642.683    -80.683    469.895    635.048    469.895    477.553    469.895
109.570    598.000    631.157    -33.157    469.744    623.288    469.744    477.635    469.744
109.670    586.000    619.387    -33.387    469.595    611.257    469.595    477.745    469.595
109.770    593.000    607.717    -14.717    469.448    599.308    469.448    477.875    469.448
109.870    609.000    596.426     12.574    469.304    587.719    469.304    478.027    469.304
109.970    591.174    585.766      5.408    469.163    576.741    469.163    478.203    469.163
110.070    571.324    575.942     -4.618    469.024    566.574    469.024    478.404    469.024
110.170    581.213    567.103     14.110    468.888    557.367    468.888    478.634    468.888
110.270    598.000    559.347     38.653    468.755    549.215    468.755    478.895    468.755
110.370    578.000    552.721     25.279    468.625    542.161    468.625    479.191    468.625
110.470    565.395    547.232     18.163    468.498    536.205    468.498    479.528    468.498
110.570    550.000    542.847      7.153    468.373    531.311    468.373    479.912    468.373
110.670    585.000    539.510     45.490    468.252    527.411    468.252    480.350    468.252
110.770    529.000    537.142     -8.142    468.133    524.422    468.133    480.853    468.133
110.870    522.000    535.659    -13.659    468.018    522.243    468.018    481.431    468.018
110.970    566.725    534.972     31.752    467.905    520.773    467.905    482.101    467.905
111.070    591.000    534.999     56.001    467.796    519.910    467.796    482.880    467.796
111.170    516.000    535.663    -19.663    467.690    519.555    467.690    483.792    467.690
111.270    527.000    536.905     -9.905    467.587    519.619    467.587    484.866    467.587
111.370    498.345    538.678    -40.333    467.487    520.024    467.487    486.133    467.487
111.470    562.554    540.953     21.601    467.391    520.699    467.391    487.637    467.391
111.570    571.000    543.721     27.279    467.298    521.587    467.298    489.423    467.298
111.670    574.636    546.990     27.646    467.208    522.641    467.208    491.548    467.208
111.770    540.000    550.789    -10.789    467.122    523.824    467.122    494.076    467.122
111.870    589.490    555.164     34.327    467.039    525.113    467.039    497.079    467.039
111.970    573.000    560.182     12.818    466.960    526.492    466.960    500.639    466.960
112.070    560.582    565.928     -5.346    466.884    527.958    466.884    504.842    466.884
112.170    601.951    572.501     29.449    466.812    529.517    466.812    509.784    466.812
112.270    616.000    580.015     35.985    466.743    531.185    466.743    515.561    466.743
112.370    570.000    588.592    -18.592    466.679    532.985    466.679    522.272    466.679
112.470    591.628    598.360     -6.732    466.617    534.949    466.617    530.015    466.617
112.570    618.000    609.448      8.552    466.560    537.115    466.560    538.879    466.560
112.670    604.000    621.984    -17.984    466.507    539.532    466.507    548.943    466.507
112.770    628.000    636.091     -8.091    466.457    542.262    466.457    560.269    466.457
112.870    608.385    651.890    -43.505    466.411    545.384    466.411    572.899    466.411
112.970    608.000    669.494    -61.494    466.370    548.998    466.370    586.846    466.370
113.070    710.000    689.015     20.985    466.332    553.238    466.332    602.087    466.332
113.170    729.494    710.567     18.926    466.298    558.276    466.298    618.566    466.298
113.270    683.000    734.279    -51.279    466.269    564.344    466.269    636.179    466.269
113.370    746.000    760.301    -14.301    466.244    571.741    466.244    654.775    466.244
113.470    786.000    788.825     -2.825    466.222    580.863    466.222    674.152    466.222
113.570    841.000    820.101     20.899    466.206    592.217    466.206    694.053    466.206
113.670    878.000    854.463     23.537    466.193    606.453    466.193    714.161    466.193
113.770    939.000    892.355     46.645    466.185    624.391    466.185    734.101    466.185
113.870    918.299    934.359    -16.061    466.181    647.048    466.181    753.436    466.181
113.970    984.000    981.226      2.774    466.182    675.665    466.182    771.678    466.182
114.070    957.000   1033.911    -76.911    466.187    711.730    466.187    788.290    466.187
114.170   1112.000   1093.606     18.394    466.196    756.995    466.196    802.716    466.196
114.270   1112.000   1161.782    -49.782    466.211    813.473    466.211    814.410    466.211
114.370   1264.464   1240.213     24.251    466.230    883.432    466.230    822.880    466.230
114.470   1426.000   1330.996     95.004    466.253    969.354    466.253    827.740    466.253
114.570   1451.000   1436.538     14.462    466.282   1073.879    466.282    828.755    466.282
114.670   1556.000   1559.498     -3.498    466.315   1199.716    466.315    825.878    466.315
114.770   1685.678   1702.682    -17.004    466.353   1349.527    466.353    819.250    466.353
114.870   1926.754   1868.870     57.884    466.396   1525.780    466.396    809.185    466.396
114.970   2002.610   2060.609    -58.000    466.444   1730.577    466.444    796.127    466.444
115.070   2190.664   2279.972    -89.307    466.497   1965.465    466.497    780.603    466.497
115.170   2515.764   2528.303    -12.538    466.555   2231.235    466.555    763.170    466.555
115.270   2805.000   2805.988     -0.988    466.618   2527.722    466.618    744.376    466.618
115.370   3186.568   3112.241     74.326    466.686   2853.628    466.686    724.738    466.686
115.470   3352.162   3444.941    -92.779    466.760   3206.369    466.760    704.719    466.760
115.570   3689.000   3800.514   -111.514    466.838   3581.967    466.838    684.726    466.838
115.670   4259.364   4173.881     85.483    466.923   3975.000    466.923    665.105    466.923
115.770   4350.000   4558.468   -208.468    467.012   4378.609    467.012    646.143    467.012
115.870   4750.000   4946.288   -196.288    467.107   4784.578    467.107    628.071    467.107
115.970   5287.767   5328.087    -40.321    467.207   5183.481    467.207    611.065    467.207
116.070   5583.000   5693.580   -110.580    467.313   5564.905    467.313    595.251    467.313
116.170   5950.000   6031.762    -81.762    467.425   5917.770    467.425    580.709    467.425
116.270   6465.905   6331.347    134.558    467.542   6230.749    467.542    567.480    467.542
116.370   6680.192   6581.326     98.867    467.665   6492.830    467.665    555.566    467.665
116.470   6690.000   6771.673    -81.673    467.794   6694.015    467.794    544.941    467.794
116.570   6929.000   6894.176     34.824    467.928   6826.137    467.928    535.552    467.928
116.670   6975.000   6943.259     31.741    468.069   6883.691    468.069    527.328    468.069
116.770   6831.066   6916.524    -85.458    468.215   6864.360    468.215    520.184    468.215
116.870   6955.000   6815.091    139.909    468.368   6769.349    468.368    514.026    468.368
116.970   6633.000   6643.428    -10.428    468.526   6603.222    468.526    508.756    468.526
117.070   6408.000   6408.813     -0.813    468.690   6373.349    468.690    504.276    468.690
117.170   6212.000   6120.567     91.433    468.861   6089.146    468.861    500.489    468.861
117.270   5644.000   5789.246   -145.246    469.038   5761.256    469.038    497.304    469.038
117.370   5228.000   5425.897   -197.897    469.221   5400.811    469.221    494.638    469.221
117.470   5061.000   5041.465     19.535    469.411   5018.832    469.411    492.413    469.411
117.570   4616.000   4646.332    -30.332    469.607   4625.770    469.607    490.561    469.607
117.670   4287.000   4249.980     37.020    469.809   4231.168    469.809    489.023    469.809
117.770   3976.000   3860.745    115.255    470.018   3843.415    470.018    487.746    470.018
117.870   3480.969   3485.660     -4.690    470.234   3469.591    470.234    486.686    470.234
117.970   3344.000   3130.368    213.632    470.456   3115.378    470.456    485.808    470.456
118.070   2944.000   2799.110    144.890    470.685   2785.049    470.685    485.079    470.685
118.170   2567.000   2494.776     72.224    470.920   2481.522    470.920    484.474    470.920
118.270   2272.677   2219.009     53.668    471.162   2206.462    471.162    483.974    471.162
118.370   2023.000   1972.344     50.656    471.412   1960.424    471.412    483.561    471.412
118.470   1807.000   1754.386     52.614    471.668   1743.026    471.668    483.222    471.668
118.570   1552.000   1563.980    -11.980    471.931   1553.126    471.931    482.946    471.931
118.670   1422.665   1399.402     23.263    472.201   1389.009    472.201    482.725    472.201
118.770   1230.903   1258.532    -27.629    472.479   1248.562    472.479    482.552    472.479
118.870   1080.000   1139.013    -59.013    472.763   1129.435    472.763    482.422    472.763
118.970    991.000   1038.398    -47.398    473.055   1029.183    473.055    482.331    473.055
119.070    953.000    954.262     -1.262    473.354    945.386    473.354    482.275    473.354
119.170    942.531    884.293     58.238    473.661    875.734    473.661    482.251    473.661
119.270    848.447    826.355     22.091    473.975    818.093    473.975    482.258    473.975
119.370    817.389    778.529     38.860    474.296    770.545    474.296    482.294    474.296
119.470    757.000    739.126     17.874    474.625    731.401    474.625    482.358    474.625
119.570    709.150    706.692      2.458    474.962    699.210    474.962    482.449    474.962
119.670    675.709    679.999     -4.290    475.306    672.742    475.306    482.566    475.306
119.770    639.000    658.021    -19.021    475.659    650.972    475.659    482.709    475.659
119.870    643.000    639.918      3.082    476.018    633.060    476.018    482.877    476.018
119.970    638.000    625.005     12.995    476.386    618.322    476.386    483.070    476.386
120.070    642.605    612.734     29.871    476.762    606.207    476.762    483.289    476.762
120.170    581.000    602.666    -21.666    477.146    596.279    477.146    483.533    477.146
120.270    561.232    594.455    -33.224    477.538    588.189    477.538    483.804    477.538
120.370    614.000    587.828     26.172    477.938    581.665    477.938    484.102    477.938
120.470    560.000    582.571    -22.571    478.346    576.492    478.346    484.427    478.346
120.570    596.000    578.518     17.482    478.763    572.503    478.763    484.779    478.763
120.670    607.419    575.538     31.881    479.187    569.568    479.187    485.161    479.187
120.770    555.478    573.531    -18.052    479.621    567.583    479.621    485.572    479.621
120.870    579.000    572.416      6.584    480.062    566.469    480.062    486.013    480.062
120.970    605.000    572.129     32.871    480.513    566.162    480.513    486.485    480.513
121.070    577.000    572.616      4.384    480.972    566.606    480.972    486.989    480.972
121.170    560.773    573.831    -13.058    481.439    567.754    481.439    487.524    481.439
121.270    558.000    575.727    -17.727    481.916    569.561    481.916    488.091    481.916
121.370    582.007    578.258      3.749    482.401    571.980    482.401    488.690    482.401
121.470    587.000    581.374      5.626    482.895    574.962    482.895    489.320    482.895
121.570    581.000    585.020     -4.020    483.398    578.452    483.398    489.981    483.398
121.670    566.000    589.132    -23.132    483.910    582.387    483.910    490.672    483.910
121.770    569.601    593.636    -24.035    484.432    586.697    484.432    491.390    484.432
121.870    590.000    598.451     -8.451    484.962    591.301    484.962    492.135    484.962
121.970    615.000    603.485     11.515    485.502    596.109    485.502    492.903    485.502
122.070    631.000    608.636     22.364    486.051    601.023    486.051    493.691    486.051
122.170    612.000    613.795     -1.795    486.609    605.938    486.609    494.496    486.609
122.270    664.000    618.845     45.155    487.177    610.741    487.177    495.315    487.177
122.370    587.000    623.668    -36.668    487.754    615.317    487.754    496.141    487.754
122.470    579.743    628.141    -48.398    488.341    619.551    488.341    496.970    488.341
122.570    596.000    632.149    -36.149    488.938    623.331    488.938    497.796    488.938
122.670    620.000    635.583    -15.583    489.545    626.557    489.545    498.613    489.545
122.770    632.000    638.354     -6.354    490.161    629.144    490.161    499.415    490.161
122.870    643.000    640.391      2.609    490.787    631.028    490.787    500.196    490.787
122.970    627.000    641.652    -14.652    491.423    632.174    491.423    500.948    491.423
123.070    612.000    642.123    -30.123    492.069    632.572    492.069    501.667    492.069
123.170    645.000    641.819      3.181    492.726    632.242    492.726    502.349    492.726
123.270    666.215    640.780     25.435    493.392    631.228    493.392    502.990    493.392
123.370    602.201    639.069    -36.869    494.069    629.593    494.069    503.590    494.069
123.470    637.000    636.763      0.237    494.756    627.413    494.756    504.149    494.756
123.570    611.000    633.949    -22.949    495.453    624.773    495.453    504.670    495.453
123.670    688.000    630.718     57.282    496.161    621.761    496.161    505.158    496.161
123.770    598.000    627.165    -29.165    496.880    618.464    496.880    505.616    496.880
123.870    650.056    623.378     26.678    497.609    614.968    497.609    506.052    497.609
123.970    653.000    619.441     33.559    498.349    611.349    498.349    506.471    498.349
124.070    601.000    615.430    -14.430    499.100    607.676    499.100    506.881    499.100
124.170    617.000    611.411      5.589    499.862    604.009    499.862    507.287    499.862
124.270    603.000    607.435     -4.435    500.634    600.396    500.634    507.695    500.634
124.370    640.000    603.546     36.454    501.418    596.873    501.418    508.110    501.418
124.470    632.000    599.773     32.227    502.213    593.464    502.213    508.536    502.213
124.570    584.000    596.134    -12.134    503.019    590.186    503.019    508.979    503.019
124.670    580.912    592.637    -11.725    503.836    587.042    503.836    509.442    503.836
124.770    614.939    589.283     25.656    504.664    584.029    504.664    509.927    504.664
124.870    601.000    586.073     14.927    505.504    581.147    505.504    510.437    505.504
124.970    600.000    582.995     17.005    506.356    578.384    506.356    510.973    506.356
