neutron_powder_diffraction_0197
R_wp: 3.975
Temperature (K): 1074.000
Counts: 83797.00
Wavelength (Ã…): 2.52098
COMMENTS
Test file for demonstrating the .xyy file format in Reel1.0
END OF HEADER
   tth       Y_obs     Y_calc      Y_res    Background    Phase_1_Nuc    Phase_1_Mag    Phase_2_Nuc    Phase_2_Mag
  9.970    607.000    574.240     32.760    573.520    574.177    573.520    573.583    573.520
 10.070    603.308    574.362     28.946    573.566    574.298    573.566    573.629    573.566
 10.170    543.910    574.473    -30.563    573.607    574.409    573.607    573.670    573.607
 10.270    616.000    574.587     41.413    573.642    574.522    573.642    573.705    573.642
 10.370    604.000    574.707     29.293    573.671    574.642    573.671    573.735    573.671
 10.470    641.000    574.837     66.163    573.695    574.772    573.695    573.760    573.695
 10.570    602.000    574.981     27.019    573.714    574.916    573.714    573.778    573.714
 10.670    586.000    575.145     10.855    573.727    575.079    573.727    573.792    573.727
 10.770    530.906    575.334    -44.427    573.735    575.268    573.735    573.800    573.735
 10.870    568.925    575.557     -6.632    573.738    575.491    573.738    573.803    573.738
 10.970    617.223    575.829     41.394    573.735    575.762    573.735    573.801    573.735
 11.070    593.723    576.166     17.557    573.727    576.099    573.727    573.794    573.727
 11.170    551.277    576.596    -25.319    573.715    576.528    573.715    573.781    573.715
 11.270    563.036    577.159    -14.124    573.697    577.091    573.697    573.764    573.697
 11.370    586.000    577.928      8.072    573.674    577.859    573.674    573.741    573.674
 11.470    548.000    579.063    -31.063    573.646    578.991    573.646    573.715    573.646
 11.570    600.000    580.995     19.005    573.614    580.922    573.614    573.683    573.614
 11.670    563.607    584.898    -21.292    573.576    584.822    573.576    573.646    573.576
 11.770    623.000    593.353     29.647    573.534    593.271    573.534    573.604    573.534
 11.870    653.000    610.297     42.703    573.487    610.206    573.487    573.557    573.487
 11.970    680.000    638.542     41.458    573.435    638.433    573.435    573.506    573.435
 12.070    625.033    674.269    -49.236    573.379    674.140    573.379    573.450    573.379
 12.170    677.000    702.106    -25.106    573.318    701.961    573.318    573.389    573.318
 12.270    655.000    702.947    -47.947    573.253    702.801    573.253    573.324    573.253
 12.370    633.076    675.988    -42.912    573.183    675.857    573.183    573.255    573.183
 12.470    637.000    639.996     -2.996    573.108    639.885    573.108    573.181    573.108
 12.570    607.000    611.016     -4.016    573.029    610.922    573.029    573.102    573.029
 12.670    598.189    593.388      4.801    572.946    593.303    572.946    573.019    572.946
 12.770    579.000    584.477     -5.477    572.859    584.397    572.859    572.932    572.859
 12.870    568.000    580.299    -12.299    572.767    580.221    572.767    572.841    572.767
 12.970    562.713    578.182    -15.469    572.671    578.104    572.671    572.745    572.671
 13.070    550.000    576.897    -26.897    572.571    576.821    572.571    572.646    572.571
 13.170    585.513    575.991      9.523    572.467    575.914    572.467    572.542    572.467
 13.270    541.000    575.296    -34.296    572.359    575.219    572.359    572.434    572.359
 13.370    561.000    574.738    -13.738    572.246    574.661    572.246    572.322    572.246
 13.470    552.000    574.275    -22.275    572.130    574.198    572.130    572.206    572.130
 13.570    615.000    573.880     41.120    572.010    573.803    572.010    572.086    572.010
 13.670    557.585    573.536    -15.950    571.886    573.458    571.886    571.963    571.886
 13.770    565.000    573.228     -8.228    571.758    573.150    571.758    571.835    571.758
 13.870    593.388    572.947     20.441    571.626    572.869    571.626    571.704    571.626
 13.970    527.000    572.688    -45.688    571.491    572.609    571.491    571.569    571.491
 14.070    572.000    572.444     -0.444    571.352    572.365    571.352    571.430    571.352
 14.170    600.000    572.212     27.788    571.209    572.133    571.209    571.288    571.209
 14.270    531.000    571.990    -40.990    571.063    571.910    571.063    571.142    571.063
 14.370    556.000    571.774    -15.774    570.913    571.695    570.913    570.992    570.913
 14.470    521.000    571.564    -50.564    570.759    571.484    570.759    570.839    570.759
 14.570    598.708    571.358     27.350    570.603    571.277    570.603    570.683    570.603
 14.670    631.000    571.157     59.843    570.442    571.076    570.442    570.523    570.442
 14.770    567.000    570.962     -3.962    570.278    570.875    570.278    570.365    570.278
 14.870    559.000    570.763    -11.763    570.111    570.674    570.111    570.200    570.111
 14.970    587.329    570.563     16.767    569.941    570.473    569.941    570.030    569.941
 15.070    592.000    570.363     21.637    569.767    570.273    569.767    569.857    569.767
 15.170    579.000    570.162      8.838    569.590    570.072    569.590    569.680    569.590
 15.270    565.000    569.961     -4.961    569.410    569.870    569.410    569.501    569.410
 15.370    556.032    569.759    -13.727    569.227    569.668    569.227    569.318    569.227
 15.470    549.000    569.556    -20.556    569.041    569.464    569.041    569.132    569.041
 15.570    555.000    569.351    -14.351    568.852    569.259    568.852    568.944    568.852
 15.670    588.000    569.146     18.854    568.659    569.053    568.659    568.752    568.659
 15.770    592.078    568.940     23.138    568.464    568.847    568.464    568.557    568.464
 15.870    520.000    568.731    -48.731    568.266    568.638    568.266    568.359    568.266
 15.970    539.503    568.520    -29.017    568.065    568.426    568.065    568.159    568.065
 16.070    526.000    568.307    -42.307    567.861    568.213    567.861    567.955    567.861
 16.170    595.811    568.093     27.718    567.654    567.997    567.654    567.749    567.654
 16.270    548.821    567.876    -19.055    567.444    567.780    567.444    567.540    567.444
 16.370    530.000    567.657    -37.657    567.232    567.561    567.232    567.328    567.232
 16.470    535.969    567.437    -31.468    567.017    567.340    567.017    567.114    567.017
 16.570    605.582    567.214     38.367    566.800    567.117    566.800    566.897    566.800
 16.670    579.540    566.990     12.550    566.579    566.891    566.579    566.678    566.579
 16.770    568.000    566.763      1.237    566.357    566.664    566.357    566.455    566.357
 16.870    591.000    566.534     24.466    566.131    566.435    566.131    566.231    566.131
 16.970    572.000    566.304      5.696    565.904    566.204    565.904    566.004    565.904
 17.070    610.541    566.072     44.470    565.673    565.971    565.673    565.774    565.673
 17.170    546.000    565.837    -19.837    565.441    565.736    565.441    565.542    565.441
 17.270    518.144    565.603    -47.459    565.206    565.501    565.206    565.308    565.206
 17.370    532.000    565.365    -33.365    564.968    565.262    564.968    565.071    564.968
 17.470    567.545    565.124      2.421    564.729    565.021    564.729    564.832    564.729
 17.570    584.688    564.882     19.806    564.487    564.778    564.487    564.591    564.487
 17.670    556.000    564.638     -8.638    564.243    564.533    564.243    564.347    564.243
 17.770    540.000    564.392    -24.392    563.997    564.287    563.997    564.102    563.997
 17.870    570.000    564.144      5.856    563.748    564.038    563.748    563.854    563.748
 17.970    605.980    563.894     42.086    563.497    563.787    563.497    563.604    563.497
 18.070    569.000    563.643      5.357    563.245    563.535    563.245    563.352    563.245
 18.170    564.000    563.389      0.611    562.990    563.281    562.990    563.098    562.990
 18.270    578.000    563.134     14.866    562.733    563.025    562.733    562.842    562.733
 18.370    575.000    562.878     12.122    562.475    562.768    562.475    562.585    562.475
 18.470    550.000    562.621    -12.621    562.214    562.510    562.214    562.325    562.214
 18.570    539.883    562.362    -22.479    561.952    562.250    561.952    562.063    561.952
 18.670    537.256    562.101    -24.845    561.687    561.988    561.687    561.799    561.687
 18.770    601.191    561.838     39.353    561.421    561.725    561.421    561.534    561.421
 18.870    514.870    561.574    -46.703    561.153    561.460    561.153    561.267    561.153
 18.970    552.000    561.308     -9.308    560.883    561.193    560.883    560.998    560.883
 19.070    571.000    561.040      9.960    560.612    560.925    560.612    560.728    560.612
 19.170    564.000    560.772      3.228    560.339    560.655    560.339    560.455    560.339
 19.270    501.000    560.502    -59.502    560.064    560.384    560.064    560.181    560.064
 19.370    602.000    560.230     41.770    559.787    560.112    559.787    559.906    559.787
 19.470    531.307    559.957    -28.650    559.509    559.838    559.509    559.629    559.509
 19.570    531.254    559.684    -28.430    559.230    559.563    559.230    559.350    559.230
 19.670    549.000    559.411    -10.411    558.949    559.287    558.949    559.072    558.949
 19.770    569.000    559.137      9.863    558.666    559.011    558.666    558.792    558.666
 19.870    564.461    558.873      5.588    558.382    558.746    558.382    558.509    558.382
 19.970    540.962    558.605    -17.643    558.096    558.477    558.096    558.224    558.096
 20.070    544.000    558.327    -14.327    557.810    558.198    557.810    557.939    557.810
 20.170    520.417    558.047    -37.630    557.521    557.917    557.521    557.652    557.521
 20.270    509.829    557.766    -47.937    557.232    557.635    557.232    557.363    557.232
 20.370    528.000    557.485    -29.485    556.941    557.352    556.941    557.073    556.941
 20.470    536.000    557.202    -21.202    556.649    557.069    556.649    556.783    556.649
 20.570    561.250    556.920      4.331    556.355    556.784    556.355    556.490    556.355
 20.670    531.000    556.636    -25.636    556.061    556.500    556.061    556.197    556.061
 20.770    546.000    556.352    -10.352    555.765    556.214    555.765    555.903    555.765
 20.870    565.000    556.068      8.932    555.468    555.929    555.468    555.607    555.468
 20.970    552.000    555.783     -3.783    555.170    555.643    555.170    555.310    555.170
 21.070    526.000    555.498    -29.498    554.871    555.356    554.871    555.013    554.871
 21.170    566.684    555.213     11.470    554.571    555.070    554.571    554.714    554.571
 21.270    529.000    554.928    -25.928    554.270    554.783    554.270    554.414    554.270
 21.370    541.719    554.643    -12.924    553.967    554.497    553.967    554.114    553.967
 21.470    560.000    554.359      5.641    553.664    554.211    553.664    553.812    553.664
 21.570    551.339    554.075     -2.736    553.360    553.925    553.360    553.510    553.360
 21.670    527.000    553.791    -26.791    553.055    553.640    553.055    553.207    553.055
 21.770    540.176    553.509    -13.332    552.749    553.356    552.749    552.902    552.749
 21.870    523.000    553.227    -30.227    552.443    553.072    552.443    552.598    552.443
 21.970    561.000    552.955      8.045    552.135    552.798    552.135    552.292    552.135
 22.070    547.000    552.756     -5.756    551.827    552.597    551.827    551.985    551.827
 22.170    551.000    552.500     -1.500    551.518    552.339    551.518    551.678    551.518
 22.270    510.920    552.229    -41.309    551.208    552.067    551.208    551.371    551.208
 22.370    563.000    551.962     11.038    550.897    551.798    550.897    551.062    550.897
 22.470    565.000    551.695     13.305    550.586    551.528    550.586    550.753    550.586
 22.570    519.000    551.432    -32.432    550.274    551.263    550.274    550.444    550.274
 22.670    545.772    551.180     -5.408    549.962    551.009    549.962    550.134    549.962
 22.770    505.888    550.992    -45.103    549.649    550.818    549.649    549.823    549.649
 22.870    517.458    550.791    -33.333    549.335    550.615    549.335    549.512    549.335
 22.970    548.000    550.561     -2.561    549.021    550.382    549.021    549.200    549.021
 23.070    573.000    550.338     22.662    548.706    550.157    548.706    548.888    548.706
 23.170    544.797    550.131     -5.334    548.391    549.947    548.391    548.576    548.391
 23.270    536.526    549.944    -13.418    548.076    549.757    548.076    548.263    548.076
 23.370    571.000    549.777     21.223    547.760    549.587    547.760    547.950    547.760
 23.470    563.000    549.641     13.359    547.443    549.448    547.443    547.637    547.443
 23.570    583.270    549.544     33.726    547.126    549.348    547.126    547.323    547.126
 23.670    532.000    549.500    -17.500    546.809    549.301    546.809    547.009    546.809
 23.770    575.000    549.530     25.470    546.491    549.327    546.491    546.695    546.491
 23.870    520.000    549.665    -29.665    546.173    549.458    546.173    546.381    546.173
 23.970    569.699    549.964     19.735    545.855    549.754    545.855    546.067    545.855
 24.070    577.000    550.569     26.431    545.537    550.356    545.537    545.753    545.537
 24.170    543.189    551.865     -8.675    545.218    551.648    545.218    545.439    545.218
 24.270    613.000    554.824     58.176    544.899    554.605    544.899    545.124    544.899
 24.370    600.000    561.369     38.631    544.580    561.150    544.580    544.810    544.580
 24.470    582.831    574.001      8.830    544.261    573.786    544.261    544.496    544.261
 24.570    630.688    593.783     36.904    543.942    593.577    543.942    544.182    543.942
 24.670    617.938    616.804      1.133    543.622    616.609    543.622    543.868    543.622
 24.770    641.000    631.916      9.084    543.303    631.726    543.303    543.554    543.303
 24.870    621.000    628.172     -7.172    542.983    627.973    542.983    543.241    542.983
 24.970    598.804    608.548     -9.744    542.663    608.329    542.663    542.928    542.663
 25.070    555.000    585.338    -30.338    542.343    585.096    542.343    542.615    542.343
 25.170    529.531    567.276    -37.745    542.024    567.014    542.024    542.303    542.024
 25.270    585.841    556.292     29.549    541.704    556.014    541.704    541.991    541.704
 25.370    548.000    550.576     -2.576    541.384    550.286    541.384    541.680    541.384
 25.470    569.000    547.750     21.250    541.065    547.449    541.065    541.369    541.065
 25.570    521.000    546.210    -25.210    540.745    545.898    540.745    541.059    540.745
 25.670    552.000    545.200      6.800    540.426    544.877    540.426    540.750    540.426
 25.770    556.914    544.443     12.471    540.107    544.109    540.107    540.442    540.107
 25.870    567.899    543.840     24.059    539.787    543.494    539.787    540.135    539.787
 25.970    586.838    543.335     43.502    539.468    542.976    539.468    539.828    539.468
 26.070    568.000    542.907     25.093    539.150    542.534    539.150    539.524    539.150
 26.170    591.000    542.542     48.458    538.831    542.154    538.831    539.220    538.831
 26.270    512.000    542.230    -30.230    538.513    541.826    538.513    538.918    538.513
 26.370    516.530    541.968    -25.438    538.195    541.545    538.195    538.617    538.195
 26.470    535.000    541.756     -6.756    537.877    541.314    537.877    538.319    537.877
 26.570    534.000    541.617     -7.617    537.560    541.154    537.560    538.022    537.560
 26.670    549.000    541.526      7.474    537.242    541.040    537.242    537.728    537.242
 26.770    528.871    541.475    -12.605    536.926    540.964    536.926    537.437    536.926
 26.870    526.035    541.490    -15.455    536.609    540.950    536.609    537.148    536.609
 26.970    529.080    541.594    -12.515    536.293    541.024    536.293    536.863    536.293
 27.070    571.000    541.790     29.210    535.977    541.185    535.977    536.582    535.977
 27.170    586.540    542.121     44.420    535.662    541.477    535.662    536.305    535.662
 27.270    578.000    542.643     35.357    535.347    541.956    535.347    536.034    535.347
 27.370    563.000    543.430     19.570    535.033    542.694    535.033    535.768    535.033
 27.470    556.000    544.579     11.421    534.719    543.787    534.719    535.509    534.719
 27.570    559.290    546.442     12.847    534.406    545.588    534.406    535.258    534.406
 27.670    562.414    550.270     12.145    534.093    549.343    534.093    535.017    534.093
 27.770    601.000    560.566     40.434    533.780    559.552    533.780    534.787    533.780
 27.870    585.000    589.426     -4.426    533.469    588.307    533.469    534.570    533.469
 27.970    731.000    656.735     74.265    533.157    655.482    533.157    534.371    533.157
 28.070    816.000    772.486     43.514    532.847    771.066    532.847    534.192    532.847
 28.170    889.000    903.587    -14.587    532.537    901.980    532.537    534.038    532.537
 28.270   1000.000    968.216     31.784    532.227    966.423    532.227    533.917    532.227
 28.370    858.476    912.698    -54.222    531.918    910.713    531.918    533.837    531.918
 28.470    805.751    793.659     12.092    531.610    791.429    531.610    533.814    531.610
 28.570    723.556    702.297     21.259    531.303    699.718    531.303    533.870    531.303
 28.670    645.000    684.898    -39.898    530.996    681.834    530.996    534.044    530.996
 28.770    746.000    735.073     10.927    530.690    731.343    530.690    534.398    530.690
 28.870    797.000    809.455    -12.455    530.384    804.790    530.384    535.032    530.384
 28.970    827.000    844.819    -17.819    530.080    838.808    530.080    536.089    530.080
 29.070    721.000    804.278    -83.278    529.776    796.316    529.776    537.748    529.776
 29.170    708.000    720.655    -12.655    529.473    709.937    529.473    540.201    529.473
 29.270    636.000    644.592     -8.592    529.170    630.184    529.170    543.584    529.170
 29.370    584.408    598.626    -14.218    528.869    579.639    528.869    547.857    528.869
 29.470    574.000    579.065     -5.065    528.568    555.053    528.568    552.578    528.568
 29.570    593.000    573.157     19.843    528.268    544.814    528.268    556.609    528.268
 29.670    567.000    570.720     -3.720    527.969    540.418    527.969    558.268    527.969
 29.770    580.946    566.971     13.975    527.671    538.077    527.671    556.562    527.671
 29.870    640.000    561.417     78.583    527.374    536.547    527.374    552.241    527.374
 29.970    556.000    555.352      0.648    527.077    535.465    527.077    546.962    527.077
 30.070    568.000    549.909     18.091    526.782    534.713    526.782    541.975    526.782
 30.170    540.128    545.618     -5.490    526.487    534.273    526.487    537.830    526.487
 30.270    499.740    542.680    -42.940    526.193    534.249    526.193    534.621    526.193
 30.370    552.000    541.405     10.595    525.901    535.066    525.901    532.236    525.901
 30.470    561.329    542.767     18.562    525.609    537.882    525.609    530.488    525.609
 30.570    533.000    548.800    -15.800    525.318    544.912    525.318    529.193    525.318
 30.670    554.352    561.861     -7.509    525.028    558.665    525.028    528.201    525.028
 30.770    567.000    581.877    -14.877    524.740    579.173    524.740    527.406    524.740
 30.870    628.000    602.791     25.209    524.452    600.452    524.452    526.738    524.452
 30.970    637.000    612.335     24.665    524.165    610.288    524.165    526.155    524.165
 31.070    638.651    602.421     36.230    523.879    600.621    523.879    525.633    523.879
 31.170    585.497    580.544      4.953    523.595    578.953    523.595    525.155    523.595
 31.270    592.000    558.960     33.040    523.311    557.543    523.311    524.712    523.311
 31.370    556.000    543.977     12.023    523.029    542.702    523.029    524.296    523.029
 31.470    488.000    535.782    -47.782    522.747    534.624    522.747    523.901    522.747
 31.570    510.000    531.915    -21.915    522.467    530.855    522.467    523.524    522.467
 31.670    505.803    530.105    -24.301    522.188    529.128    522.188    523.162    522.188
 31.770    550.000    529.122     20.878    521.910    528.217    521.910    522.813    521.910
 31.870    547.000    528.480     18.520    521.633    527.638    521.633    522.474    521.633
 31.970    566.438    528.022     38.415    521.357    527.234    521.357    522.144    521.357
 32.070    517.019    527.694    -10.675    521.083    526.954    521.083    521.822    521.083
 32.170    547.000    527.475     19.525    520.809    526.778    520.809    521.506    520.809
 32.270    566.969    527.359     39.610    520.537    526.699    520.537    521.197    520.537
 32.370    554.000    527.346     26.654    520.266    526.719    520.266    520.892    520.266
 32.470    559.000    527.448     31.552    519.997    526.850    519.997    520.593    519.997
 32.570    560.237    527.675     32.562    519.728    527.104    519.728    520.298    519.728
 32.670    572.000    528.051     43.949    519.461    527.504    519.461    520.007    519.461
 32.770    504.000    528.614    -24.614    519.195    528.088    519.195    519.719    519.195
 32.870    512.419    529.417    -16.998    518.930    528.911    518.930    519.435    518.930
 32.970    507.000    530.538    -23.538    518.666    530.049    518.666    519.154    518.666
 33.070    548.000    532.098     15.902    518.404    531.625    518.404    518.876    518.404
 33.170    522.000    534.316    -12.316    518.143    533.857    518.143    518.600    518.143
 33.270    547.000    537.698      9.302    517.883    537.251    517.883    518.327    517.883
 33.370    524.517    543.642    -19.125    517.625    543.206    517.625    518.057    517.625
 33.470    517.244    555.902    -38.657    517.368    555.475    517.368    517.789    517.368
 33.570    599.000    582.775     16.225    517.112    582.353    517.112    517.523    517.112
 33.670    673.000    637.627     35.373    516.858    637.203    516.858    517.260    516.858
 33.770    714.961    732.818    -17.857    516.605    732.385    516.605    516.998    516.605
 33.870    895.000    864.821     30.179    516.353    864.376    516.353    516.739    516.353
 33.970   1023.576    997.509     26.067    516.103    997.060    516.103    516.482    516.103
 34.070   1012.000   1062.551    -50.551    515.854   1062.116    515.854    516.226    515.854
 34.170   1010.000   1013.682     -3.682    515.607   1013.281    515.607    515.973    515.607
 34.270    906.000    887.140     18.860    515.360    886.770    515.360    515.721    515.360
 34.370    803.725    751.672     52.053    515.116    751.321    515.116    515.472    515.116
 34.470    615.000    649.168    -34.168    514.872    648.824    514.872    515.224    514.872
 34.570    569.000    587.629    -18.629    514.630    587.286    514.630    514.978    514.630
 34.670    587.510    556.333     31.177    514.390    555.991    514.390    514.734    514.390
 34.770    567.000    541.610     25.390    514.151    541.270    514.151    514.491    514.151
 34.870    564.709    534.310     30.399    513.913    533.972    513.913    514.250    513.913
 34.970    485.000    530.043    -45.043    513.677    529.708    513.677    514.011    513.677
 35.070    522.000    527.112     -5.112    513.442    526.779    513.442    513.774    513.442
 35.170    495.929    524.899    -28.970    513.209    524.568    513.209    513.539    513.209
 35.270    471.000    523.149    -52.149    512.977    522.821    512.977    513.305    512.977
 35.370    523.000    521.727      1.273    512.747    521.400    512.747    513.073    512.747
 35.470    502.000    520.547    -18.547    512.518    520.222    512.518    512.842    512.518
 35.570    478.667    519.550    -40.883    512.290    519.227    512.290    512.613    512.290
 35.670    487.335    518.695    -31.360    512.065    518.373    512.065    512.386    512.065
 35.770    523.000    517.951      5.049    511.840    517.630    511.840    512.161    511.840
 35.870    555.000    517.297     37.703    511.617    516.976    511.617    511.937    511.617
 35.970    513.000    516.715     -3.715    511.396    516.395    511.396    511.715    511.396
 36.070    524.000    516.193      7.807    511.176    515.874    511.176    511.495    511.176
 36.170    491.000    515.723    -24.723    510.958    515.405    510.958    511.277    510.958
 36.270    526.000    515.298     10.702    510.741    514.979    510.741    511.060    510.741
 36.370    537.972    514.912     23.060    510.526    514.593    510.526    510.844    510.526
 36.470    515.000    514.563      0.437    510.312    514.244    510.312    510.631    510.312
 36.570    510.000    514.250     -4.250    510.100    513.931    510.100    510.419    510.100
 36.670    534.403    513.974     20.429    509.890    513.655    509.890    510.209    509.890
 36.770    530.000    513.743     16.257    509.681    513.424    509.681    510.000    509.681
 36.870    496.000    513.576    -17.576    509.473    513.256    509.473    509.793    509.473
 36.970    523.651    513.527     10.125    509.268    513.206    509.268    509.588    509.268
 37.070    515.000    513.716      1.284    509.063    513.395    509.063    509.385    509.063
 37.170    527.000    514.370     12.630    508.861    514.047    508.861    509.183    508.861
 37.270    520.000    515.797      4.203    508.660    515.474    508.660    508.983    508.660
 37.370    540.788    518.245     22.543    508.460    517.921    508.460    508.785    508.460
 37.470    530.000    521.610      8.390    508.262    521.286    508.262    508.588    508.262
 37.570    487.303    525.128    -37.825    508.066    524.804    508.066    508.393    508.066
 37.670    549.000    527.337     21.663    507.871    527.012    507.871    508.200    507.871
 37.770    531.901    527.015      4.887    507.678    526.690    507.678    508.008    507.678
 37.870    491.000    524.470    -33.470    507.487    524.146    507.487    507.819    507.487
 37.970    536.000    521.027     14.973    507.297    520.704    507.297    507.630    507.297
 38.070    521.000    517.717      3.283    507.109    517.392    507.109    507.444    507.109
 38.170    508.000    514.963     -6.963    506.922    514.635    506.922    507.259    506.922
 38.270    517.000    512.886      4.114    506.737    512.554    506.737    507.077    506.737
 38.370    510.475    511.439     -0.965    506.554    511.102    506.554    506.895    506.554
 38.470    529.000    510.476     18.524    506.372    510.135    506.372    506.716    506.372
 38.570    480.000    509.840    -29.840    506.192    509.495    506.192    506.538    506.192
 38.670    493.000    509.402    -16.402    506.014    509.054    506.014    506.362    506.014
 38.770    548.306    509.075     39.231    505.837    508.725    505.837    506.188    505.837
 38.870    543.000    508.807     34.193    505.662    508.454    505.662    506.016    505.662
 38.970    480.000    508.573    -28.573    505.489    508.217    505.489    505.845    505.489
 39.070    540.000    508.359     31.641    505.317    508.001    505.317    505.676    505.317
 39.170    491.000    508.162    -17.162    505.147    507.800    505.147    505.509    505.147
 39.270    509.064    507.976      1.088    504.979    507.611    504.979    505.344    504.979
 39.370    543.000    507.801     35.199    504.812    507.433    504.812    505.180    504.812
 39.470    458.000    507.636    -49.636    504.647    507.265    504.647    505.018    504.647
 39.570    509.000    507.480      1.520    504.483    507.105    504.483    504.858    504.483
 39.670    503.000    507.332     -4.332    504.321    506.954    504.321    504.700    504.321
 39.770    531.000    507.192     23.808    504.161    506.810    504.161    504.543    504.161
 39.870    526.000    507.059     18.941    504.003    506.674    504.003    504.389    504.003
 39.970    510.082    506.935      3.147    503.846    506.545    503.846    504.236    503.846
 40.070    483.072    506.819    -23.747    503.691    506.425    503.691    504.085    503.691
 40.170    466.967    506.711    -39.744    503.538    506.313    503.538    503.935    503.538
 40.270    547.315    506.612     40.703    503.386    506.211    503.386    503.788    503.386
 40.370    512.000    506.524      5.476    503.236    506.118    503.236    503.642    503.236
 40.470    480.000    506.446    -26.446    503.088    506.035    503.088    503.499    503.088
 40.570    493.628    506.380    -12.752    502.941    505.965    502.941    503.357    502.941
 40.670    497.000    506.328     -9.328    502.796    505.908    502.796    503.217    502.796
 40.770    512.000    506.292      5.708    502.653    505.867    502.653    503.078    502.653
 40.870    500.000    506.275     -6.275    502.511    505.845    502.511    502.942    502.511
 40.970    498.477    506.279     -7.802    502.372    505.844    502.372    502.807    502.372
 41.070    479.000    506.310    -27.310    502.233    505.869    502.233    502.675    502.233
 41.170    488.000    506.373    -18.373    502.097    505.927    502.097    502.544    502.097
 41.270    470.172    506.477    -36.305    501.962    506.025    501.962    502.415    501.962
 41.370    543.695    506.632     37.063    501.829    506.174    501.829    502.288    501.829
 41.470    511.000    506.854      4.146    501.697    506.390    501.697    502.162    501.697
 41.570    464.000    507.166    -43.166    501.568    506.696    501.568    502.039    501.568
 41.670    519.000    507.614     11.386    501.440    507.137    501.440    501.918    501.440
 41.770    519.000    508.294     10.706    501.313    507.811    501.313    501.798    501.313
 41.870    469.849    509.445    -39.596    501.189    508.955    501.189    501.681    501.189
 41.970    491.093    511.615    -20.522    501.066    511.119    501.066    501.565    501.066
 42.070    516.000    515.903      0.097    500.944    515.401    500.944    501.452    500.944
 42.170    492.000    524.066    -32.066    500.825    523.560    500.825    501.340    500.825
 42.270    537.000    538.123     -1.123    500.707    537.615    500.707    501.230    500.707
 42.370    526.000    559.122    -33.122    500.591    558.615    500.591    501.122    500.591
 42.470    598.000    585.321     12.679    500.476    584.818    500.476    501.017    500.476
 42.570    574.624    610.607    -35.983    500.363    610.109    500.363    500.913    500.363
 42.670    651.125    625.066     26.059    500.252    624.568    500.252    500.811    500.252
 42.770    655.233    621.140     34.093    500.143    620.634    500.143    500.712    500.143
 42.870    565.000    601.130    -36.130    500.035    600.606    500.035    500.614    500.035
 42.970    615.000    574.466     40.534    499.929    573.918    499.929    500.519    499.929
 43.070    549.000    549.786     -0.786    499.824    549.213    499.824    500.425    499.824
 43.170    529.000    531.371     -2.371    499.722    530.776    499.722    500.334    499.722
 43.270    525.000    519.669      5.331    499.621    519.055    499.621    500.245    499.621
 43.370    501.000    513.083    -12.083    499.521    512.452    499.521    500.158    499.521
 43.470    535.000    509.624     25.376    499.424    508.978    499.424    500.073    499.424
 43.570    479.000    507.792    -28.792    499.327    507.131    499.327    499.991    499.327
 43.670    501.981    506.727     -4.746    499.233    506.052    499.233    499.910    499.233
 43.770    466.106    506.023    -39.917    499.140    505.333    499.140    499.832    499.140
 43.870    525.000    505.509     19.491    499.049    504.803    499.049    499.757    499.049
 43.970    518.757    505.112     13.645    498.960    504.389    498.960    499.684    498.960
 44.070    535.483    504.797     30.686    498.872    504.057    498.872    499.613    498.872
 44.170    545.000    504.545     40.455    498.786    503.787    498.786    499.545    498.786
 44.270    512.000    504.342      7.658    498.702    503.566    498.702    499.479    498.702
 44.370    515.000    504.180     10.820    498.619    503.384    498.619    499.416    498.619
 44.470    488.000    504.050    -16.050    498.538    503.233    498.538    499.355    498.538
 44.570    481.000    503.949    -22.949    498.459    503.110    498.459    499.298    498.459
 44.670    534.666    503.872     30.793    498.381    503.011    498.381    499.243    498.381
 44.770    479.000    503.817    -24.817    498.305    502.931    498.305    499.191    498.305
 44.870    458.000    503.782    -45.782    498.230    502.870    498.230    499.142    498.230
 44.970    528.673    503.765     24.909    498.157    502.826    498.157    499.096    498.157
 45.070    525.453    503.765     21.688    498.086    502.798    498.086    499.053    498.086
 45.170    485.007    503.782    -18.775    498.017    502.785    498.017    499.014    498.017
 45.270    514.977    503.816     11.161    497.949    502.786    497.949    498.978    497.949
 45.370    530.407    503.867     26.541    497.882    502.803    497.882    498.946    497.882
 45.470    522.000    503.934     18.066    497.818    502.834    497.818    498.918    497.818
 45.570    545.000    504.020     40.980    497.755    502.880    497.755    498.894    497.755
 45.670    487.000    504.124    -17.124    497.693    502.943    497.693    498.874    497.693
 45.770    469.000    504.249    -35.249    497.633    503.023    497.633    498.859    497.633
 45.870    551.000    504.395     46.605    497.575    503.121    497.575    498.849    497.575
 45.970    534.938    504.566     30.372    497.518    503.240    497.518    498.844    497.518
 46.070    498.000    504.763     -6.763    497.463    503.381    497.463    498.845    497.463
 46.170    485.000    504.992    -19.992    497.410    503.549    497.410    498.852    497.410
 46.270    538.810    505.255     33.555    497.358    503.747    497.358    498.865    497.358
 46.370    475.230    505.559    -30.328    497.308    503.980    497.308    498.886    497.308
 46.470    498.844    505.911     -7.067    497.259    504.255    497.259    498.914    497.259
 46.570    524.259    506.322     17.937    497.212    504.581    497.212    498.952    497.212
 46.670    511.000    506.807      4.193    497.166    504.974    497.166    498.998    497.166
 46.770    534.000    507.393     26.607    497.122    505.458    497.122    499.056    497.122
 46.870    508.000    508.135     -0.135    497.080    506.088    497.080    499.126    497.080
 46.970    494.261    509.156    -14.895    497.039    506.983    497.039    499.209    497.039
 47.070    487.156    510.718    -23.562    497.000    508.407    497.000    499.308    497.000
 47.170    485.294    513.329    -28.035    496.962    510.862    496.962    499.424    496.962
 47.270    478.000    517.832    -39.832    496.926    515.189    496.926    499.560    496.926
 47.370    515.688    525.263     -9.576    496.891    522.420    496.891    499.720    496.891
 47.470    550.000    536.458     13.542    496.858    533.387    496.858    499.907    496.858
 47.570    584.000    551.326     32.674    496.827    547.994    496.827    500.126    496.827
 47.670    585.000    568.074     16.926    496.797    564.442    496.797    500.383    496.797
 47.770    591.702    582.770      8.932    496.768    578.798    496.768    500.685    496.768
 47.870    601.128    590.176     10.952    496.741    585.816    496.741    501.043    496.741
 47.970    613.161    587.194     25.967    496.716    582.386    496.716    501.470    496.716
 48.070    609.057    575.937     33.120    496.692    570.601    496.692    501.984    496.692
 48.170    537.000    561.530    -24.530    496.669    555.552    496.669    502.616    496.669
 48.270    517.669    548.410    -30.741    496.648    541.627    496.648    503.410    496.648
 48.370    576.000    538.986     37.014    496.629    531.160    496.629    504.441    496.629
 48.470    511.000    533.866    -22.866    496.611    524.642    496.611    505.826    496.611
 48.570    553.000    532.607     20.393    496.594    521.448    496.594    507.747    496.594
 48.670    498.000    534.496    -36.496    496.579    520.605    496.579    510.465    496.579
 48.770    568.000    539.062     28.938    496.565    521.297    496.565    514.326    496.565
 48.870    567.272    546.225     21.047    496.553    523.041    496.553    519.733    496.553
 48.970    493.000    556.216    -63.216    496.542    525.675    496.542    527.079    496.542
 49.070    584.315    569.436     14.879    496.533    529.330    496.533    536.633    496.533
 49.170    587.000    586.440      0.560    496.525    534.589    496.525    548.369    496.525
 49.270    567.014    608.328    -41.314    496.519    543.111    496.519    561.726    496.519
 49.370    607.107    637.993    -30.886    496.514    559.199    496.514    575.292    496.514
 49.470    639.808    682.754    -42.946    496.510    592.663    496.510    586.574    496.510
 49.570    737.000    758.290    -21.290    496.508    662.264    496.508    592.486    496.508
 49.670    894.874    891.122      3.752    496.508    796.547    496.508    591.000    496.508
 49.770   1126.426   1112.675     13.751    496.508   1026.365    496.508    582.688    496.508
 49.870   1454.242   1439.508     14.734    496.510   1365.619    496.510    570.224    496.510
 49.970   1845.493   1845.743     -0.250    496.514   1785.500    496.514    556.561    496.514
 50.070   2331.000   2245.922     85.078    496.519   2198.518    496.519    543.758    496.519
 50.170   2510.000   2509.805      0.195    496.525   2473.396    496.525    532.862    496.525
 50.270   2439.204   2525.596    -86.392    496.532   2497.982    496.532    524.200    496.532
 50.370   2253.000   2282.369    -29.369    496.541   2261.397    496.541    517.663    496.541
 50.470   1850.000   1880.724    -30.724    496.552   1864.542    496.552    512.920    496.552
 50.570   1487.000   1455.532     31.468    496.563   1442.704    496.563    509.564    496.563
 50.670   1051.000   1104.175    -53.175    496.576   1093.675    496.576    507.209    496.576
 50.770    899.697    864.382     35.315    496.591    855.522    496.591    505.542    496.591
 50.870    739.478    726.317     13.161    496.606    718.651    496.606    504.333    496.606
 50.970    669.000    657.900     11.100    496.623    651.139    496.623    503.429    496.623
 51.070    660.000    626.258     33.742    496.642    620.207    496.642    502.729    496.642
 51.170    572.000    608.422    -36.422    496.661    602.942    496.661    502.173    496.661
 51.270    579.803    593.269    -13.466    496.682    588.256    496.682    501.722    496.682
 51.370    556.000    578.191    -22.191    496.704    573.566    496.704    501.351    496.704
 51.470    587.252    564.157     23.095    496.728    559.856    496.728    501.044    496.728
 51.570    551.000    552.503     -1.503    496.752    548.478    496.752    500.789    496.752
 51.670    569.000    543.860     25.140    496.778    540.069    496.778    500.577    496.778
 51.770    501.000    538.112    -37.112    496.806    534.522    496.806    500.401    496.806
 51.870    497.314    534.711    -37.398    496.834    531.294    496.834    500.255    496.834
 51.970    572.883    533.016     39.867    496.864    529.746    496.864    500.136    496.864
 52.070    521.000    532.524    -11.524    496.895    529.380    496.895    500.040    496.895
 52.170    554.000    532.956     21.044    496.927    529.921    496.927    499.964    496.927
 52.270    490.718    534.269    -43.550    496.960    531.325    496.960    499.906    496.960
 52.370    541.000    536.680      4.320    496.995    533.813    496.995    499.863    496.995
 52.470    496.587    540.835    -44.248    497.031    538.032    497.031    499.834    497.031
 52.570    556.000    548.152      7.848    497.068    545.402    497.068    499.818    497.068
 52.670    587.000    561.363     25.637    497.106    558.655    497.106    499.813    497.106
 52.770    622.000    585.017     36.983    497.145    582.341    497.145    499.820    497.145
 52.870    669.177    625.425     43.752    497.186    622.771    497.186    499.836    497.186
 52.970    724.000    689.339     34.661    497.228    686.698    497.228    499.861    497.228
 53.070    814.000    780.938     33.062    497.271    778.304    497.271    499.895    497.271
 53.170    889.000    897.628     -8.628    497.315    894.995    497.315    499.938    497.315
 53.270   1005.000   1026.045    -21.045    497.360   1023.409    497.360    499.988    497.360
 53.370   1124.965   1140.231    -15.266    497.406   1137.589    497.406    500.046    497.406
 53.470   1181.000   1206.280    -25.280    497.453   1203.632    497.453    500.112    497.453
 53.570   1114.000   1199.336    -85.336    497.502   1196.676    497.502    500.185    497.502
 53.670   1099.000   1122.531    -23.531    497.552   1119.847    497.552    500.266    497.552
 53.770    972.000   1004.065    -32.065    497.602   1001.345    497.602    500.354    497.602
 53.870    837.000    877.022    -40.022    497.654    874.255    497.654    500.450    497.654
 53.970    787.460    765.045     22.415    497.707    762.221    497.707    500.553    497.707
 54.070    694.000    679.279     14.721    497.761    676.391    497.761    500.664    497.761
 54.170    617.889    620.759     -2.871    497.816    617.803    497.816    500.783    497.816
 54.270    623.343    584.567     38.776    497.872    581.535    497.872    500.910    497.872
 54.370    560.000    563.884     -3.884    497.929    560.771    497.929    501.045    497.929
 54.470    583.295    552.688     30.607    497.987    549.487    497.987    501.190    497.987
 54.570    557.000    546.791     10.209    498.046    543.494    498.046    501.344    498.046
 54.670    566.869    543.740     23.128    498.106    540.339    498.106    501.509    498.106
 54.770    521.000    542.278    -21.278    498.167    538.763    498.167    501.683    498.167
 54.870    581.000    541.824     39.176    498.229    538.184    498.229    501.870    498.229
 54.970    569.000    542.131     26.869    498.293    538.356    498.293    502.068    498.293
 55.070    529.000    543.110    -14.110    498.357    539.187    498.357    502.280    498.357
 55.170    513.844    544.745    -30.902    498.422    540.661    498.422    502.506    498.422
 55.270    532.000    547.074    -15.074    498.488    542.814    498.488    502.748    498.488
 55.370    578.000    550.181     27.819    498.555    545.730    498.555    503.007    498.555
 55.470    548.688    554.229     -5.541    498.622    549.567    498.622    503.284    498.622
 55.570    568.000    559.526      8.474    498.691    554.635    498.691    503.582    498.691
 55.670    604.000    566.724     37.276    498.761    561.582    498.761    503.903    498.761
 55.770    588.000    577.247     10.753    498.832    571.827    498.832    504.249    498.832
 55.870    589.000    594.126     -5.126    498.903    588.402    498.903    504.624    498.903
 55.970    619.000    623.339     -4.339    498.976    617.277    498.976    505.031    498.976
 56.070    702.097    675.368     26.729    499.049    668.930    499.049    505.473    499.049
 56.170    774.000    766.024      7.976    499.123    759.166    499.123    505.956    499.123
 56.270    938.577    914.822     23.755    499.198    907.494    499.198    506.484    499.198
 56.370   1083.190   1139.212    -56.022    499.274   1131.361    499.274    507.066    499.274
 56.470   1357.000   1444.612    -87.612    499.351   1436.180    499.351    507.708    499.351
 56.570   1719.000   1813.009    -94.009    499.428   1803.942    499.428    508.419    499.428
 56.670   2156.000   2194.868    -38.868    499.507   2185.110    499.507    509.212    499.507
 56.770   2508.980   2509.785     -0.805    499.586   2499.272    499.586    510.099    499.586
 56.870   2604.000   2666.339    -62.339    499.666   2654.987    499.666    511.098    499.666
 56.970   2681.608   2609.855     71.753    499.747   2597.537    499.747    512.230    499.747
 57.070   2383.099   2362.624     20.475    499.828   2349.153    499.828    513.522    499.828
 57.170   2021.000   2005.384     15.616    499.911   1990.519    499.911    515.013    499.911
 57.270   1590.660   1627.058    -36.398    499.994   1610.511    499.994    516.755    499.994
 57.370   1328.000   1292.499     35.501    500.078   1273.917    500.078    518.831    500.078
 57.470   1053.000   1034.160     18.840    500.162   1013.080    500.162    521.365    500.162
 57.570    873.000    856.757     16.243    500.247    832.529    500.247    524.555    500.247
 57.670    766.268    747.840     18.429    500.333    719.513    500.333    528.707    500.333
 57.770    694.000    689.074      4.926    500.420    655.242    500.420    534.277    500.420
 57.870    687.000    664.350     22.650    500.508    622.958    500.508    541.908    500.508
 57.970    707.446    663.460     43.986    500.596    611.605    500.596    552.449    500.596
 58.070    697.000    682.312     14.688    500.685    616.072    500.685    566.912    500.685
 58.170    708.000    721.248    -13.248    500.774    635.623    500.774    586.376    500.774
 58.270    778.723    782.691     -3.968    500.864    671.734    500.864    611.786    500.864
 58.370    844.000    868.527    -24.527    500.955    725.747    500.955    643.686    500.955
 58.470    953.000    977.850    -24.850    501.047    796.959    501.047    681.878    501.047
 58.570   1120.000   1105.158     14.842    501.139    881.245    501.139    724.987    501.139
 58.670   1256.183   1239.537     16.646    501.231    970.792    501.231    769.913    501.231
 58.770   1366.000   1365.823      0.177    501.325   1055.830    501.325    811.264    501.325
 58.870   1394.216   1467.689    -73.473    501.419   1127.572    501.419    841.498    501.419
 58.970   1563.879   1530.495     33.384    501.513   1178.875    501.513    853.115    501.513
 59.070   1518.780   1543.931    -25.151    501.608   1202.805    501.608    842.738    501.608
 59.170   1486.000   1506.673    -20.673    501.704   1194.928    501.704    813.470    501.704
 59.270   1484.000   1429.856     54.144    501.800   1158.979    501.800    772.703    501.800
 59.370   1291.166   1333.660    -42.494    501.897   1107.542    501.897    728.029    501.897
 59.470   1340.000   1239.430    100.570    501.994   1056.461    501.994    684.955    501.994
 59.570   1171.000   1165.402      5.598    502.092   1020.767    502.092    646.683    502.092
 59.670   1088.805   1127.024    -38.219    502.190   1014.464    502.190    614.663    502.190
 59.770   1189.000   1135.967     53.033    502.289   1048.974    502.289    589.142    502.289
 59.870   1301.000   1195.353    105.647    502.388   1127.937    502.388    569.607    502.388
 59.970   1348.938   1295.105     53.834    502.488   1242.215    502.488    555.125    502.488
 60.070   1432.000   1410.706     21.294    502.588   1368.379    502.588    544.622    502.588
 60.170   1494.632   1506.216    -11.585    502.689   1471.520    502.689    537.078    502.689
 60.270   1502.000   1543.917    -41.917    502.790   1514.783    502.790    531.640    502.790
 60.370   1494.000   1501.938     -7.938    502.892   1476.944    502.892    527.655    502.892
 60.470   1423.000   1387.310     35.690    502.994   1365.478    502.994    524.662    502.994
 60.570   1278.000   1229.130     48.870    503.096   1209.773    503.096    522.352    503.096
 60.670   1093.000   1061.202     31.798    503.199   1043.817    503.199    520.530    503.199
 60.770    916.000    909.979      6.021    503.303    894.181    503.303    519.076    503.303
 60.870    769.145    790.298    -21.153    503.406    775.777    503.406    517.917    503.406
 60.970    721.000    706.145     14.855    503.510    692.640    503.510    517.009    503.510
 61.070    629.782    654.314    -24.533    503.615    641.596    503.615    516.326    503.615
 61.170    626.000    629.029     -3.029    503.719    616.889    503.719    515.847    503.719
 61.270    590.000    625.771    -35.771    503.825    614.020    503.825    515.555    503.825
 61.370    656.000    643.359     12.641    503.930    631.829    503.930    515.426    503.930
 61.470    734.314    684.100     50.214    504.036    672.655    504.036    515.429    504.036
 61.570    716.732    752.184    -35.451    504.142    740.733    504.142    515.516    504.142
 61.670    845.000    850.671     -5.671    504.248    839.196    504.248    515.616    504.248
 61.770    884.000    977.803    -93.803    504.355    966.377    504.355    515.640    504.355
 61.870   1181.141   1123.746     57.395    504.462   1112.534    504.462    515.501    504.462
 61.970   1205.555   1269.011    -63.456    504.569   1258.237    504.569    515.152    504.569
 62.070   1372.000   1385.848    -13.848    504.676   1375.723    504.676    514.609    504.676
 62.170   1496.003   1444.928     51.075    504.784   1435.603    504.784    513.941    504.784
 62.270   1388.000   1428.529    -40.529    504.892   1420.068    504.892    513.227    504.892
 62.370   1403.564   1341.481     62.082    505.000   1333.869    505.000    512.534    505.000
 62.470   1162.202   1207.751    -45.549    505.108   1200.919    505.108    511.902    505.108
 62.570   1056.000   1057.098     -1.098    505.217   1050.950    505.217    511.355    505.217
 62.670    876.895    914.355    -37.460    505.326    908.788    505.326    510.898    505.326
 62.770    831.000    795.030     35.970    505.435    789.945    505.435    510.530    505.435
 62.870    666.000    705.129    -39.129    505.544    700.441    505.544    510.242    505.544
 62.970    688.990    643.339     45.651    505.653    638.975    505.653    510.023    505.653
 63.070    601.000    604.238     -3.238    505.763    600.143    505.763    509.860    505.763
 63.170    607.000    581.302     25.698    505.872    577.432    505.872    509.741    505.872
 63.270    600.000    568.889     31.111    505.982    565.211    505.982    509.656    505.982
 63.370    597.000    563.095     33.905    506.092    559.583    506.092    509.597    506.092
 63.470    573.000    561.839     11.161    506.201    558.474    506.201    509.559    506.201
 63.570    597.000    564.616     32.384    506.311    561.380    506.311    509.537    506.311
 63.670    609.000    572.206     36.794    506.422    569.085    506.422    509.528    506.422
 63.770    580.000    586.399     -6.399    506.532    583.379    506.532    509.530    506.532
 63.870    652.000    609.621     42.379    506.642    606.690    506.642    509.541    506.642
 63.970    681.000    644.326     36.674    506.752    641.472    506.752    509.561    506.752
 64.070    736.000    692.072     43.928    506.862    689.284    506.862    509.587    506.862
 64.170    755.000    752.420      2.580    506.973    749.688    506.973    509.621    506.973
 64.270    768.395    821.894    -53.499    507.083    819.211    507.083    509.660    507.083
 64.370    947.000    893.335     53.665    507.193    890.699    507.193    509.704    507.193
 64.470    990.624    956.171     34.453    507.304    953.586    507.304    509.754    507.304
 64.570    936.000    998.659    -62.659    507.414    996.131    507.414    509.808    507.414
 64.670    983.526   1012.476    -28.950    507.524   1010.014    507.524    509.867    507.524
 64.770   1001.000    996.456      4.544    507.635    994.065    507.635    509.929    507.635
 64.870    993.000    956.093     36.907    507.745    953.775    507.745    509.995    507.745
 64.970    868.301    900.576    -32.276    507.855    898.327    507.855    510.065    507.855
 65.070    848.000    839.770      8.230    507.965    837.583    507.965    510.137    507.965
 65.170    781.767    781.597      0.171    508.075    779.462    508.075    510.213    508.075
 65.270    727.337    730.580     -3.243    508.185    728.489    508.185    510.292    508.185
 65.370    686.728    688.094     -1.366    508.295    686.037    508.295    510.373    508.295
 65.470    633.852    653.713    -19.861    508.405    651.684    508.405    510.457    508.405
 65.570    583.000    626.480    -43.480    508.514    624.470    508.514    510.544    508.514
 65.670    631.549    605.390     26.159    508.624    603.396    508.624    510.633    508.624
 65.770    577.029    589.463    -12.434    508.733    587.483    508.733    510.724    508.733
 65.870    528.000    577.795    -49.795    508.842    575.826    508.842    510.817    508.842
 65.970    602.086    569.605     32.480    508.951    567.646    508.951    510.913    508.951
 66.070    553.000    564.243    -11.243    509.060    562.293    509.060    511.011    509.060
 66.170    549.812    561.168    -11.356    509.168    559.226    509.168    511.110    509.168
 66.270    551.000    559.944     -8.944    509.277    558.008    509.277    511.212    509.277
 66.370    572.000    560.248     11.752    509.385    558.316    509.385    511.316    509.385
 66.470    584.000    561.905     22.095    509.493    559.976    509.493    511.422    509.493
 66.570    551.000    564.957    -13.957    509.601    563.028    509.601    511.529    509.601
 66.670    575.000    569.768      5.232    509.708    567.838    509.708    511.639    509.708
 66.770    578.000    577.235      0.765    509.815    575.300    509.815    511.751    509.815
 66.870    594.000    589.124      4.876    509.922    587.181    509.922    511.864    509.922
 66.970    576.000    608.540    -32.540    510.029    606.587    510.029    511.980    510.029
 67.070    612.000    640.445    -28.445    510.135    638.477    510.135    512.098    510.135
 67.170    643.000    691.955    -48.955    510.241    689.969    510.241    512.218    510.241
 67.270    767.947    772.077     -4.130    510.347    770.068    510.347    512.340    510.347
 67.370    895.000    890.415      4.585    510.453    888.382    510.453    512.464    510.453
 67.470   1100.000   1054.648     45.352    510.558   1052.589    510.558    512.591    510.558
 67.570   1251.000   1266.986    -15.986    510.663   1264.905    510.663    512.720    510.663
 67.670   1512.277   1520.422     -8.146    510.767   1518.328    510.767    512.852    510.767
 67.770   1750.000   1795.917    -45.917    510.871   1793.821    510.871    512.987    510.871
 67.870   2123.455   2061.585     61.869    510.975   2059.500    510.975    513.125    510.975
 67.970   2209.574   2275.328    -65.754    511.079   2273.266    511.079    513.265    511.079
 68.070   2383.180   2393.743    -10.564    511.182   2391.710    511.182    513.409    511.182
 68.170   2376.560   2388.470    -11.909    511.284   2386.454    511.284    513.557    511.284
 68.270   2222.000   2260.951    -38.951    511.386   2258.925    511.386    513.708    511.386
 68.370   1974.450   2041.544    -67.094    511.488   2039.474    511.488    513.864    511.488
 68.470   1805.000   1774.023     30.977    511.589   1771.875    511.589    514.024    511.589
 68.570   1603.000   1499.813    103.187    511.690   1497.563    511.690    514.189    511.690
 68.670   1223.222   1249.744    -26.522    511.791   1247.377    511.791    514.359    511.791
 68.770   1025.000   1041.776    -16.776    511.891   1039.284    511.891    514.534    511.891
 68.870    836.000    882.009    -46.009    511.990    879.392    511.990    514.716    511.990
 68.970    815.739    767.632     48.107    512.089    764.890    512.089    514.905    512.089
 69.070    758.000    690.684     67.316    512.188    687.819    512.188    515.102    512.188
 69.170    663.000    641.538     21.462    512.286    638.548    512.286    515.306    512.286
 69.270    581.301    611.315    -30.014    512.383    608.197    512.383    515.520    512.383
 69.370    619.000    593.070     25.930    512.480    589.818    512.480    515.745    512.480
 69.470    623.000    581.998     41.002    512.577    578.603    512.577    515.980    512.577
 69.570    567.000    575.090     -8.090    512.672    571.540    512.672    516.229    512.672
 69.670    622.000    570.612     51.388    512.768    566.892    512.768    516.492    512.768
 69.770    581.000    567.629     13.371    512.863    563.724    512.863    516.770    512.863
 69.870    555.000    565.663    -10.663    512.957    561.555    512.957    517.067    512.957
 69.970    603.154    564.479     38.676    513.050    560.145    513.050    517.385    513.050
 70.070    592.003    563.967     28.036    513.143    559.386    513.143    517.725    513.143
 70.170    627.000    564.098     62.902    513.236    559.240    513.236    518.093    513.236
 70.270    552.459    564.900    -12.442    513.328    559.736    513.328    518.490    513.328
 70.370    588.308    566.489     21.819    513.419    560.983    513.419    518.922    513.419
 70.470    596.003    569.117     26.886    513.509    563.228    513.509    519.395    513.509
 70.570    596.386    573.276     23.110    513.599    566.953    513.599    519.916    513.599
 70.670    565.000    579.860    -14.860    513.689    573.046    513.689    520.494    513.689
 70.770    575.000    590.396    -15.396    513.777    583.019    513.777    521.141    513.777
 70.870    585.000    607.308    -22.308    513.865    599.281    513.865    521.873    513.865
 70.970    610.415    634.136    -23.722    513.952    625.343    513.952    522.716    513.952
 71.070    635.000    675.558    -40.558    514.039    665.846    514.039    523.708    514.039
 71.170    722.000    737.049    -15.049    514.125    726.205    514.125    524.906    514.125
 71.270    823.877    823.998     -0.122    514.210    811.717    514.210    526.403    514.210
 71.370    938.000    940.256     -2.256    514.294    926.096    514.294    528.335    514.294
 71.470   1069.000   1086.304    -17.304    514.378   1069.624    514.378    530.906    514.378
 71.570   1220.030   1257.458    -37.428    514.461   1237.336    514.461    534.398    514.461
 71.670   1411.000   1442.605    -31.605    514.543   1417.751    514.543    539.187    514.543
 71.770   1608.000   1623.906    -15.906    514.625   1592.570    514.625    545.736    514.625
 71.870   1830.000   1778.052     51.948    514.705   1737.965    514.705    554.569    514.705
 71.970   1839.163   1880.287    -41.124    514.785   1828.651    514.785    566.217    514.785
 72.070   1993.000   1912.140     80.860    514.864   1845.712    514.864    581.123    514.864
 72.170   1794.000   1869.881    -75.881    514.943   1785.166    514.943    599.529    514.943
 72.270   1901.000   1766.599    134.401    515.020   1660.188    515.020    621.340    515.020
 72.370   1660.398   1625.503     34.895    515.097   1494.551    515.097    645.989    515.097
 72.470   1405.451   1470.708    -65.257    515.173   1313.542    515.173    672.303    515.173
 72.570   1336.000   1321.303     14.697    515.248   1138.150    515.248    698.379    515.248
 72.670   1195.000   1189.054      5.946    515.322    982.815    515.322    721.546    515.322
 72.770   1098.522   1078.390     20.132    515.395    855.176    515.395    738.598    515.395
 72.870   1021.182    988.091     33.091    515.468    756.993    515.468    746.556    515.468
 72.970    907.000    914.094     -7.094    515.540    685.789    515.540    743.835    515.540
 73.070    802.762    852.178    -49.416    515.610    636.751    515.610    731.028    515.610
 73.170    814.000    799.300     14.700    515.680    604.385    515.680    710.587    515.680
 73.270    678.000    753.652    -75.652    515.749    583.675    515.749    685.720    515.749
 73.370    730.195    714.237     15.958    515.817    570.648    515.817    659.400    515.817
 73.470    628.000    680.525    -52.525    515.885    562.500    515.885    633.906    515.885
 73.570    628.000    652.237    -24.237    515.951    557.434    515.951    610.753    515.951
 73.670    628.000    629.173     -1.173    516.016    554.401    516.016    590.789    516.016
 73.770    570.000    611.084    -41.084    516.081    552.843    516.081    574.325    516.081
 73.870    594.019    597.589     -3.570    516.144    552.474    516.144    561.267    516.144
 73.970    606.000    588.159     17.841    516.207    553.123    516.207    551.255    516.207
 74.070    625.000    582.135     42.865    516.268    554.632    516.268    543.789    516.268
 74.170    575.000    578.760     -3.760    516.329    556.780    516.329    538.333    516.329
 74.270    603.000    577.224     25.776    516.388    559.251    516.388    534.390    516.388
 74.370    628.000    576.689     51.311    516.447    561.631    516.447    531.541    516.447
 74.470    617.074    576.344     40.730    516.505    563.430    516.505    529.458    516.505
 74.570    660.000    575.482     84.518    516.561    564.184    516.561    527.902    516.561
 74.670    673.000    573.644     99.356    516.617    563.600    516.617    526.704    516.617
 74.770    651.000    570.731     80.269    516.671    561.690    516.671    525.754    516.671
 74.870    526.576    566.989    -40.412    516.725    558.773    516.725    524.978    516.725
 74.970    541.557    562.869    -21.312    516.777    555.349    516.777    524.329    516.777
 75.070    513.655    558.887    -45.233    516.829    551.966    516.829    523.775    516.829
 75.170    577.000    555.548     21.452    516.879    549.149    516.879    523.298    516.879
 75.270    551.000    553.332     -2.332    516.929    547.391    516.929    522.882    516.929
 75.370    593.000    552.708     40.292    516.977    547.174    516.977    522.518    516.977
 75.470    561.000    554.166      6.834    517.024    548.994    517.024    522.197    517.024
 75.570    580.000    558.220     21.780    517.070    553.372    517.070    521.914    517.070
 75.670    575.214    565.383      9.831    517.116    560.826    517.116    521.662    517.116
 75.770    569.000    576.086     -7.086    517.160    571.790    517.160    521.438    517.160
 75.870    570.000    590.543    -20.543    517.202    586.482    517.202    521.238    517.202
 75.970    600.000    608.588     -8.588    517.244    604.738    517.244    521.060    517.244
 76.070    622.505    629.511     -7.006    517.285    625.853    517.285    520.900    517.285
 76.170    625.000    651.957    -26.957    517.324    648.473    517.324    520.756    517.324
 76.270    695.615    673.901     21.713    517.363    670.578    517.363    520.627    517.363
 76.370    699.697    692.753      6.945    517.400    689.577    517.400    520.510    517.400
 76.470    694.000    705.682    -11.682    517.436    702.647    517.436    520.405    517.436
 76.570    683.000    710.325    -27.325    517.471    707.423    517.471    520.309    517.471
 76.670    701.000    705.697     -4.697    517.505    702.920    517.505    520.223    517.505
 76.770    644.484    692.663    -48.180    517.537    690.006    517.537    520.144    517.537
 76.870    690.000    673.516     16.484    517.569    670.972    517.569    520.073    517.569
 76.970    598.000    651.061    -53.061    517.599    648.621    517.599    520.007    517.599
 77.070    635.000    627.896      7.104    517.628    625.553    517.628    519.947    517.628
 77.170    645.192    606.057     39.136    517.656    603.804    517.656    519.893    517.656
 77.270    583.000    586.897     -3.897    517.683    584.727    517.683    519.842    517.683
 77.370    570.217    571.102     -0.885    517.708    569.007    517.708    519.796    517.708
 77.470    582.000    558.786     23.214    517.733    556.760    517.733    519.753    517.733
 77.570    535.000    549.649    -14.649    517.756    547.688    517.756    519.714    517.756
 77.670    515.000    543.148    -28.148    517.778    541.247    517.778    519.677    517.778
 77.770    558.000    538.690     19.310    517.798    536.843    517.798    519.643    517.798
 77.870    540.000    535.736      4.264    517.818    533.941    517.818    519.611    517.818
 77.970    559.551    533.798     25.754    517.836    532.051    517.836    519.581    517.836
 78.070    505.126    532.524    -27.399    517.853    530.823    517.853    519.553    517.853
 78.170    489.679    531.674    -41.994    517.868    530.014    517.868    519.526    517.868
 78.270    506.785    531.092    -24.307    517.882    529.472    517.882    519.501    517.882
 78.370    546.000    530.687     15.313    517.896    529.105    517.896    519.477    517.896
 78.470    542.282    530.410     11.872    517.907    528.862    517.907    519.455    517.907
 78.570    510.000    530.236    -20.236    517.918    528.719    517.918    519.434    517.918
 78.670    512.751    530.163    -17.412    517.927    528.676    517.927    519.413    517.927
 78.770    531.000    530.200      0.800    517.935    528.739    517.935    519.395    517.935
 78.870    564.476    530.363     34.113    517.942    528.926    517.942    519.377    517.942
 78.970    535.533    530.677      4.856    517.947    529.262    517.947    519.362    517.947
 79.070    506.000    531.173    -25.173    517.951    529.774    517.951    519.348    517.951
 79.170    493.930    531.879    -37.949    517.954    530.494    517.954    519.337    517.954
 79.270    490.705    532.829    -42.124    517.955    531.452    517.955    519.330    517.955
 79.370    514.000    534.048    -20.048    517.955    532.674    517.955    519.326    517.955
 79.470    571.871    535.564     36.307    517.954    534.187    517.954    519.328    517.954
 79.570    562.000    537.411     24.589    517.952    536.023    517.952    519.335    517.952
 79.670    536.000    539.642     -3.642    517.948    538.236    517.948    519.349    517.948
 79.770    526.443    542.343    -15.900    517.942    540.911    517.942    519.369    517.942
 79.870    506.000    545.660    -39.660    517.936    544.193    517.936    519.397    517.936
 79.970    542.000    549.822     -7.822    517.928    548.312    517.928    519.431    517.928
 80.070    543.687    555.163    -11.476    517.918    553.605    517.918    519.471    517.918
 80.170    558.000    562.125     -4.125    517.908    560.514    517.908    519.515    517.908
 80.270    575.688    571.205      4.483    517.896    569.540    517.896    519.559    517.896
 80.370    603.000    582.853     20.147    517.882    581.136    517.882    519.600    517.882
 80.470    580.000    597.352    -17.352    517.868    595.592    517.868    519.631    517.868
 80.570    591.000    614.706    -23.706    517.851    612.919    517.851    519.647    517.851
 80.670    624.639    634.560     -9.921    517.834    632.765    517.834    519.642    517.834
 80.770    646.000    656.152    -10.152    517.815    654.373    517.815    519.612    517.815
 80.870    664.000    678.349    -14.349    517.795    676.610    517.795    519.558    517.795
 80.970    720.859    699.764     21.095    517.773    698.085    517.773    519.482    517.773
 81.070    705.000    718.957    -13.957    517.750    717.353    517.750    519.391    517.750
 81.170    695.000    734.631    -39.631    517.725    733.109    517.725    519.290    517.725
 81.270    762.000    745.744     16.256    517.699    744.308    517.699    519.185    517.699
 81.370    783.175    751.604     31.570    517.672    750.251    517.672    519.081    517.672
 81.470    754.000    751.935      2.065    517.643    750.660    517.643    518.979    517.643
 81.570    761.000    746.892     14.108    517.613    745.686    517.613    518.883    517.613
 81.670    737.000    737.005     -0.005    517.581    735.859    517.581    518.792    517.581
 81.770    734.000    723.148     10.852    517.548    722.054    517.548    518.708    517.548
 81.870    756.440    706.502     49.937    517.514    705.450    517.514    518.631    517.514
 81.970    725.000    688.390     36.610    517.478    687.372    517.478    518.559    517.478
 82.070    642.000    670.006    -28.006    517.441    669.014    517.441    518.493    517.441
 82.170    636.364    652.204    -15.840    517.402    651.233    517.402    518.430    517.402
 82.270    657.000    635.454     21.546    517.362    634.498    517.362    518.370    517.362
 82.370    645.000    619.946     25.054    517.320    619.001    517.320    518.313    517.320
 82.470    624.145    605.763     18.382    517.277    604.826    517.277    518.257    517.277
 82.570    589.000    593.004     -4.004    517.233    592.072    517.233    518.202    517.233
 82.670    569.000    581.816    -12.816    517.187    580.886    517.187    518.148    517.187
 82.770    518.000    572.361    -54.361    517.139    571.433    517.139    518.093    517.139
 82.870    547.000    564.787    -17.787    517.090    563.857    517.090    518.038    517.090
 82.970    539.000    559.203    -20.203    517.040    558.272    517.040    517.982    517.040
 83.070    531.000    555.675    -24.675    516.988    554.740    516.988    517.926    516.988
 83.170    517.000    554.195    -37.195    516.935    553.257    516.935    517.869    516.935
 83.270    528.753    554.667    -25.914    516.880    553.724    516.880    517.811    516.880
 83.370    541.599    556.881    -15.283    516.824    555.934    516.824    517.752    516.824
 83.470    553.000    560.507     -7.507    516.767    559.555    516.767    517.693    516.767
 83.570    519.000    565.090    -46.090    516.707    564.134    516.707    517.632    516.707
 83.670    571.000    570.066      0.934    516.647    569.105    516.647    517.570    516.647
 83.770    530.984    574.789    -43.805    516.585    573.824    516.585    517.507    516.585
 83.870    583.270    578.586      4.685    516.521    577.618    516.521    517.443    516.521
 83.970    564.026    580.843    -16.818    516.456    579.875    516.456    517.378    516.456
 84.070    571.000    581.132    -10.132    516.390    580.164    516.390    517.312    516.390
 84.170    569.000    579.323    -10.323    516.322    578.357    516.322    517.244    516.322
 84.270    570.475    575.617     -5.142    516.252    574.654    516.252    517.176    516.252
 84.370    548.783    570.467    -21.684    516.182    569.508    516.182    517.106    516.182
 84.470    548.000    564.435    -16.435    516.109    563.480    516.109    517.035    516.109
 84.570    529.000    558.079    -29.079    516.035    557.127    516.035    516.963    516.035
 84.670    569.000    551.877     17.123    515.960    550.928    515.960    516.890    515.960
 84.770    493.000    546.192    -53.192    515.883    545.244    515.883    516.816    515.883
 84.870    541.000    541.256     -0.256    515.805    540.308    515.805    516.741    515.805
 84.970    509.000    537.182    -28.182    515.725    536.233    515.725    516.664    515.725
 85.070    534.000    533.978      0.022    515.644    533.028    515.644    516.587    515.644
 85.170    530.000    531.580     -1.580    515.561    530.627    515.561    516.508    515.561
 85.270    550.000    529.881     20.119    515.477    528.925    515.477    516.428    515.477
 85.370    527.000    528.763     -1.763    515.391    527.802    515.391    516.347    515.391
 85.470    555.499    528.117     27.383    515.304    527.151    515.304    516.265    515.304
 85.570    565.000    527.861     37.139    515.215    526.890    515.215    516.182    515.215
 85.670    531.000    527.949      3.051    515.125    526.971    515.125    516.097    515.125
 85.770    501.000    528.375    -27.375    515.033    527.391    515.033    516.012    515.033
 85.870    539.000    529.179      9.821    514.940    528.186    514.940    515.925    514.940
 85.970    528.955    530.442     -1.487    514.846    529.441    514.846    515.837    514.846
 86.070    483.000    532.289    -49.289    514.749    531.278    514.749    515.749    514.749
 86.170    542.000    534.881      7.119    514.652    533.858    514.652    515.659    514.652
 86.270    526.939    538.402    -11.463    514.553    537.366    514.553    515.568    514.553
 86.370    540.000    543.040     -3.040    514.452    541.990    514.452    515.476    514.452
 86.470    551.000    548.960      2.040    514.350    547.893    514.350    515.383    514.350
 86.570    539.000    556.265    -17.265    514.247    555.180    514.247    515.289    514.247
 86.670    590.000    564.958     25.042    514.142    563.852    514.142    515.194    514.142
 86.770    579.000    574.899      4.101    514.035    573.771    514.035    515.098    514.035
 86.870    552.816    585.778    -32.962    513.928    584.627    513.928    515.001    513.928
 86.970    544.000    597.096    -53.096    513.818    595.922    513.818    514.904    513.818
 87.070    674.000    608.169     65.831    513.707    606.972    513.707    514.805    513.707
 87.170    600.585    618.151    -17.566    513.595    616.932    513.595    514.705    513.595
 87.270    687.000    626.145     60.855    513.481    624.907    513.481    514.605    513.481
 87.370    648.000    631.311     16.689    513.366    630.056    513.366    514.504    513.366
 87.470    665.000    633.053     31.947    513.249    631.787    513.249    514.402    513.249
 87.570    637.000    631.221      5.779    513.131    629.946    513.131    514.299    513.131
 87.670    665.207    626.141     39.066    513.012    624.860    513.012    514.196    513.012
 87.770    572.728    618.519    -45.790    512.891    617.233    512.891    514.092    512.891
 87.870    602.000    609.262     -7.262    512.768    607.972    512.768    513.988    512.768
 87.970    607.000    599.333      7.667    512.644    598.038    512.644    513.883    512.644
 88.070    594.000    589.642      4.358    512.519    588.339    512.519    513.777    512.519
 88.170    575.112    580.977     -5.866    512.392    579.666    512.392    513.671    512.392
 88.270    604.000    573.962     30.038    512.264    572.639    512.264    513.565    512.264
 88.370    610.000    569.026     40.974    512.134    567.691    512.134    513.458    512.134
 88.470    563.000    566.400     -3.400    512.003    565.049    512.003    513.351    512.003
 88.570    562.000    566.115     -4.115    511.870    564.746    511.870    513.245    511.870
 88.670    593.000    568.018     24.982    511.736    566.630    511.736    513.138    511.736
 88.770    538.437    571.790    -33.353    511.601    570.381    511.601    513.031    511.601
 88.870    614.000    576.964     37.036    511.464    575.532    511.464    512.924    511.464
 88.970    629.158    582.954     46.204    511.326    581.497    511.326    512.818    511.326
 89.070    570.000    589.081    -19.081    511.186    587.598    511.186    512.712    511.186
 89.170    674.000    594.617     79.383    511.045    593.105    511.045    512.607    511.045
 89.270    585.000    598.846    -13.846    510.903    597.301    510.903    512.503    510.903
 89.370    580.000    601.155    -21.155    510.759    599.574    510.759    512.400    510.759
 89.470    588.000    601.153    -13.153    510.614    599.532    510.614    512.298    510.614
 89.570    555.928    598.758    -42.830    510.467    597.090    510.467    512.198    510.467
 89.670    541.000    594.204    -53.204    510.319    592.485    510.319    512.099    510.319
 89.770    588.000    587.960      0.040    510.170    586.184    510.170    512.002    510.170
 89.870    601.699    580.610     21.089    510.019    578.772    510.019    511.908    510.019
 89.970    568.140    572.742     -4.601    509.867    570.837    509.867    511.817    509.867
 90.070    565.000    564.881      0.119    509.714    562.905    509.714    511.728    509.714
 90.170    592.000    557.453     34.547    509.559    555.400    509.559    511.644    509.559
 90.270    564.275    550.765     13.510    509.403    548.628    509.403    511.565    509.403
 90.370    501.000    545.004    -44.004    509.245    542.778    509.245    511.490    509.245
 90.470    501.000    540.248    -39.248    509.086    537.927    509.086    511.423    509.086
 90.570    503.764    536.490    -32.726    508.926    534.063    508.926    511.363    508.926
 90.670    568.575    533.656     34.920    508.765    531.114    508.765    511.314    508.765
 90.770    503.723    531.637    -27.914    508.602    528.966    508.602    511.277    508.602
 90.870    566.000    530.314     35.686    508.438    527.498    508.438    511.257    508.438
 90.970    482.567    529.572    -47.005    508.272    526.589    508.272    511.257    508.272
 91.070    528.165    529.291     -1.127    508.106    526.112    508.106    511.285    508.106
 91.170    505.000    529.491    -24.491    507.938    526.079    507.938    511.348    507.938
 91.270    567.833    530.149     37.684    507.768    526.458    507.768    511.457    507.768
 91.370    514.721    531.287    -16.566    507.598    527.255    507.598    511.626    507.598
 91.470    527.000    532.987     -5.987    507.426    528.538    507.426    511.870    507.426
 91.570    558.000    535.378     22.622    507.252    530.415    507.252    512.210    507.252
 91.670    569.736    538.636     31.100    507.078    533.038    507.078    512.668    507.078
 91.770    536.000    542.973     -6.973    506.902    536.595    506.902    513.271    506.902
 91.870    531.000    548.631    -17.631    506.725    541.298    506.725    514.044    506.725
 91.970    541.000    555.860    -14.860    506.547    547.373    506.547    515.017    506.547
 92.070    530.461    564.902    -34.441    506.368    555.031    506.368    516.216    506.368
 92.170    618.000    575.958     42.042    506.187    564.454    506.187    517.664    506.187
 92.270    615.000    589.162     25.838    506.005    575.757    506.005    519.377    506.005
 92.370    592.000    604.550    -12.550    505.822    588.970    505.822    521.361    505.822
 92.470    649.000    622.025     26.975    505.638    604.004    505.638    523.611    505.638
 92.570    602.000    641.354    -39.354    505.453    620.645    505.453    526.107    505.453
 92.670    652.000    662.144    -10.144    505.266    638.539    505.266    528.808    505.266
 92.770    712.000    683.827     28.173    505.078    657.182    505.078    531.654    505.078
 92.870    702.000    705.693     -3.693    504.889    675.951    504.889    534.556    504.889
 92.970    789.000    726.941     62.059    504.699    694.159    504.699    537.402    504.699
 93.070    782.000    746.774     35.226    504.508    711.154    504.508    540.046    504.508
 93.170    746.620    764.536    -17.916    504.316    726.444    504.316    542.324    504.316
 93.270    812.000    779.817     32.183    504.122    739.800    504.122    544.056    504.122
 93.370    793.000    792.507      0.493    503.928    751.273    503.928    545.079    503.928
 93.470    818.000    802.746     15.254    503.732    761.117    503.732    545.280    503.732
 93.570    760.110    810.852    -50.742    503.535    769.690    503.535    544.619    503.535
 93.670    795.231    817.259    -22.028    503.337    777.373    503.337    543.148    503.337
 93.770    827.000    822.495      4.505    503.138    784.571    503.138    540.989    503.138
 93.870    894.000    827.192     66.808    502.938    791.750    502.938    538.309    502.938
 93.970    850.000    832.063     17.937    502.737    799.443    502.737    535.288    502.737
 94.070    862.000    837.798     24.202    502.535    808.178    502.535    532.088    502.535
 94.170    882.109    844.899     37.211    502.332    818.315    502.332    528.851    502.332
 94.270    891.000    853.499     37.501    502.127    829.878    502.127    525.685    502.127
 94.370    822.999    863.256    -40.257    501.922    842.443    501.922    522.675    501.922
 94.470    900.399    873.336     27.063    501.716    855.117    501.716    519.878    501.716
 94.570    836.304    882.478    -46.173    501.509    866.602    501.509    517.332    501.509
 94.670    945.000    889.138     55.862    501.300    875.337    501.300    515.055    501.300
 94.770    920.000    891.719     28.281    501.091    879.720    501.091    513.051    501.091
 94.870    970.000    888.867     81.133    500.881    878.405    500.881    511.313    500.881
 94.970    864.811    879.784    -14.972    500.670    870.610    500.670    509.822    500.670
 95.070    892.000    864.436     27.564    500.458    856.327    500.458    508.555    500.458
 95.170    861.000    843.570     17.430    500.245    836.325    500.245    507.486    500.245
 95.270    851.024    818.600     32.424    500.031    812.046    500.031    506.586    500.031
 95.370    763.000    791.290    -28.290    499.816    785.282    499.816    505.829    499.816
 95.470    751.000    763.561    -12.561    499.601    757.979    499.601    505.190    499.601
 95.570    760.000    737.334     22.666    499.384    732.079    499.384    504.647    499.384
 95.670    707.000    714.420     -7.420    499.167    709.413    499.167    504.180    499.167
 95.770    710.000    696.452     13.548    498.948    691.630    498.948    503.773    498.948
 95.870    715.000    684.862     30.138    498.729    680.174    498.729    503.415    498.729
 95.970    704.000    680.868     23.132    498.509    676.273    498.509    503.094    498.509
 96.070    682.000    685.477     -3.477    498.289    680.943    498.289    502.805    498.289
 96.170    702.000    699.494      2.506    498.067    694.993    498.067    502.540    498.067
 96.270    729.000    723.498      5.502    497.845    719.008    497.845    502.296    497.845
 96.370    757.000    757.810     -0.810    497.622    753.312    497.622    502.070    497.622
 96.470    795.000    802.417     -7.417    497.398    797.893    497.398    501.859    497.398
 96.570    885.721    856.877     28.844    497.173    852.314    497.173    501.662    497.173
 96.670    950.390    920.223     30.166    496.948    915.605    496.948    501.479    496.948
 96.770    965.000    990.868    -25.868    496.722    986.184    496.722    501.309    496.722
 96.870   1010.000   1066.551    -56.551    496.495   1061.789    496.495    501.152    496.495
 96.970   1131.808   1144.329    -12.521    496.268   1139.480    496.268    501.007    496.268
 97.070   1223.000   1220.607      2.393    496.040   1215.660    496.040    500.875    496.040
 97.170   1351.572   1291.269     60.303    495.811   1286.214    495.811    500.757    495.811
 97.270   1308.117   1351.922    -43.805    495.582   1346.751    495.582    500.652    495.582
 97.370   1338.819   1398.317    -59.498    495.352   1393.019    495.352    500.563    495.352
 97.470   1398.780   1426.937    -28.157    495.122   1421.499    495.122    500.490    495.122
 97.570   1402.000   1435.629    -33.629    494.890   1430.036    494.890    500.434    494.890
 97.670   1469.948   1424.042     45.906    494.659   1418.275    494.659    500.399    494.659
 97.770   1350.063   1393.639    -43.576    494.426   1387.675    494.426    500.385    494.426
 97.870   1282.522   1347.323    -64.801    494.194   1341.133    494.194    500.396    494.194
 97.970   1228.000   1288.864    -60.864    493.960   1282.416    493.960    500.435    493.960
 98.070   1232.000   1222.387      9.613    493.726   1215.641    493.726    500.511    493.726
 98.170   1139.000   1151.986    -12.986    493.492   1144.893    493.492    500.631    493.492
 98.270   1086.000   1081.487      4.513    493.257   1073.988    493.257    500.805    493.257
 98.370   1027.000   1014.297     12.703    493.022   1006.322    493.022    501.045    493.022
 98.470    965.000    953.333     11.667    492.786    944.794    492.786    501.370    492.786
 98.570    891.927    900.997     -9.070    492.550    891.784    492.550    501.801    492.550
 98.670    851.119    859.192     -8.073    492.313    849.168    492.313    502.368    492.313
 98.770    840.000    829.375     10.625    492.076    818.367    492.076    503.106    492.076
 98.870    829.000    812.609     16.391    491.839    800.401    491.839    504.058    491.839
 98.970    815.000    809.684      5.316    491.601    796.010    491.601    505.278    491.601
 99.070    814.169    821.126     -6.957    491.363    805.656    491.363    506.826    491.363
 99.170    860.000    847.237     12.763    491.125    829.574    491.125    508.772    491.125
 99.270    856.000    888.109    -32.109    490.886    867.779    490.886    511.193    490.886
 99.370    931.000    943.576    -12.576    490.647    920.023    490.647    514.171    490.647
 99.470   1025.000   1013.140     11.860    490.408    985.726    490.408    517.789    490.408
 99.570   1016.000   1095.880    -79.880    490.169   1063.887    490.169    522.128    490.169
 99.670   1163.000   1190.357    -27.357    489.929   1152.996    489.929    527.258    489.929
 99.770   1314.000   1294.527     19.473    489.689   1250.955    489.689    533.235    489.689
 99.870   1449.222   1405.683     43.539    489.449   1355.021    489.449    540.094    489.449
 99.970   1537.000   1520.443     16.557    489.209   1461.812    489.209    547.837    489.209
100.070   1601.000   1634.828    -33.828    488.969   1567.381    488.969    556.429    488.969
100.170   1700.000   1744.456    -44.456    488.728   1667.428    488.728    565.792    488.728
100.270   1802.229   1844.867    -42.638    488.488   1757.618    488.488    575.795    488.488
100.370   1996.000   1931.911     64.089    488.247   1833.991    488.247    586.251    488.247
100.470   2067.000   2002.084     64.916    488.006   1893.293    488.006    596.907    488.006
100.570   2004.448   2052.691    -48.242    487.765   1933.145    487.765    607.445    487.765
100.670   2148.000   2081.828     66.172    487.524   1952.030    487.524    617.477    487.524
100.770   2031.000   2088.357    -57.357    487.284   1949.260    487.284    626.554    487.284
100.870   2124.715   2072.001     52.714    487.043   1925.044    487.043    634.186    487.043
100.970   1963.000   2033.602    -70.602    486.802   1880.711    486.802    639.888    486.802
101.070   1953.000   1975.363    -22.363    486.561   1818.880    486.561    643.243    486.561
101.170   1976.000   1900.858     75.142    486.321   1743.403    486.321    643.975    486.321
101.270   1863.087   1814.714     48.373    486.080   1658.981    486.080    642.005    486.080
101.370   1745.000   1722.051     22.949    485.840   1570.600    485.840    637.473    485.840
101.470   1640.000   1627.897     12.103    485.599   1482.964    485.599    630.702    485.599
101.570   1576.639   1536.709     39.930    485.359   1400.086    485.359    622.137    485.359
101.670   1453.000   1452.061      0.939    485.119   1325.049    485.119    612.270    485.119
101.770   1367.000   1376.490     -9.490    484.879   1259.908    484.879    601.585    484.879
101.870   1271.058   1311.443    -40.386    484.640   1205.680    484.640    590.513    484.640
101.970   1229.000   1257.321    -28.321    484.401   1162.395    484.401    579.424    484.401
102.070   1191.164   1213.562    -22.398    484.162   1129.195    484.162    568.617    484.162
102.170   1195.986   1178.789     17.197    483.923   1104.469    483.923    558.324    483.923
102.270   1144.000   1150.984     -6.984    483.685   1086.030    483.685    548.715    483.685
102.370   1166.000   1127.716     38.284    483.447   1071.331    483.447    539.905    483.447
102.470   1136.000   1106.412     29.588    483.209   1057.734    483.209    531.961    483.209
102.570   1078.000   1084.670     -6.670    482.972   1042.813    482.972    524.903    482.972
102.670   1097.443   1060.566     36.878    482.735   1024.656    482.735    518.721    482.735
102.770   1075.000   1032.882     42.118    482.499   1002.086    482.499    513.372    482.499
102.870   1057.000   1001.185     55.815    482.263    974.729    482.263    508.797    482.263
102.970   1025.544    965.740     59.804    482.028    942.925    482.028    504.920    482.028
103.070    918.453    927.319     -8.866    481.793    907.528    481.793    501.660    481.793
103.170    889.051    886.987      2.063    481.559    869.685    481.559    498.933    481.559
103.270    843.000    845.916     -2.916    481.325    830.649    481.325    496.659    481.325
103.370    788.000    805.253    -17.253    481.092    791.644    481.092    494.762    481.092
103.470    739.813    766.036    -26.224    480.859    753.775    480.859    493.176    480.859
103.570    763.000    729.137     33.863    480.627    717.972    480.627    491.842    480.627
103.670    736.984    695.225     41.759    480.396    684.954    480.396    490.710    480.396
103.770    643.000    664.749    -21.749    480.166    655.214    480.166    489.738    480.166
103.870    652.000    637.951     14.049    479.936    629.024    479.936    488.893    479.936
103.970    602.000    614.877    -12.877    479.707    606.460    479.707    488.149    479.707
104.070    618.558    595.406     23.152    479.479    587.420    479.479    487.484    479.479
104.170    580.625    579.293      1.333    479.251    571.677    479.251    486.882    479.251
104.270    553.000    566.204    -13.204    479.025    558.909    479.025    486.332    479.025
104.370    585.569    555.781     29.788    478.799    548.767    478.799    485.822    478.799
104.470    578.000    547.637     30.363    478.574    540.870    478.574    485.347    478.574
104.570    595.000    541.405     53.595    478.350    534.858    478.350    484.901    478.350
104.670    552.000    536.754     15.246    478.127    530.403    478.127    484.480    478.127
104.770    531.000    533.403     -2.403    477.905    527.228    477.905    484.080    477.905
104.870    557.000    531.122     25.878    477.684    525.105    477.684    483.700    477.684
104.970    504.000    529.740    -25.740    477.464    523.865    477.464    483.337    477.464
105.070    507.123    529.139    -22.016    477.245    523.390    477.245    482.990    477.245
105.170    564.000    529.250     34.750    477.027    523.615    477.027    482.657    477.027
105.270    552.751    530.050     22.701    476.811    524.516    476.811    482.338    476.811
105.370    515.000    531.558    -16.558    476.595    526.113    476.595    482.031    476.595
105.470    558.000    533.825     24.175    476.381    528.459    476.381    481.736    476.381
105.570    599.000    536.930     62.070    476.167    531.633    476.167    481.452    476.167
105.670    567.520    540.969     26.550    475.956    535.732    475.956    481.178    475.956
105.770    565.000    546.043     18.957    475.745    540.856    475.745    480.915    475.745
105.870    550.000    552.242     -2.242    475.535    547.096    475.535    480.661    475.535
105.970    593.000    559.630     33.370    475.327    554.518    475.327    480.416    475.327
106.070    583.000    568.234     14.766    475.121    563.148    475.121    480.180    475.121
106.170    587.913    578.028      9.885    474.915    572.960    474.915    479.953    474.915
106.270    595.000    588.924      6.076    474.711    583.868    474.711    479.734    474.711
106.370    586.000    600.768    -14.768    474.509    595.716    474.509    479.523    474.509
106.470    599.000    613.334    -14.334    474.308    608.281    474.308    479.320    474.308
106.570    627.000    626.335      0.665    474.108    621.274    474.108    479.126    474.108
106.670    637.000    639.419     -2.419    473.910    634.344    473.910    478.938    473.910
106.770    647.000    652.186     -5.186    473.714    647.093    473.714    478.759    473.714
106.870    710.226    664.210     46.016    473.519    659.093    473.519    478.587    473.519
106.970    638.077    675.060    -36.983    473.326    669.914    473.326    478.423    473.326
107.070    624.000    684.340    -60.340    473.134    679.160    473.134    478.267    473.134
107.170    664.161    691.741    -27.581    472.945    686.522    472.945    478.118    472.945
107.270    695.000    697.087     -2.087    472.757    691.823    472.757    477.977    472.757
107.370    658.000    700.374    -42.374    472.570    695.061    472.570    477.844    472.570
107.470    667.703    701.781    -34.078    472.386    696.413    472.386    477.718    472.386
107.570    667.000    701.642    -34.642    472.203    696.212    472.203    477.601    472.203
107.670    688.000    700.388    -12.388    472.022    694.891    472.022    477.492    472.022
107.770    739.114    698.483     40.631    471.844    692.912    471.844    477.392    471.844
107.870    652.000    696.368    -44.368    471.667    690.716    471.667    477.300    471.667
107.970    653.733    694.411    -40.678    471.492    688.672    471.492    477.217    471.492
108.070    730.151    692.883     37.268    471.319    687.049    471.319    477.143    471.319
108.170    655.024    691.932    -36.907    471.148    685.995    471.148    477.079    471.148
108.270    691.048    691.579     -0.530    470.979    685.532    470.979    477.024    470.979
108.370    685.000    691.717     -6.717    470.812    685.551    470.812    476.979    470.812
108.470    739.716    692.121     47.595    470.648    685.828    470.648    476.945    470.648
108.570    720.000    692.463     27.537    470.485    686.035    470.485    476.922    470.485
108.670    687.000    692.350     -5.350    470.325    685.777    470.325    476.910    470.325
108.770    649.716    691.363    -41.647    470.167    684.634    470.167    476.910    470.167
108.870    715.913    689.116     26.797    470.011    682.221    470.011    476.923    470.011
108.970    708.000    685.314     22.686    469.858    678.243    469.858    476.948    469.858
109.070    668.907    679.801    -10.894    469.707    672.541    469.707    476.988    469.707
109.170    684.408    672.576     11.832    469.559    665.115    469.559    477.042    469.559
109.270    677.236    663.787     13.448    469.412    656.111    469.412    477.111    469.412
109.370    628.485    653.696    -25.211    469.269    645.790    469.269    477.196    469.269
109.470    607.679    642.632    -34.952    469.128    634.482    469.128    477.299    469.128
109.570    605.000    630.954    -25.954    468.989    622.544    468.989    477.420    468.989
109.670    692.000    619.001     72.999    468.853    610.313    468.853    477.560    468.853
109.770    569.000    607.139    -38.139    468.720    598.153    468.720    477.722    468.720
109.870    630.000    595.685     34.315    468.589    586.383    468.589    477.907    468.589
109.970    570.017    584.878    -14.861    468.461    575.236    468.461    478.117    468.461
110.070    535.000    574.917    -39.917    468.336    564.911    468.336    478.353    468.336
110.170    626.000    565.949     60.051    468.213    555.556    468.213    478.615    468.213
110.270    574.000    558.080     15.920    468.093    547.265    468.093    478.916    468.093
110.370    584.000    551.354     32.646    467.976    540.080    467.976    479.256    467.976
110.470    532.000    545.774    -13.774    467.863    534.001    467.863    479.639    467.863
110.570    537.000    541.307     -4.307    467.752    528.988    467.752    480.073    467.752
110.670    544.702    537.896      6.805    467.643    524.975    467.643    480.566    467.643
110.770    540.217    535.464      4.753    467.538    521.874    467.538    481.127    467.538
110.870    522.243    533.924    -11.681    467.436    519.587    467.436    481.771    467.436
110.970    525.708    533.187     -7.479    467.338    518.008    467.338    482.513    467.338
111.070    512.000    533.170    -21.170    467.242    517.036    467.242    483.372    467.242
111.170    556.000    533.799     22.201    467.149    516.571    467.149    484.372    467.149
111.270    572.357    535.011     37.346    467.060    516.524    467.060    485.541    467.060
111.370    536.101    536.752     -0.651    466.974    516.814    466.974    486.905    466.974
111.470    566.000    539.011     26.989    466.891    517.371    466.891    488.523    466.891
111.570    534.000    541.770     -7.770    466.812    518.139    466.812    490.434    466.812
111.670    582.385    545.036     37.349    466.736    519.069    466.736    492.694    466.736
111.770    499.000    548.834    -49.834    466.663    520.125    466.663    495.363    466.663
111.870    583.580    553.210     30.369    466.594    521.281    466.594    498.512    466.594
111.970    541.830    558.226    -16.396    466.528    522.524    466.528    502.219    466.528
112.070    569.000    563.961      5.039    466.466    523.849    466.466    506.567    466.466
112.170    510.000    570.508    -60.508    466.408    525.261    466.408    511.643    466.408
112.270    602.323    577.974     24.348    466.353    526.776    466.353    517.539    466.353
112.370    560.377    586.472    -26.095    466.302    528.416    466.302    524.346    466.302
112.470    561.000    596.121    -35.121    466.254    530.213    466.254    532.150    466.254
112.570    563.199    607.041    -43.841    466.210    532.204    466.210    541.034    466.210
112.670    606.661    619.351    -12.690    466.171    534.442    466.171    551.065    466.171
112.770    625.000    633.167     -8.167    466.135    536.989    466.135    562.299    466.135
112.870    662.510    648.605     13.905    466.103    539.927    466.103    574.765    466.103
112.970    692.000    665.775     26.225    466.075    543.361    466.075    588.471    466.075
113.070    732.083    684.791     47.292    466.050    547.432    466.050    603.392    466.050
113.170    719.641    705.777     13.863    466.030    552.323    466.030    619.466    466.030
113.270    680.481    728.873    -48.392    466.014    558.275    466.014    636.592    466.014
113.370    662.000    754.250    -92.250    466.003    565.605    466.003    654.624    466.003
113.470    769.000    782.127    -13.127    465.995    574.726    465.995    673.369    465.995
113.570    773.949    812.789    -38.840    465.991    586.169    465.991    692.581    465.991
113.670    875.664    846.613     29.051    465.992    600.611    465.992    711.959    465.992
113.770    924.458    884.091     40.367    465.998    618.901    465.998    731.146    465.998
113.870    895.000    925.859    -30.859    466.007    642.086    466.007    749.730    466.007
113.970    982.746    972.724     10.021    466.021    671.442    466.021    767.245    466.021
114.070   1026.000   1025.702      0.298    466.039    708.488    466.039    783.182    466.039
114.170   1089.000   1086.042      2.958    466.062    755.006    466.062    797.013    466.062
114.270   1090.000   1155.266    -65.266    466.090    813.031    466.090    808.220    466.090
114.370   1219.000   1235.186    -16.186    466.122    884.845    466.122    816.337    466.122
114.470   1392.000   1327.920     64.080    466.159    972.929    466.159    820.998    466.159
114.570   1464.000   1435.874     28.126    466.200   1079.908    466.200    821.983    466.200
114.670   1614.000   1561.674     52.326    466.246   1208.457    466.246    819.246    466.246
114.770   1763.859   1708.060     55.799    466.297   1361.179    466.297    812.920    466.297
114.870   1895.897   1877.717     18.180    466.353   1540.464    466.353    803.303    466.353
114.970   2085.684   2073.067     12.617    466.414   1748.313    466.414    790.815    466.414
115.070   2336.627   2296.033     40.594    466.480   1986.152    466.480    775.955    466.480
115.170   2572.000   2547.795     24.205    466.551   2254.633    466.551    759.251    466.551
115.270   2854.000   2828.564     25.436    466.626   2553.447    466.626    741.226    466.626
115.370   3115.000   3137.380    -22.380    466.707   2881.147    466.707    722.368    466.707
115.470   3458.000   3471.957    -13.957    466.793   3235.007    466.793    703.118    466.793
115.570   3775.656   3828.579    -52.923    466.885   3610.927    466.885    683.862    466.885
115.670   3978.000   4202.058   -224.058    466.981   4003.394    466.981    664.930    466.981
115.770   4518.000   4585.757    -67.757    467.083   4405.500    467.083    646.594    467.083
115.870   5053.631   4971.685     81.946    467.190   4809.036    467.190    629.074    467.190
115.970   5217.000   5350.661   -133.661    467.303   5204.654    467.303    612.539    467.303
116.070   5679.849   5712.555    -32.706    467.421   5582.102    467.421    597.114    467.421
116.170   5931.000   6046.614   -115.614    467.544   5930.548    467.544    582.878    467.544
116.270   6295.000   6341.889    -46.889    467.673   6239.001    467.673    569.876    467.673
116.370   6608.000   6587.785     20.215    467.808   6496.856    467.808    558.115    467.808
116.470   6810.084   6774.728     35.357    467.949   6694.557    467.949    547.577    467.949
116.570   6882.626   6894.911    -12.285    468.095   6824.338    468.095    538.218    468.095
116.670   7126.000   6943.029    182.971    468.247   6880.954    468.247    529.977    468.247
116.770   7031.825   6916.827    114.999    468.404   6862.218    468.404    522.778    468.404
116.870   6914.000   6817.362     96.638    468.568   6769.269    468.568    516.537    468.568
116.970   6702.000   6648.894     53.106    468.738   6606.449    468.738    511.164    468.738
117.070   6514.845   6418.312     96.534    468.913   6380.736    468.913    506.567    468.913
117.170   6008.521   6134.512   -125.991    469.095   6101.113    469.095    502.658    469.095
117.270   5745.000   5807.636    -62.636    469.283   5777.804    469.283    499.351    469.283
117.370   5418.327   5448.379    -30.052    469.477   5421.584    469.477    496.564    469.477
117.470   5154.207   5067.413     86.794    469.677   5043.199    469.677    494.225    469.677
117.570   4562.000   4674.937   -112.937    469.883   4652.915    469.883    492.266    469.883
117.670   4308.000   4280.333     27.667    470.096   4260.172    470.096    490.630    470.096
117.770   3963.000   3891.910     71.090    470.315   3873.333    470.315    489.265    470.315
117.870   3720.000   3516.734    203.266    470.541   3499.510    470.541    488.128    470.541
117.970   3384.000   3160.526    223.474    470.773   3144.463    470.773    487.180    470.773
118.070   2881.298   2827.642     53.656    471.012   2812.581    471.012    486.390    471.012
118.170   2526.000   2521.105      4.895    471.257   2506.917    471.257    485.733    471.257
118.270   2334.501   2242.703     91.797    471.509   2229.281    471.509    485.187    471.509
118.370   1905.433   1993.123    -87.690    471.768   1980.378    471.768    484.734    471.768
118.470   1839.819   1772.106     67.713    472.033   1759.967    472.033    484.360    472.033
118.570   1552.000   1578.624    -26.624    472.306   1567.032    472.306    484.054    472.306
118.670   1452.009   1411.061     40.948    472.585   1399.966    472.585    483.807    472.585
118.770   1174.000   1267.382    -93.382    472.871   1256.742    472.871    483.612    472.871
118.870   1163.838   1145.294     18.544    473.164   1135.074    473.164    483.462    473.164
118.970    981.053   1042.390    -61.337    473.465   1032.561    473.465    483.353    473.465
119.070    911.934    956.268    -44.334    473.772    946.802    473.772    483.282    473.772
119.170    886.000    884.621      1.379    474.087    875.493    474.087    483.244    474.087
119.270    830.000    825.303      4.697    474.409    816.493    474.409    483.240    474.409
119.370    800.058    776.375     23.683    474.738    767.861    474.738    483.265    474.738
119.470    758.756    736.122     22.634    475.075    727.885    475.075    483.320    475.075
119.570    680.261    703.061    -22.800    475.419    695.082    475.419    483.402    475.419
119.670    697.000    675.930     21.070    475.770    668.190    475.770    483.511    475.770
119.770    655.000    653.673      1.327    476.130    646.156    476.130    483.647    476.130
119.870    638.441    635.421      3.020    476.496    628.107    476.496    483.809    476.496
119.970    594.000    620.462    -26.462    476.871    613.335    476.871    483.998    476.871
120.070    589.138    608.225    -19.087    477.253    601.265    477.253    484.212    477.253
120.170    600.000    598.251      1.749    477.643    591.442    477.643    484.453    477.643
120.270    562.902    590.179    -27.277    478.041    583.501    478.041    484.720    478.041
120.370    560.296    583.722    -23.426    478.447    577.156    478.447    485.014    478.447
120.470    607.029    578.655     28.375    478.861    572.181    478.861    485.336    478.861
120.570    595.606    574.803     20.804    479.283    568.402    479.283    485.686    479.283
120.670    568.356    572.029     -3.673    479.713    565.681    479.713    486.064    479.713
120.770    584.000    570.227     13.773    480.152    563.910    480.152    486.472    480.152
120.870    589.000    569.311     19.689    480.598    563.004    480.598    486.910    480.598
120.970    612.000    569.215     42.785    481.053    562.896    481.053    487.378    481.053
121.070    538.000    569.881    -31.881    481.517    563.527    481.517    487.877    481.517
121.170    568.000    571.260     -3.260    481.988    564.849    481.988    488.407    481.988
121.270    595.163    573.303     21.860    482.469    566.813    482.469    488.968    482.469
121.370    560.000    575.964    -15.964    482.957    569.372    482.957    489.560    482.957
121.470    585.000    579.190      5.810    483.455    572.476    483.455    490.182    483.455
121.570    589.486    582.927      6.559    483.961    576.068    483.961    490.834    483.961
121.670    581.000    587.108     -6.108    484.476    580.086    484.476    491.515    484.476
121.770    590.000    591.664     -1.664    485.000    584.461    485.000    492.223    485.000
121.870    574.000    596.512    -22.512    485.533    589.111    485.533    492.955    485.533
121.970    585.000    601.563    -16.563    486.075    593.952    486.075    493.710    486.075
122.070    594.000    606.718    -12.718    486.626    598.886    486.626    494.485    486.626
122.170    622.000    611.872     10.128    487.186    603.811    487.186    495.276    487.186
122.270    629.000    616.912     12.088    487.755    608.620    487.755    496.079    487.755
122.370    620.000    621.723     -1.723    488.333    613.201    488.333    496.890    488.333
122.470    622.000    626.188     -4.188    488.921    617.443    488.921    497.704    488.921
122.570    642.000    630.197     11.803    489.518    621.240    489.518    498.515    489.518
122.670    657.000    633.647     23.353    490.125    624.496    490.125    499.318    490.125
122.770    649.353    636.450     12.903    490.741    627.128    490.741    500.106    490.741
122.870    684.850    638.540     46.310    491.367    629.078    491.367    500.873    491.367
122.970    616.474    639.875    -23.402    492.002    630.309    492.002    501.614    492.002
123.070    597.000    640.441    -43.441    492.648    630.811    492.648    502.323    492.648
123.170    676.000    640.251     35.749    493.303    630.602    493.303    502.997    493.303
123.270    665.000    639.340     25.660    493.968    629.721    493.968    503.632    493.968
123.370    645.000    637.767      7.233    494.642    628.226    494.642    504.227    494.642
123.470    646.000    635.602     10.398    495.327    626.188    495.327    504.783    495.327
123.570    629.363    632.929     -3.567    496.022    623.688    496.022    505.303    496.022
123.670    663.544    629.835     33.710    496.728    620.809    496.728    505.791    496.728
123.770    596.264    626.408    -30.144    497.443    617.634    497.443    506.251    497.443
123.870    639.000    622.734     16.266    498.169    614.244    498.169    506.690    498.169
123.970    652.625    618.894     33.730    498.905    610.716    498.905    507.113    498.905
124.070    653.000    614.964     38.036    499.651    607.116    499.651    507.526    499.651
124.170    690.000    611.007     78.993    500.408    603.503    500.408    507.936    500.408
124.270    608.000    607.077      0.923    501.176    599.926    501.176    508.347    501.176
124.370    597.000    603.216     -6.216    501.955    596.423    501.955    508.765    501.955
124.470    602.891    599.456      3.434    502.744    593.021    502.744    509.194    502.744
124.570    623.000    595.819     27.181    503.544    589.736    503.544    509.639    503.544
124.670    594.903    592.315      2.588    504.355    586.578    504.355    510.102    504.355
124.770    556.000    588.950    -32.950    505.177    583.548    505.177    510.587    505.177
124.870    585.000    585.722     -0.722    506.010    580.643    506.010    511.095    506.010
124.970    587.000    582.626      4.374    506.854    577.856    506.854    511.629    506.854
