neutron_powder_diffraction_0182
R_wp: 3.923
Temperature (K): 1074.000
Counts: 83823.00
Wavelength (Ã…): 2.52098
COMMENTS
Test file for demonstrating the .xyy file format in Reel1.0
END OF HEADER
   tth       Y_obs     Y_calc      Y_res    Background    Phase_1_Nuc    Phase_1_Mag    Phase_2_Nuc    Phase_2_Mag
  9.970    601.000    573.133     27.867    572.428    573.066    572.428    572.495    572.428
 10.070    578.000    573.293      4.707    572.514    573.225    572.514    572.581    572.514
 10.170    536.238    573.441    -37.203    572.594    573.373    572.594    572.661    572.594
 10.270    544.641    573.590    -28.949    572.667    573.522    572.667    572.735    572.667
 10.370    567.000    573.746     -6.746    572.735    573.677    572.735    572.803    572.735
 10.470    547.204    573.910    -26.706    572.797    573.841    572.797    572.865    572.797
 10.570    532.393    574.087    -41.695    572.852    574.018    572.852    572.921    572.852
 10.670    556.000    574.282    -18.282    572.902    574.213    572.902    572.971    572.902
 10.770    558.216    574.501    -16.285    572.947    574.431    572.947    573.016    572.947
 10.870    548.000    574.754    -26.754    572.985    574.683    572.985    573.055    572.985
 10.970    615.114    575.051     40.063    573.018    574.980    573.018    573.088    573.018
 11.070    569.085    575.412     -6.327    573.045    575.341    573.045    573.115    573.045
 11.170    642.000    575.862     66.138    573.067    575.790    573.067    573.137    573.067
 11.270    551.000    576.440    -25.440    573.083    576.368    573.083    573.154    573.083
 11.370    582.127    577.217      4.910    573.094    577.144    573.094    573.165    573.094
 11.470    630.000    578.342     51.658    573.099    578.268    573.099    573.171    573.099
 11.570    580.000    580.234     -0.234    573.100    580.158    573.100    573.171    573.100
 11.670    647.000    584.068     62.932    573.094    583.990    573.094    573.166    573.094
 11.770    554.039    592.540    -38.501    573.084    592.457    573.084    573.156    573.084
 11.870    683.000    609.940     73.060    573.068    609.846    573.068    573.141    573.068
 11.970    636.000    639.526     -3.526    573.048    639.416    573.048    573.121    573.048
 12.070    703.210    677.439     25.771    573.022    677.307    573.022    573.095    573.022
 12.170    661.591    707.189    -45.598    572.991    707.040    572.991    573.065    572.991
 12.270    694.000    708.128    -14.128    572.955    707.974    572.955    573.034    572.955
 12.370    664.000    679.379    -15.379    572.915    679.239    572.915    572.995    572.915
 12.470    624.000    641.232    -17.232    572.869    641.113    572.869    572.950    572.869
 12.570    611.000    610.913      0.087    572.819    610.810    572.819    572.900    572.819
 12.670    566.000    592.854    -26.854    572.764    592.761    572.764    572.846    572.764
 12.770    572.000    583.975    -11.975    572.704    583.887    572.704    572.786    572.704
 12.870    614.000    579.926     34.074    572.639    579.839    572.639    572.722    572.639
 12.970    579.000    577.911      1.089    572.570    577.825    572.570    572.654    572.570
 13.070    553.000    576.696    -23.696    572.497    576.610    572.497    572.580    572.497
 13.170    560.000    575.843    -15.843    572.418    575.757    572.418    572.502    572.418
 13.270    585.000    575.192      9.808    572.336    575.106    572.336    572.420    572.336
 13.370    599.000    574.674     24.326    572.249    574.588    572.249    572.334    572.249
 13.470    564.000    574.247    -10.247    572.157    574.161    572.157    572.243    572.157
 13.570    561.000    573.887    -12.887    572.062    573.800    572.062    572.147    572.062
 13.670    574.000    573.573      0.427    571.962    573.486    571.962    572.048    571.962
 13.770    574.456    573.295      1.161    571.857    573.208    571.857    571.944    571.857
 13.870    558.000    573.043    -15.043    571.749    572.956    571.749    571.836    571.749
 13.970    521.000    572.811    -51.811    571.636    572.723    571.636    571.724    571.636
 14.070    613.355    572.593     40.762    571.520    572.505    571.520    571.608    571.520
 14.170    557.000    572.387    -15.387    571.399    572.298    571.399    571.487    571.399
 14.270    565.713    572.189     -6.476    571.275    572.100    571.275    571.363    571.275
 14.370    609.959    571.998     37.961    571.146    571.908    571.146    571.235    571.146
 14.470    565.472    571.810     -6.338    571.014    571.720    571.014    571.103    571.014
 14.570    590.000    571.627     18.373    570.877    571.536    570.877    570.967    570.877
 14.670    526.523    571.448    -44.925    570.737    571.357    570.737    570.828    570.737
 14.770    551.000    571.269    -20.269    570.593    571.177    570.593    570.684    570.593
 14.870    560.033    571.089    -11.056    570.446    570.997    570.446    570.537    570.446
 14.970    568.000    570.909     -2.909    570.294    570.817    570.294    570.386    570.294
 15.070    544.000    570.729    -26.729    570.140    570.636    570.140    570.232    570.140
 15.170    593.000    570.548     22.452    569.981    570.454    569.981    570.074    569.981
 15.270    549.000    570.365    -21.365    569.819    570.272    569.819    569.913    569.819
 15.370    560.000    570.182    -10.182    569.654    570.088    569.654    569.748    569.654
 15.470    570.000    569.997      0.003    569.485    569.902    569.485    569.579    569.485
 15.570    545.980    569.811    -23.831    569.313    569.716    569.313    569.408    569.313
 15.670    585.000    569.624     15.376    569.137    569.528    569.137    569.232    569.137
 15.770    545.633    569.434    -23.801    568.958    569.337    568.958    569.054    568.958
 15.870    585.501    569.241     16.260    568.776    569.144    568.776    568.872    568.776
 15.970    589.000    569.046     19.954    568.590    568.949    568.590    568.687    568.590
 16.070    540.679    568.849    -28.171    568.402    568.751    568.402    568.499    568.402
 16.170    613.769    568.650     45.119    568.210    568.551    568.210    568.308    568.210
 16.270    562.000    568.448     -6.448    568.015    568.349    568.015    568.114    568.015
 16.370    559.000    568.244     -9.244    567.817    568.145    567.817    567.916    567.817
 16.470    524.000    568.038    -44.038    567.616    567.938    567.616    567.716    567.616
 16.570    564.000    567.829     -3.829    567.412    567.729    567.412    567.513    567.412
 16.670    523.600    567.619    -44.019    567.205    567.517    567.205    567.306    567.205
 16.770    569.000    567.405      1.595    566.995    567.303    566.995    567.097    566.995
 16.870    569.645    567.190      2.455    566.783    567.087    566.783    566.885    566.783
 16.970    595.110    566.972     28.138    566.567    566.868    566.567    566.671    566.567
 17.070    578.000    566.752     11.248    566.349    566.648    566.349    566.453    566.349
 17.170    567.000    566.529      0.471    566.128    566.425    566.128    566.233    566.128
 17.270    567.000    566.305      0.695    565.904    566.199    565.904    566.010    565.904
 17.370    569.000    566.080      2.920    565.678    565.974    565.678    565.784    565.678
 17.470    586.006    565.851     20.155    565.449    565.744    565.449    565.556    565.449
 17.570    538.000    565.619    -27.619    565.218    565.512    565.218    565.325    565.218
 17.670    520.558    565.385    -44.827    564.984    565.277    564.984    565.092    564.984
 17.770    598.000    565.152     32.848    564.747    565.040    564.747    564.859    564.747
 17.870    603.000    564.914     38.086    564.508    564.802    564.508    564.621    564.508
 17.970    607.676    564.674     43.002    564.267    564.561    564.267    564.381    564.267
 18.070    555.077    564.432     -9.355    564.023    564.317    564.023    564.138    564.023
 18.170    570.121    564.187      5.934    563.777    564.072    563.777    563.892    563.777
 18.270    603.000    563.941     39.059    563.529    563.825    563.529    563.645    563.529
 18.370    598.890    563.693     35.197    563.278    563.576    563.278    563.395    563.278
 18.470    538.384    563.442    -25.058    563.025    563.325    563.025    563.143    563.025
 18.570    582.000    563.190     18.810    562.770    563.072    562.770    562.889    562.770
 18.670    580.000    562.937     17.063    562.513    562.818    562.513    562.633    562.513
 18.770    530.000    562.682    -32.682    562.254    562.562    562.254    562.374    562.254
 18.870    542.000    562.426    -20.426    561.993    562.305    561.993    562.114    561.993
 18.970    521.083    562.166    -41.084    561.729    562.044    561.729    561.851    561.729
 19.070    561.000    561.905     -0.905    561.464    561.782    561.464    561.587    561.464
 19.170    577.000    561.643     15.357    561.196    561.519    561.196    561.320    561.196
 19.270    555.000    561.378     -6.378    560.927    561.253    560.927    561.052    560.927
 19.370    528.772    561.112    -32.340    560.656    560.986    560.656    560.782    560.656
 19.470    596.167    560.845     35.322    560.383    560.718    560.383    560.509    560.383
 19.570    531.000    560.576    -29.576    560.108    560.448    560.108    560.236    560.108
 19.670    528.896    560.305    -31.409    559.831    560.176    559.831    559.960    559.831
 19.770    534.000    560.034    -26.034    559.552    559.903    559.552    559.682    559.552
 19.870    556.000    559.762     -3.762    559.272    559.631    559.272    559.403    559.272
 19.970    537.244    559.501    -22.257    558.990    559.369    558.990    559.123    558.990
 20.070    586.895    559.235     27.659    558.707    559.102    558.707    558.840    558.707
 20.170    591.000    558.960     32.040    558.421    558.825    558.421    558.556    558.421
 20.270    551.000    558.682     -7.682    558.135    558.546    558.135    558.271    558.135
 20.370    523.193    558.403    -35.211    557.846    558.266    557.846    557.984    557.846
 20.470    525.000    558.124    -33.124    557.557    557.985    557.557    557.695    557.557
 20.570    541.000    557.843    -16.843    557.265    557.703    557.265    557.405    557.265
 20.670    553.000    557.562     -4.562    556.972    557.421    556.972    557.113    556.972
 20.770    560.500    557.279      3.220    556.678    557.137    556.678    556.821    556.678
 20.870    553.539    556.997     -3.457    556.383    556.853    556.383    556.526    556.383
 20.970    530.000    556.713    -26.713    556.086    556.568    556.086    556.231    556.086
 21.070    595.822    556.430     39.393    555.787    556.283    555.787    555.934    555.787
 21.170    551.000    556.145     -5.145    555.488    555.997    555.488    555.636    555.488
 21.270    583.323    555.861     27.462    555.187    555.711    555.187    555.337    555.187
 21.370    570.000    555.576     14.424    554.885    555.425    554.885    555.036    554.885
 21.470    519.000    555.292    -36.292    554.582    555.139    554.582    554.735    554.582
 21.570    533.000    555.016    -22.016    554.277    554.861    554.277    554.432    554.277
 21.670    563.000    554.814      8.186    553.972    554.657    553.972    554.128    553.972
 21.770    547.000    554.552     -7.552    553.665    554.394    553.665    553.823    553.665
 21.870    550.000    554.271     -4.271    553.357    554.111    553.357    553.517    553.357
 21.970    598.584    553.990     44.594    553.048    553.828    553.048    553.210    553.048
 22.070    598.569    553.710     44.859    552.738    553.546    552.738    552.903    552.738
 22.170    521.000    553.432    -32.432    552.428    553.266    552.428    552.594    552.428
 22.270    567.000    553.158     13.842    552.116    552.990    552.116    552.284    552.116
 22.370    567.000    552.908     14.092    551.803    552.737    551.803    551.974    551.803
 22.470    562.000    552.668      9.332    551.490    552.496    551.490    551.662    551.490
 22.570    503.000    552.410    -49.410    551.175    552.235    551.175    551.350    551.175
 22.670    512.814    552.194    -39.380    550.860    552.017    550.860    551.037    550.860
 22.770    599.000    551.958     47.042    550.544    551.778    550.544    550.724    550.544
 22.870    531.306    551.712    -20.406    550.227    551.529    550.227    550.410    550.227
 22.970    562.000    551.474     10.526    549.909    551.288    549.909    550.095    549.909
 23.070    586.994    551.246     35.747    549.591    551.059    549.591    549.779    549.591
 23.170    569.000    551.034     17.966    549.272    550.843    549.272    549.463    549.272
 23.270    553.000    550.841      2.159    548.952    550.648    548.952    549.146    548.952
 23.370    562.000    550.668     11.332    548.632    550.472    548.632    548.829    548.632
 23.470    595.000    550.524     44.476    548.311    550.325    548.311    548.511    548.311
 23.570    595.323    550.419     44.904    547.989    550.216    547.989    548.193    547.989
 23.670    546.269    550.365     -4.096    547.667    550.159    547.667    547.875    547.667
 23.770    566.000    550.383     15.617    547.344    550.173    547.344    547.556    547.344
 23.870    550.000    550.504     -0.504    547.021    550.290    547.021    547.236    547.021
 23.970    549.000    550.784     -1.784    546.697    550.567    546.697    546.917    546.697
 24.070    560.000    551.359      8.641    546.373    551.138    546.373    546.597    546.373
 24.170    534.000    552.610    -18.610    546.049    552.385    546.049    546.277    546.049
 24.270    598.902    555.526     43.376    545.724    555.299    545.724    545.957    545.724
 24.370    552.000    562.132    -10.132    545.399    561.905    545.399    545.637    545.399
 24.470    583.000    575.154      7.846    545.073    574.932    545.073    545.316    545.073
 24.570    607.000    595.853     11.147    544.747    595.640    544.747    544.996    544.747
 24.670    634.000    620.145     13.855    544.421    619.944    544.421    544.675    544.421
 24.770    632.000    636.158     -4.158    544.094    635.963    544.094    544.355    544.094
 24.870    617.697    632.200    -14.503    543.767    631.995    543.767    544.034    543.767
 24.970    597.441    611.444    -14.004    543.440    611.218    543.440    543.714    543.440
 25.070    546.659    587.036    -40.377    543.113    586.786    543.113    543.394    543.113
 25.170    525.404    568.238    -42.834    542.786    567.966    542.786    543.075    542.786
 25.270    552.000    557.008     -5.008    542.458    556.720    542.458    542.755    542.458
 25.370    566.000    551.292     14.708    542.130    550.991    542.130    542.436    542.130
 25.470    531.000    548.501    -17.501    541.803    548.188    541.803    542.118    541.803
 25.570    537.000    546.980     -9.980    541.475    546.657    541.475    541.800    541.475
 25.670    610.000    545.982     64.018    541.147    545.648    541.147    541.483    541.147
 25.770    618.000    545.235     72.765    540.819    544.889    540.819    541.166    540.819
 25.870    579.461    544.636     34.825    540.491    544.277    540.491    540.851    540.491
 25.970    579.000    544.138     34.862    540.163    543.765    540.163    540.536    540.163
 26.070    621.000    543.719     77.281    539.835    543.332    539.835    540.223    539.835
 26.170    545.000    543.365      1.635    539.507    542.962    539.507    539.910    539.507
 26.270    549.000    543.062      5.938    539.179    542.642    539.179    539.599    539.179
 26.370    541.000    542.811     -1.811    538.852    542.373    538.852    539.290    538.852
 26.470    562.000    542.633     19.367    538.524    542.175    538.524    538.982    538.524
 26.570    524.000    542.502    -18.502    538.197    542.022    538.197    538.677    538.197
 26.670    563.000    542.404     20.596    537.869    541.900    537.869    538.373    537.869
 26.770    600.000    542.368     57.632    537.542    541.838    537.542    538.072    537.542
 26.870    522.000    542.415    -20.415    537.216    541.856    537.216    537.775    537.216
 26.970    528.205    542.554    -14.349    536.889    541.962    536.889    537.480    536.889
 27.070    553.000    542.793     10.207    536.563    542.165    536.563    537.189    536.563
 27.170    521.126    543.179    -22.053    536.236    542.512    536.236    536.903    536.236
 27.270    537.000    543.775     -6.775    535.911    543.063    535.911    536.622    535.911
 27.370    579.000    544.662     34.338    535.585    543.899    535.585    536.346    535.585
 27.470    569.000    545.950     23.050    535.260    545.130    535.260    536.078    535.260
 27.570    538.000    548.031    -10.031    534.935    547.146    534.935    535.818    534.935
 27.670    492.000    552.249    -60.249    534.611    551.289    534.611    535.567    534.611
 27.770    599.000    563.238     35.762    534.287    562.190    534.287    535.328    534.287
 27.870    623.000    592.930     30.070    533.963    591.773    533.963    535.103    533.963
 27.970    698.000    660.157     37.843    533.640    658.863    533.640    534.894    533.640
 28.070    785.170    773.530     11.640    533.317    772.067    533.317    534.707    533.317
 28.170    931.000    900.783     30.217    532.995    899.131    532.995    534.545    532.995
 28.270    945.908    963.514    -17.606    532.673    961.670    532.673    534.416    532.673
 28.370    869.000    910.143    -41.143    532.352    908.101    532.352    534.330    532.352
 28.470    839.000    795.401     43.599    532.031    793.103    532.031    534.303    532.031
 28.570    739.509    706.958     32.551    531.711    704.300    531.711    534.358    531.711
 28.670    685.590    689.811     -4.221    531.392    686.653    531.392    534.534    531.392
 28.770    745.000    738.501      6.499    531.073    734.662    531.073    534.890    531.073
 28.870    829.039    811.050     17.989    530.754    806.276    530.754    535.513    530.754
 28.970    787.000    845.429    -58.429    530.436    839.346    530.436    536.520    530.436
 29.070    770.683    805.128    -34.445    530.119    797.211    530.119    538.047    530.119
 29.170    706.589    722.234    -15.646    529.803    711.821    529.803    540.228    529.803
 29.270    626.000    646.289    -20.289    529.487    632.639    529.487    543.144    529.487
 29.370    604.000    599.469      4.531    529.172    581.917    529.172    546.726    529.172
 29.470    580.000    578.549      1.451    528.857    556.828    528.857    550.577    528.857
 29.570    593.885    571.387     22.498    528.544    546.158    528.544    553.770    528.544
 29.670    587.000    568.284     18.716    528.231    541.494    528.231    555.019    528.231
 29.770    591.000    564.662     26.338    527.918    538.990    527.918    553.588    527.918
 29.870    610.000    559.774     50.226    527.607    537.349    527.607    550.029    527.607
 29.970    552.000    554.494     -2.494    527.296    536.185    527.296    545.603    527.296
 30.070    515.214    549.704    -34.490    526.986    535.372    526.986    541.316    526.986
 30.170    533.111    545.862    -12.751    526.677    534.888    526.677    537.649    526.677
 30.270    554.000    543.187     10.813    526.369    534.838    526.369    534.716    526.369
 30.370    539.397    542.052     -2.654    526.062    535.653    526.062    532.457    526.062
 30.470    580.640    543.490     37.151    525.755    538.496    525.755    530.743    525.755
 30.570    507.363    549.568    -42.205    525.450    545.570    525.450    529.436    525.450
 30.670    573.532    562.628     10.904    525.145    559.335    525.145    528.416    525.145
 30.770    583.000    582.573      0.427    524.841    579.787    524.841    527.590    524.841
 30.870    605.000    603.383      1.617    524.538    600.975    524.538    526.895    524.538
 30.970    629.000    612.861     16.139    524.236    610.753    524.236    526.288    524.236
 31.070    577.000    602.948    -25.948    523.935    601.093    523.935    525.744    523.935
 31.170    615.891    581.108     34.784    523.635    579.467    523.635    525.246    523.635
 31.270    514.000    559.527    -45.527    523.336    558.065    523.336    524.783    523.336
 31.370    535.000    544.480     -9.480    523.038    543.163    523.038    524.348    523.038
 31.470    491.391    536.188    -44.797    522.741    534.991    522.741    523.935    522.741
 31.570    519.000    532.233    -13.233    522.445    531.136    522.445    523.539    522.445
 31.670    503.310    530.359    -27.049    522.150    529.348    522.150    523.159    522.150
 31.770    533.990    529.330      4.659    521.857    528.394    521.857    522.792    521.857
 31.870    509.398    528.656    -19.258    521.564    527.783    521.564    522.435    521.564
 31.970    498.000    528.170    -30.170    521.272    527.355    521.272    522.087    521.272
 32.070    568.000    527.821     40.179    520.981    527.054    520.981    521.747    520.981
 32.170    513.958    527.586    -13.629    520.692    526.863    520.692    521.414    520.692
 32.270    544.350    527.456     16.895    520.403    526.772    520.403    521.087    520.403
 32.370    539.000    527.429     11.571    520.116    526.779    520.116    520.765    520.116
 32.470    543.951    527.516     16.435    519.830    526.897    519.830    520.448    519.830
 32.570    567.000    527.734     39.266    519.545    527.142    519.545    520.136    519.545
 32.670    515.000    528.106    -13.106    519.261    527.539    519.261    519.827    519.261
 32.770    526.765    528.670     -1.905    518.979    528.126    518.979    519.522    518.979
 32.870    542.000    529.480     12.520    518.697    528.956    518.697    519.221    518.697
 32.970    541.231    530.616     10.615    518.417    530.110    518.417    518.922    518.417
 33.070    552.000    532.202     19.798    518.138    531.712    518.138    518.627    518.138
 33.170    591.000    534.461     56.539    517.860    533.986    517.860    518.334    517.860
 33.270    510.000    537.911    -27.911    517.583    537.449    517.583    518.043    517.583
 33.370    540.139    543.977     -3.838    517.308    543.526    517.308    517.756    517.308
 33.470    530.000    556.469    -26.469    517.034    556.027    517.034    517.470    517.034
 33.570    557.817    583.782    -25.965    516.761    583.345    516.761    517.187    516.761
 33.670    612.932    639.400    -26.468    516.490    638.962    516.490    516.906    516.490
 33.770    748.000    735.759     12.241    516.220    735.314    516.220    516.627    516.220
 33.870    922.464    869.265     53.199    515.951    868.811    515.951    516.350    515.951
 33.970    988.000   1003.443    -15.443    515.683   1002.986    515.683    516.075    515.683
 34.070   1099.000   1069.216     29.784    515.417   1068.775    515.417    515.802    515.417
 34.170   1007.000   1019.766    -12.766    515.152   1019.359    515.152    515.531    515.152
 34.270    941.382    891.770     49.612    514.888    891.393    514.888    515.262    514.888
 34.370    801.076    754.737     46.340    514.626    754.376    514.626    514.995    514.626
 34.470    640.000    650.963    -10.963    514.365    650.608    514.365    514.729    514.365
 34.570    570.000    588.556    -18.556    514.105    588.201    514.105    514.465    514.105
 34.670    513.264    556.737    -43.472    513.847    556.383    513.847    514.203    513.847
 34.770    569.191    541.720     27.472    513.591    541.368    513.591    513.943    513.591
 34.870    562.203    534.245     27.959    513.335    533.895    513.335    513.684    513.335
 34.970    519.000    529.865    -10.865    513.081    529.518    513.081    513.428    513.081
 35.070    516.000    526.850    -10.850    512.829    526.506    512.829    513.172    512.829
 35.170    474.000    524.570    -50.570    512.577    524.228    512.577    512.919    512.577
 35.270    482.690    522.765    -40.075    512.328    522.425    512.328    512.667    512.328
 35.370    483.000    521.296    -38.296    512.080    520.958    512.080    512.417    512.080
 35.470    504.000    520.074    -16.074    511.833    519.738    511.833    512.169    511.833
 35.570    540.000    519.040     20.960    511.587    518.705    511.587    511.922    511.587
 35.670    554.793    518.151     36.642    511.344    517.817    511.344    511.677    511.344
 35.770    537.603    517.375     20.228    511.101    517.043    511.101    511.433    511.101
 35.870    517.226    516.691      0.535    510.860    516.360    510.860    511.191    510.860
 35.970    540.000    516.082     23.918    510.621    515.751    510.621    510.951    510.621
 36.070    518.000    515.534      2.466    510.383    515.203    510.383    510.713    510.383
 36.170    482.605    515.038    -32.433    510.146    514.708    510.146    510.476    510.146
 36.270    509.734    514.587     -4.853    509.911    514.258    509.911    510.241    509.911
 36.370    513.287    514.177     -0.891    509.678    513.848    509.678    510.007    509.678
 36.470    512.900    513.805     -0.905    509.446    513.475    509.446    509.776    509.446
 36.570    548.713    513.468     35.245    509.216    513.138    509.216    509.545    509.216
 36.670    531.000    513.169     17.831    508.987    512.839    508.987    509.317    508.987
 36.770    467.000    512.914    -45.914    508.760    512.584    508.760    509.090    508.760
 36.870    543.000    512.723     30.277    508.534    512.392    508.534    508.865    508.534
 36.970    514.000    512.649      1.351    508.310    512.317    508.310    508.641    508.310
 37.070    527.000    512.814     14.186    508.087    512.482    508.087    508.420    508.087
 37.170    551.427    513.454     37.973    507.866    513.121    507.866    508.200    507.866
 37.270    515.000    514.896      0.104    507.647    514.562    507.647    507.981    507.647
 37.370    520.000    517.407      2.593    507.429    517.072    507.429    507.764    507.429
 37.470    554.000    520.885     33.115    507.212    520.550    507.212    507.549    507.212
 37.570    506.000    524.532    -18.532    506.998    524.197    506.998    507.336    506.998
 37.670    556.000    526.818     29.182    506.784    526.482    506.784    507.124    506.784
 37.770    501.000    526.465    -25.465    506.573    526.130    506.573    506.914    506.573
 37.870    554.000    523.798     30.202    506.363    523.464    506.363    506.706    506.363
 37.970    557.376    520.205     37.171    506.155    519.870    506.155    506.500    506.155
 38.070    546.599    516.766     29.834    505.948    516.430    505.948    506.295    505.948
 38.170    517.000    513.923      3.077    505.743    513.583    505.743    506.092    505.743
 38.270    534.555    511.791     22.764    505.540    511.447    505.540    505.890    505.540
 38.370    513.000    510.310      2.690    505.338    509.961    505.338    505.691    505.338
 38.470    516.000    509.322      6.678    505.138    508.969    505.138    505.493    505.138
 38.570    493.000    508.664    -15.664    504.939    508.308    504.939    505.297    504.939
 38.670    504.000    508.208     -4.208    504.742    507.848    504.742    505.102    504.742
 38.770    483.256    507.863    -24.607    504.547    507.500    504.547    504.910    504.547
 38.870    479.000    507.577    -28.577    504.353    507.212    504.353    504.719    504.353
 38.970    507.000    507.325     -0.325    504.161    506.957    504.161    504.530    504.161
 39.070    521.370    507.094     14.276    503.971    506.723    503.971    504.342    503.971
 39.170    531.000    506.878     24.122    503.782    506.504    503.782    504.157    503.782
 39.270    544.680    506.675     38.005    503.595    506.298    503.595    503.973    503.595
 39.370    528.981    506.483     22.498    503.410    506.102    503.410    503.791    503.410
 39.470    511.335    506.300      5.035    503.227    505.916    503.227    503.611    503.227
 39.570    515.000    506.126      8.874    503.045    505.739    503.045    503.432    503.045
 39.670    487.000    505.960    -18.960    502.864    505.569    502.864    503.256    502.864
 39.770    469.000    505.802    -36.802    502.686    505.408    502.686    503.081    502.686
 39.870    518.000    505.653     12.347    502.509    505.254    502.509    502.908    502.509
 39.970    517.000    505.511     11.489    502.334    505.108    502.334    502.737    502.334
 40.070    467.918    505.377    -37.460    502.160    504.970    502.160    502.567    502.160
 40.170    460.000    505.252    -45.252    501.988    504.841    501.988    502.400    501.988
 40.270    477.000    505.136    -28.136    501.818    504.721    501.818    502.234    501.818
 40.370    470.000    505.031    -35.031    501.650    504.611    501.650    502.070    501.650
 40.470    530.000    504.936     25.064    501.483    504.512    501.483    501.908    501.483
 40.570    491.276    504.854    -13.578    501.318    504.424    501.318    501.748    501.318
 40.670    501.089    504.785     -3.696    501.155    504.351    501.155    501.589    501.155
 40.770    476.299    504.733    -28.434    500.993    504.293    500.993    501.433    500.993
 40.870    489.819    504.699    -14.880    500.833    504.254    500.833    501.278    500.833
 40.970    501.000    504.688     -3.688    500.675    504.238    500.675    501.125    500.675
 41.070    475.476    504.703    -29.227    500.518    504.248    500.518    500.975    500.518
 41.170    515.315    504.751     10.563    500.364    504.290    500.364    500.826    500.364
 41.270    488.000    504.841    -16.841    500.211    504.373    500.211    500.679    500.211
 41.370    500.000    504.982     -4.982    500.059    504.508    500.059    500.534    500.059
 41.470    529.433    505.190     24.242    499.909    504.711    499.909    500.390    499.909
 41.570    483.000    505.491    -22.491    499.762    505.005    499.762    500.249    499.762
 41.670    451.000    505.928    -54.928    499.615    505.435    499.615    500.110    499.615
 41.770    440.000    506.601    -66.601    499.471    506.101    499.471    499.972    499.471
 41.870    534.850    507.750     27.100    499.328    507.244    499.328    499.837    499.328
 41.970    509.000    509.934     -0.934    499.187    509.421    499.187    499.703    499.187
 42.070    513.000    514.272     -1.272    499.048    513.753    499.048    499.572    499.048
 42.170    487.000    522.561    -35.561    498.910    522.038    498.910    499.443    498.910
 42.270    564.765    536.869     27.896    498.774    536.344    498.774    499.315    498.774
 42.370    553.508    558.276     -4.768    498.640    557.753    498.640    499.190    498.640
 42.470    570.000    585.008    -15.008    498.507    584.489    498.507    499.066    498.507
 42.570    582.000    610.818    -28.818    498.377    610.304    498.377    498.945    498.377
 42.670    603.542    625.571    -22.029    498.248    625.058    498.248    498.826    498.248
 42.770    588.277    621.547    -33.269    498.120    621.025    498.120    498.709    498.120
 42.870    630.000    601.094     28.906    497.995    600.554    497.995    498.594    497.995
 42.970    557.176    573.852    -16.677    497.871    573.286    497.871    498.481    497.871
 43.070    575.748    548.648     27.100    497.749    548.056    497.749    498.370    497.749
 43.170    537.000    529.856      7.144    497.628    529.241    497.628    498.261    497.628
 43.270    478.000    517.924    -39.924    497.509    517.290    497.509    498.155    497.509
 43.370    492.000    511.215    -19.215    497.392    510.563    497.392    498.051    497.392
 43.470    498.000    507.692     -9.692    497.277    507.024    497.277    497.949    497.277
 43.570    540.000    505.821     34.179    497.163    505.138    497.163    497.849    497.163
 43.670    481.000    504.729    -23.729    497.052    504.031    497.052    497.752    497.052
 43.770    480.000    504.003    -24.003    496.941    503.289    496.941    497.657    496.941
 43.870    504.000    503.468      0.532    496.833    502.738    496.833    497.565    496.833
 43.970    512.000    503.052      8.948    496.726    502.305    496.726    497.475    496.726
 44.070    468.000    502.720    -34.720    496.621    501.955    496.621    497.387    496.621
 44.170    518.876    502.452     16.424    496.518    501.668    496.518    497.302    496.518
 44.270    502.442    502.233      0.209    496.416    501.430    496.416    497.220    496.416
 44.370    522.000    502.055     19.945    496.316    501.232    496.316    497.140    496.316
 44.470    522.000    501.911     20.089    496.218    501.066    496.218    497.063    496.218
 44.570    511.000    501.796      9.204    496.121    500.928    496.121    496.989    496.121
 44.670    524.025    501.705     22.320    496.026    500.814    496.026    496.918    496.026
 44.770    468.000    501.637    -33.637    495.933    500.721    495.933    496.849    495.933
 44.870    500.000    501.589     -1.589    495.842    500.646    495.842    496.784    495.842
 44.970    491.341    501.559    -10.218    495.752    500.589    495.752    496.722    495.752
 45.070    476.000    501.548    -25.548    495.664    500.548    495.664    496.664    495.664
 45.170    486.334    501.554    -15.220    495.578    500.523    495.578    496.609    495.578
 45.270    537.802    501.577     36.225    495.493    500.512    495.493    496.557    495.493
 45.370    468.643    501.617    -32.974    495.410    500.517    495.410    496.510    495.410
 45.470    517.000    501.675     15.325    495.328    500.537    495.328    496.466    495.328
 45.570    535.000    501.751     33.249    495.249    500.573    495.249    496.427    495.249
 45.670    471.033    501.847    -30.814    495.171    500.626    495.171    496.392    495.171
 45.770    483.028    501.964    -18.936    495.094    500.696    495.094    496.362    495.094
 45.870    476.000    502.103    -26.103    495.020    500.785    495.020    496.337    495.020
 45.970    516.000    502.267     13.733    494.946    500.896    494.946    496.317    494.946
 46.070    482.000    502.459    -20.459    494.875    501.030    494.875    496.303    494.875
 46.170    523.000    502.682     20.318    494.805    501.192    494.805    496.296    494.805
 46.270    487.000    502.942    -15.942    494.737    501.384    494.737    496.295    494.737
 46.370    525.000    503.243     21.757    494.671    501.612    494.671    496.302    494.671
 46.470    505.000    503.595      1.405    494.606    501.883    494.606    496.317    494.606
 46.570    505.000    504.006      0.994    494.543    502.207    494.543    496.340    494.543
 46.670    520.070    504.493     15.577    494.481    502.599    494.481    496.374    494.481
 46.770    502.000    505.084     -3.084    494.421    503.084    494.421    496.419    494.421
 46.870    535.000    505.833     29.167    494.363    503.717    494.363    496.476    494.363
 46.970    547.000    506.865     40.135    494.306    504.621    494.306    496.548    494.306
 47.070    510.000    508.449      1.551    494.251    506.063    494.251    496.635    494.251
 47.170    496.000    511.109    -15.109    494.198    508.562    494.198    496.739    494.198
 47.270    544.397    515.690     28.707    494.146    512.963    494.146    496.865    494.146
 47.370    547.000    523.260     23.740    494.096    520.327    494.096    497.015    494.096
 47.470    515.000    534.675    -19.675    494.047    531.508    494.047    497.192    494.047
 47.570    561.000    549.837     11.163    494.000    546.402    494.000    497.402    494.000
 47.670    524.968    566.931    -41.963    493.955    563.190    493.955    497.651    493.955
 47.770    620.000    581.938     38.062    493.911    577.848    493.911    497.947    493.911
 47.870    573.593    589.511    -15.918    493.869    585.023    493.869    498.299    493.869
 47.970    611.000    586.493     24.507    493.828    581.545    493.828    498.723    493.828
 48.070    563.000    575.041    -12.041    493.789    569.549    493.789    499.238    493.789
 48.170    549.000    560.382    -11.382    493.752    554.226    493.752    499.877    493.752
 48.270    582.498    547.049     35.449    493.716    540.059    493.716    500.686    493.716
 48.370    540.368    537.507      2.862    493.681    529.435    493.681    501.740    493.681
 48.470    529.000    532.369     -3.369    493.649    522.855    493.649    503.154    493.649
 48.570    495.900    531.162    -35.262    493.617    519.681    493.617    505.093    493.617
 48.670    528.000    533.120     -5.120    493.588    518.920    493.588    507.783    493.588
 48.770    515.000    537.691    -22.691    493.559    519.741    493.559    511.506    493.559
 48.870    536.000    544.703     -8.703    493.533    521.657    493.533    516.574    493.533
 48.970    534.209    554.285    -20.076    493.507    524.514    493.507    523.273    493.507
 49.070    551.000    566.758    -15.758    493.484    528.462    493.484    531.775    493.484
 49.170    599.000    582.666     16.334    493.462    534.116    493.462    542.004    493.462
 49.270    625.000    603.220     21.780    493.441    543.202    493.441    553.449    493.441
 49.370    651.345    631.602     19.743    493.422    560.105    493.422    564.904    493.422
 49.470    728.000    675.599     52.401    493.404    594.663    493.404    574.315    493.404
 49.570    794.226    751.290     42.936    493.388    665.431    493.388    579.201    493.388
 49.670    886.000    884.921      1.079    493.374    800.250    493.374    577.963    493.374
 49.770   1102.826   1106.640     -3.814    493.361   1028.825    493.361    571.050    493.361
 49.870   1456.000   1431.453     24.547    493.349   1364.050    493.349    560.583    493.349
 49.970   1896.000   1833.222     62.778    493.339   1777.416    493.339    548.958    493.339
 50.070   2157.000   2228.228    -71.228    493.330   2183.508    493.330    537.896    493.330
 50.170   2511.639   2488.885     22.755    493.323   2453.843    493.323    528.303    493.323
 50.270   2518.000   2505.165     12.835    493.317   2478.041    493.317    520.501    493.317
 50.370   2267.000   2266.346      0.654    493.312   2245.359    493.312    514.454    493.312
 50.470   1845.000   1871.655    -26.655    493.309   1855.220    493.309    509.934    493.309
 50.570   1399.000   1453.382    -54.382    493.308   1440.226    493.308    506.638    493.308
 50.670   1113.698   1106.670      7.028    493.308   1095.850    493.308    504.262    493.308
 50.770    881.729    868.711     13.018    493.309    859.569    493.309    502.544    493.309
 50.870    683.676    730.535    -46.859    493.312    722.629    493.312    501.281    493.312
 50.970    650.000    661.209    -11.209    493.316    654.242    493.316    500.329    493.316
 51.070    683.000    628.556     54.444    493.321    622.324    493.321    499.592    493.321
 51.170    611.000    609.818      1.182    493.328    604.175    493.328    499.005    493.328
 51.270    614.046    593.861     20.185    493.337    588.699    493.337    498.528    493.337
 51.370    605.000    578.055     26.945    493.346    573.290    493.346    498.134    493.346
 51.470    545.241    563.386    -18.145    493.357    558.954    493.357    497.807    493.357
 51.570    552.143    551.219      0.924    493.370    547.069    493.370    497.532    493.370
 51.670    543.695    542.193      1.502    493.383    538.283    493.383    497.302    493.383
 51.770    536.000    536.177     -0.177    493.398    532.473    493.398    497.108    493.398
 51.870    548.000    532.592     15.408    493.415    529.064    493.415    496.946    493.415
 51.970    536.133    530.767      5.366    493.433    527.391    493.433    496.811    493.433
 52.070    555.000    530.179     24.821    493.452    526.933    493.452    496.700    493.452
 52.170    576.000    530.538     45.462    493.472    527.404    493.472    496.609    493.472
 52.270    512.900    531.793    -18.893    493.494    528.753    493.494    496.536    493.494
 52.370    530.848    534.162     -3.314    493.517    531.201    493.517    496.479    493.517
 52.470    569.000    538.296     30.704    493.541    535.401    493.541    496.437    493.541
 52.570    536.000    545.634     -9.634    493.567    542.793    493.567    496.408    493.567
 52.670    591.000    558.951     32.049    493.593    556.153    493.593    496.391    493.593
 52.770    581.000    582.872     -1.872    493.621    580.108    493.621    496.385    493.621
 52.870    643.000    623.824     19.176    493.651    621.083    493.651    496.389    493.651
 52.970    775.000    688.680     86.320    493.681    685.955    493.681    496.403    493.681
 53.070    819.000    781.698     37.302    493.713    778.981    493.713    496.426    493.713
 53.170    928.000    900.229     27.771    493.746    897.514    493.746    496.457    493.746
 53.270   1034.555   1030.660      3.895    493.781   1027.945    493.781    496.497    493.781
 53.370   1120.964   1146.594    -25.630    493.816   1143.875    493.816    496.545    493.816
 53.470   1218.000   1213.623      4.377    493.853   1210.898    493.853    496.601    493.853
 53.570   1197.000   1206.555     -9.555    493.891   1203.818    493.891    496.664    493.891
 53.670   1031.000   1128.562    -97.562    493.930   1125.799    493.930    496.735    493.930
 53.770   1003.000   1008.233     -5.233    493.970   1005.431    493.970    496.814    493.970
 53.870    905.838    879.155     26.682    494.012    876.302    494.012    496.901    494.012
 53.970    765.000    765.374     -0.374    494.055    762.461    494.055    496.995    494.055
 54.070    677.000    678.247     -1.247    494.099    675.267    494.099    497.098    494.099
 54.170    579.408    618.834    -39.426    494.144    615.781    494.144    497.209    494.144
 54.270    594.357    582.124     12.233    494.190    578.993    494.190    497.329    494.190
 54.370    580.000    561.175     18.825    494.237    557.960    494.237    497.457    494.237
 54.470    602.000    549.858     52.142    494.285    546.552    494.285    497.595    494.285
 54.570    516.000    543.914    -27.914    494.335    540.509    494.335    497.742    494.335
 54.670    513.256    540.852    -27.596    494.386    537.339    494.386    497.900    494.386
 54.770    527.000    539.396    -12.396    494.437    535.765    494.437    498.069    494.437
 54.870    557.000    538.959     18.041    494.490    535.200    494.490    498.250    494.490
 54.970    538.000    539.294     -1.294    494.544    535.395    494.544    498.444    494.544
 55.070    583.583    540.309     43.274    494.599    536.258    494.599    498.651    494.599
 55.170    570.967    541.991     28.976    494.655    537.774    494.655    498.873    494.655
 55.270    552.621    544.378      8.244    494.712    539.980    494.712    499.111    494.712
 55.370    542.000    547.558     -5.558    494.770    542.962    494.770    499.367    494.770
 55.470    534.698    551.695    -16.997    494.829    546.884    494.829    499.642    494.829
 55.570    595.517    557.105     38.412    494.890    552.057    494.890    499.938    494.890
 55.670    585.000    564.444     20.556    494.951    559.137    494.951    500.258    494.951
 55.770    584.000    575.146      8.854    495.013    569.555    495.013    500.604    495.013
 55.870    579.000    592.262    -13.262    495.076    586.357    495.076    500.979    495.076
 55.970    636.000    621.794     14.206    495.141    615.542    495.141    501.387    495.141
 56.070    691.000    674.266     16.734    495.206    667.628    495.206    501.832    495.206
 56.170    729.043    765.550    -36.507    495.272    758.482    495.272    502.318    495.272
 56.270    909.953    915.237     -5.284    495.339    907.688    495.339    502.851    495.339
 56.370   1150.370   1140.864      9.506    495.407   1132.780    495.407    503.439    495.407
 56.470   1409.000   1447.921    -38.921    495.476   1439.246    495.476    504.088    495.476
 56.570   1872.245   1818.416     53.829    495.546   1809.094    495.546    504.809    495.546
 56.670   2148.000   2202.663    -54.663    495.617   2192.634    495.617    505.612    495.617
 56.770   2436.000   2519.772    -83.772    495.689   2508.972    495.689    506.513    495.689
 56.870   2624.820   2677.513    -52.693    495.762   2665.854    495.762    507.527    495.762
 56.970   2568.000   2620.635    -52.635    495.835   2607.984    495.835    508.678    495.835
 57.070   2370.303   2371.683     -1.380    495.910   2357.845    495.910    509.995    495.910
 57.170   2085.147   2012.185     72.962    495.985   1996.909    495.985    511.517    495.985
 57.270   1747.000   1631.719    115.281    496.062   1614.705    496.062    513.305    496.062
 57.370   1226.592   1295.435    -68.843    496.139   1276.313    496.139    515.443    496.139
 57.470   1034.000   1035.845     -1.845    496.217   1014.126    496.217    518.066    496.217
 57.570    814.000    857.618    -43.618    496.295    832.625    496.295    521.373    496.295
 57.670    717.526    748.216    -30.689    496.375    718.978    496.375    525.663    496.375
 57.770    737.879    689.194     48.685    496.455    654.317    496.455    531.360    496.455
 57.870    683.000    664.296     18.704    496.537    621.813    496.537    539.031    496.537
 57.970    703.294    663.108     40.186    496.619    610.337    496.619    549.389    496.619
 58.070    697.000    681.253     15.747    496.702    614.699    496.702    563.245    496.702
 58.170    735.000    718.719     16.281    496.785    634.068    496.785    581.415    496.785
 58.270    765.000    777.565    -12.565    496.870    669.829    496.870    604.573    496.870
 58.370    848.000    859.410    -11.410    496.955    723.280    496.955    633.040    496.955
 58.470    972.000    963.294      8.706    497.040    793.749    497.040    666.531    497.040
 58.570   1029.000   1083.947    -54.947    497.127    877.214    497.127    703.801    497.127
 58.670   1182.000   1211.019    -29.019    497.214    965.989    497.214    742.189    497.214
 58.770   1342.000   1330.346     11.654    497.302   1050.440    497.302    777.164    497.302
 58.870   1430.000   1427.115      2.885    497.391   1121.953    497.391    802.524    497.391
 58.970   1559.037   1488.306     70.731    497.481   1173.551    497.481    812.227    497.481
 59.070   1577.000   1504.317     72.683    497.571   1198.314    497.571    803.585    497.571
 59.170   1504.164   1473.041     31.123    497.662   1191.664    497.662    779.067    497.662
 59.270   1338.335   1403.999    -65.664    497.753   1157.163    497.753    744.622    497.753
 59.370   1359.000   1315.868     43.132    497.845   1107.244    497.845    706.490    497.845
 59.470   1265.803   1228.915     36.888    497.938   1057.558    497.938    669.292    497.938
 59.570   1224.691   1160.693     63.998    498.031   1022.913    498.031    635.773    498.031
 59.670   1172.000   1126.352     45.648    498.125   1017.156    498.125    607.239    498.125
 59.770   1192.332   1137.636     54.696    498.220   1051.704    498.220    584.016    498.220
 59.870   1164.280   1198.024    -33.745    498.315   1130.340    498.315    565.807    498.315
 59.970   1286.000   1297.946    -11.946    498.411   1244.158    498.411    551.952    498.411
 60.070   1389.120   1413.377    -24.257    498.507   1369.958    498.507    541.639    498.507
 60.170   1534.000   1508.657     25.343    498.604   1472.905    498.604    534.056    498.604
 60.270   1643.000   1546.060     96.940    498.702   1515.999    498.702    528.486    498.702
 60.370   1534.000   1503.630     30.370    498.800   1477.851    498.800    524.354    498.800
 60.470   1446.000   1388.488     57.512    498.899   1365.993    498.899    521.235    498.899
 60.570   1329.000   1229.898     99.102    498.998   1209.970    498.998    518.829    498.998
 60.670   1028.000   1061.697    -33.697    499.097   1043.807    499.097    516.936    499.097
 60.770    853.065    910.244    -57.179    499.198    893.991    499.198    515.428    499.198
 60.870    795.000    790.289      4.711    499.298    775.354    499.298    514.224    499.298
 60.970    680.010    705.802    -25.791    499.399    691.921    499.399    513.275    499.399
 61.070    662.000    653.617      8.383    499.501    640.564    499.501    512.547    499.501
 61.170    628.000    628.005     -0.005    499.603    615.580    499.603    512.016    499.603
 61.270    596.000    624.467    -28.467    499.706    612.492    499.706    511.661    499.706
 61.370    641.000    641.812     -0.812    499.809    630.130    499.809    511.459    499.809
 61.470    671.000    682.308    -11.308    499.912    670.792    499.912    511.378    499.912
 61.570    727.000    750.097    -23.097    500.016    738.664    500.016    511.375    500.016
 61.670    838.000    848.216    -10.216    500.120    836.843    500.120    511.389    500.120
 61.770    978.000    974.932      3.068    500.225    963.675    500.225    511.344    500.225
 61.870   1049.000   1120.491    -71.491    500.330   1109.487    500.330    511.167    500.330
 61.970   1251.000   1265.511    -14.511    500.435   1254.943    500.435    510.818    500.435
 62.070   1382.000   1382.275     -0.275    500.541   1372.321    500.541    510.310    500.541
 62.170   1345.000   1441.377    -96.377    500.647   1432.166    500.647    509.697    500.647
 62.270   1334.000   1424.996    -90.996    500.754   1416.585    500.754    509.046    500.754
 62.370   1299.000   1337.978    -38.978    500.861   1330.356    500.861    508.411    500.861
 62.470   1145.000   1204.376    -59.376    500.968   1197.483    500.968    507.829    500.968
 62.570   1077.000   1053.967     23.033    501.075   1047.719    501.075    507.317    501.075
 62.670    956.000    911.506     44.494    501.183    905.813    501.183    506.885    501.183
 62.770    801.000    792.408      8.592    501.291    787.183    501.291    506.530    501.291
 62.870    655.000    702.628    -47.628    501.399    697.793    501.399    506.246    501.399
 62.970    570.000    640.852    -70.852    501.508    636.342    501.508    506.025    501.508
 63.070    582.171    601.693    -19.521    501.617    597.456    501.617    505.856    501.617
 63.170    596.000    578.665     17.335    501.726    574.661    501.726    505.730    501.726
 63.270    530.363    566.158    -35.794    501.835    562.352    501.835    505.638    501.835
 63.370    539.000    560.287    -21.287    501.945    556.654    501.945    505.572    501.945
 63.470    538.991    558.982    -19.991    502.054    555.502    502.054    505.528    502.054
 63.570    567.000    561.752      5.248    502.164    558.406    502.164    505.501    502.164
 63.670    566.564    569.393     -2.830    502.275    566.167    502.275    505.487    502.275
 63.770    585.373    583.724      1.649    502.385    580.603    502.385    505.486    502.385
 63.870    604.041    607.209     -3.169    502.495    604.181    502.495    505.494    502.495
 63.970    684.000    642.343     41.657    502.606    639.394    502.606    505.510    502.606
 64.070    739.000    690.716     48.284    502.717    687.837    502.717    505.535    502.717
 64.170    790.000    751.896     38.104    502.828    749.076    502.828    505.566    502.828
 64.270    776.491    822.364    -45.873    502.939    819.597    502.939    505.603    502.939
 64.370    907.000    894.865     12.135    503.050    892.148    503.050    505.646    503.050
 64.470    981.000    958.664     22.336    503.162    956.000    503.162    505.695    503.162
 64.570    940.000   1001.833    -61.833    503.273    999.230    503.273    505.748    503.273
 64.670    965.787   1015.914    -50.127    503.385   1013.379    503.385    505.806    503.385
 64.770    994.000    999.719     -5.719    503.496    997.257    503.496    505.868    503.496
 64.870    944.000    958.827    -14.827    503.608    956.439    503.608    505.934    503.608
 64.970    862.000    902.571    -40.571    503.719    900.252    503.719    506.004    503.719
 65.070    798.000    840.968    -42.968    503.831    838.712    503.831    506.077    503.831
 65.170    741.000    782.051    -41.051    503.943    779.849    503.943    506.153    503.943
 65.270    767.000    730.391     36.609    504.055    728.233    504.055    506.232    504.055
 65.370    656.665    687.356    -30.692    504.166    685.233    504.166    506.315    504.166
 65.470    693.807    652.499     41.307    504.278    650.404    504.278    506.400    504.278
 65.570    658.000    624.841     33.159    504.390    622.766    504.390    506.488    504.390
 65.670    569.519    603.373    -33.854    504.502    601.314    504.502    506.578    504.502
 65.770    624.000    587.120     36.880    504.613    585.074    504.613    506.671    504.613
 65.870    583.000    575.185      7.815    504.725    573.151    504.725    506.767    504.725
 65.970    554.000    566.793    -12.793    504.837    564.769    504.837    506.864    504.837
 66.070    540.000    561.291    -21.291    504.948    559.276    504.948    506.964    504.948
 66.170    546.638    558.134    -11.496    505.060    556.127    505.060    507.067    505.060
 66.270    541.000    556.872    -15.872    505.171    554.872    505.171    507.171    505.171
 66.370    531.000    557.174    -26.174    505.282    555.178    505.282    507.278    505.282
 66.470    545.573    558.857    -13.285    505.393    556.864    505.393    507.387    505.393
 66.570    550.319    561.959    -11.640    505.504    559.967    505.504    507.497    505.504
 66.670    589.797    566.843     22.954    505.615    564.848    505.615    507.611    505.615
 66.770    559.029    574.407    -15.378    505.726    572.408    505.726    507.726    505.726
 66.870    581.386    586.428     -5.042    505.837    584.421    505.837    507.843    505.837
 66.970    577.035    606.031    -28.996    505.947    604.014    505.947    507.963    505.947
 67.070    619.460    638.211    -18.752    506.057    636.179    506.057    508.085    506.057
 67.170    731.000    690.148     40.852    506.167    688.098    506.167    508.209    506.167
 67.270    754.000    770.933    -16.933    506.277    768.861    506.277    508.336    506.277
 67.370    887.428    890.283     -2.855    506.387    888.187    506.387    508.465    506.387
 67.470   1045.000   1055.988    -10.988    506.496   1053.869    506.496    508.597    506.496
 67.570   1285.000   1270.340     14.660    506.605   1268.201    506.605    508.731    506.605
 67.670   1514.666   1526.331    -11.664    506.714   1524.180    506.714    508.868    506.714
 67.770   1827.277   1804.781     22.496    506.823   1802.631    506.823    509.008    506.823
 67.870   2018.759   2073.481    -54.722    506.931   2071.344    506.931    509.152    506.931
 67.970   2235.943   2289.801    -53.858    507.040   2287.690    507.040    509.298    507.040
 68.070   2450.784   2409.701     41.083    507.147   2407.619    507.147    509.449    507.147
 68.170   2485.208   2404.363     80.845    507.255   2402.299    507.255    509.602    507.255
 68.270   2266.000   2275.256     -9.256    507.362   2273.180    507.362    509.761    507.362
 68.370   2105.000   2053.223     51.777    507.469   2051.098    507.469    509.923    507.469
 68.470   1714.895   1782.674    -67.779    507.576   1780.465    507.576    510.090    507.576
 68.570   1563.000   1505.546     57.454    507.682   1503.229    507.682    510.262    507.682
 68.670   1221.674   1252.979    -31.305    507.788   1250.539    507.788    510.440    507.788
 68.770   1046.000   1043.056      2.944    507.894   1040.487    507.894    510.623    507.894
 68.870    832.000    881.872    -49.872    507.999    879.173    507.999    510.814    507.999
 68.970    795.769    766.530     29.239    508.104    763.701    508.104    511.011    508.104
 69.070    736.011    688.955     47.056    508.208    685.998    508.208    511.217    508.208
 69.170    652.208    639.411     12.796    508.312    636.326    508.312    511.431    508.312
 69.270    638.083    608.934     29.149    508.416    605.717    508.416    511.654    508.416
 69.370    563.000    590.521    -27.521    508.519    587.166    508.519    511.889    508.519
 69.470    601.000    579.332     21.668    508.622    575.829    508.622    512.135    508.622
 69.570    550.000    572.338    -22.338    508.725    568.675    508.725    512.394    508.725
 69.670    551.000    567.796    -16.796    508.826    563.959    508.826    512.668    508.826
 69.770    564.469    564.766     -0.297    508.928    560.738    508.928    512.959    508.928
 69.870    590.000    562.767     27.233    509.029    558.530    509.029    513.269    509.029
 69.970    601.610    561.562     40.049    509.129    557.093    509.129    513.599    509.129
 70.070    576.000    561.042     14.958    509.229    556.318    509.229    513.954    509.229
 70.170    546.264    561.174    -14.909    509.329    556.166    509.329    514.336    509.329
 70.270    565.000    561.989      3.011    509.428    556.667    509.428    514.750    509.428
 70.370    575.000    563.603     11.397    509.527    557.928    509.527    515.199    509.527
 70.470    574.000    566.268      7.732    509.624    560.198    509.624    515.691    509.624
 70.570    611.000    570.477     40.523    509.722    563.963    509.722    516.232    509.722
 70.670    547.940    577.133    -29.194    509.819    570.113    509.819    516.831    509.819
 70.770    551.869    587.774    -35.905    509.915    580.175    509.915    517.503    509.915
 70.870    617.000    604.850     12.150    510.011    596.578    510.011    518.264    510.011
 70.970    612.968    631.937    -18.969    510.106    622.873    510.106    519.142    510.106
 71.070    671.055    673.774     -2.719    510.201    663.755    510.201    520.178    510.201
 71.170    715.000    735.914    -20.914    510.294    724.715    510.294    521.432    510.294
 71.270    793.000    823.833    -30.833    510.388    811.139    510.388    522.997    510.388
 71.370    919.000    941.458    -22.458    510.481    926.817    510.481    525.007    510.481
 71.470   1143.838   1089.302     54.536    510.573   1072.073    510.573    527.656    510.573
 71.570   1212.000   1262.629    -50.629    510.664   1241.916    510.664    531.201    510.664
 71.670   1430.749   1450.157    -19.407    510.755   1424.735    510.755    535.977    510.755
 71.770   1579.000   1633.733    -54.733    510.845   1601.987    510.845    542.378    510.845
 71.870   1727.758   1789.597    -61.838    510.935   1749.482    510.935    550.841    510.935
 71.970   1844.000   1892.465    -48.465    511.023   1841.516    511.023    561.786    511.023
 72.070   1910.000   1923.425    -13.425    511.112   1858.838    511.112    575.547    511.112
 72.170   1897.000   1878.586     18.414    511.199   1797.393    511.199    592.282    511.199
 72.270   1748.503   1771.240    -22.737    511.286   1670.594    511.286    611.859    511.286
 72.370   1664.000   1625.049     38.951    511.372   1502.619    511.372    633.758    511.372
 72.470   1560.000   1464.674     95.326    511.457   1319.157    511.457    656.952    511.457
 72.570   1355.000   1309.764     45.236    511.541   1141.497    511.541    679.799    511.541
 72.670   1127.023   1172.637    -45.615    511.625    984.254    511.625    700.004    511.625
 72.770   1097.604   1058.260     39.343    511.708    855.138    511.708    714.829    511.708
 72.870    974.524    965.843      8.681    511.791    755.889    511.791    721.742    511.791
 72.970    828.000    891.504    -63.504    511.872    683.967    511.872    719.405    511.872
 73.070    775.000    830.840    -55.840    511.953    634.468    511.953    708.320    511.953
 73.170    743.000    780.351    -37.351    512.033    601.820    512.033    690.559    512.033
 73.270    713.000    737.690    -24.690    512.112    580.939    512.112    668.860    512.112
 73.370    661.000    701.390    -40.390    512.190    567.808    512.190    645.769    512.190
 73.470    704.543    670.575     33.968    512.268    559.594    512.268    623.247    512.268
 73.570    601.000    644.752    -43.752    512.345    554.488    512.345    602.609    512.345
 73.670    550.000    623.623    -73.623    512.420    551.436    512.420    584.610    512.420
 73.770    576.000    606.933    -30.933    512.495    549.875    512.495    569.559    512.495
 73.870    612.506    594.368     18.138    512.570    549.521    512.570    557.427    512.570
 73.970    575.185    585.500    -10.315    512.643    550.203    512.643    547.954    512.643
 74.070    574.000    579.777     -5.777    512.715    551.759    512.715    540.752    512.715
 74.170    556.000    576.542    -20.542    512.787    553.968    512.787    535.386    512.787
 74.270    549.329    575.054    -25.725    512.858    556.506    512.858    531.436    512.858
 74.370    631.000    574.523     56.477    512.927    558.950    512.927    528.537    512.927
 74.470    615.000    574.157     40.843    512.996    560.801    512.996    526.394    512.996
 74.570    636.000    573.259     62.741    513.064    561.584    513.064    524.783    513.064
 74.670    569.721    571.368     -1.647    513.131    561.000    513.131    523.544    513.131
 74.770    641.000    568.385     72.615    513.197    559.062    513.197    522.563    513.197
 74.870    670.000    564.561    105.439    513.263    556.095    513.263    521.767    513.263
 74.970    534.555    560.354    -25.799    513.327    552.609    513.327    521.105    513.327
 75.070    568.008    556.289     11.719    513.390    549.161    513.390    520.544    513.390
 75.170    602.000    552.878     49.122    513.452    546.287    513.452    520.063    513.452
 75.270    523.998    550.608    -26.609    513.514    544.488    513.514    519.647    513.514
 75.370    527.000    549.955    -22.955    513.574    544.254    513.574    519.283    513.574
 75.470    546.000    551.416     -5.416    513.633    546.087    513.633    518.964    513.633
 75.570    536.557    555.512    -18.954    513.692    550.516    513.692    518.683    513.692
 75.670    541.000    562.765    -21.765    513.749    558.068    513.749    518.436    513.749
 75.770    542.249    573.614    -31.366    513.806    569.186    513.806    518.217    513.806
 75.870    597.206    588.282      8.924    513.861    584.096    513.861    518.022    513.861
 75.970    576.000    606.601    -30.601    513.915    602.633    513.915    517.850    513.915
 76.070    622.000    627.853     -5.853    513.969    624.083    513.969    517.697    513.969
 76.170    659.000    650.664      8.336    514.021    647.074    514.021    517.560    514.021
 76.270    643.000    672.976    -29.976    514.072    669.551    514.072    517.439    514.072
 76.370    725.135    692.152     32.983    514.122    688.880    514.122    517.331    514.122
 76.470    693.000    705.312    -12.312    514.171    702.184    514.171    517.234    514.171
 76.570    719.000    710.046      8.954    514.219    707.055    514.219    517.148    514.219
 76.670    721.000    705.350     15.650    514.266    702.489    514.266    517.071    514.266
 76.770    737.313    692.108     45.206    514.312    689.370    514.312    517.002    514.312
 76.870    689.000    672.653     16.347    514.357    670.031    514.357    516.940    514.357
 76.970    641.000    649.845     -8.845    514.401    647.330    514.401    516.885    514.401
 77.070    649.000    626.325     22.675    514.443    623.910    514.443    516.836    514.443
 77.170    600.406    604.163     -3.757    514.485    601.840    514.485    516.792    514.485
 77.270    543.000    584.734    -41.734    514.525    582.495    514.525    516.753    514.525
 77.370    599.926    568.729     31.196    514.564    566.568    514.564    516.718    514.564
 77.470    533.000    556.261    -23.261    514.602    554.171    514.602    516.687    514.602
 77.570    567.119    547.024     20.094    514.639    545.001    514.639    516.660    514.639
 77.670    544.972    540.479      4.493    514.675    538.517    514.675    516.635    514.675
 77.770    499.283    536.010    -36.727    514.710    534.105    514.710    516.613    514.710
 77.870    539.000    533.041      5.959    514.743    531.189    514.743    516.593    514.743
 77.970    511.000    531.096    -20.096    514.775    529.294    514.775    516.576    514.775
 78.070    492.000    529.804    -37.804    514.806    528.049    514.806    516.561    514.806
 78.170    486.621    528.933    -42.312    514.836    527.221    514.836    516.547    514.836
 78.270    518.915    528.358     -9.443    514.865    526.687    514.865    516.535    514.865
 78.370    483.000    527.965    -44.965    514.893    526.332    514.893    516.525    514.893
 78.470    560.000    527.699     32.301    514.919    526.101    514.919    516.516    514.919
 78.570    509.000    527.541    -18.541    514.944    525.976    514.944    516.508    514.944
 78.670    493.000    527.485    -34.485    514.968    525.951    514.968    516.502    514.968
 78.770    567.000    527.540     39.460    514.991    526.034    514.991    516.497    514.991
 78.870    539.058    527.723     11.335    515.012    526.241    515.012    516.493    515.012
 78.970    520.000    528.059     -8.059    515.033    526.599    515.033    516.492    515.033
 79.070    549.000    528.578     20.422    515.052    527.136    515.052    516.492    515.052
 79.170    519.000    529.311    -10.311    515.069    527.883    515.069    516.496    515.069
 79.270    550.000    530.287     19.713    515.086    528.869    515.086    516.502    515.086
 79.370    532.000    531.535      0.465    515.101    530.121    515.101    516.512    515.101
 79.470    543.674    533.081     10.592    515.115    531.666    515.115    516.527    515.115
 79.570    528.000    534.960     -6.960    515.128    533.537    515.128    516.546    515.128
 79.670    502.000    537.224    -35.224    515.139    535.786    515.139    516.572    515.139
 79.770    548.662    539.959      8.703    515.150    538.501    515.150    516.603    515.150
 79.870    525.762    543.312    -17.550    515.159    541.825    515.159    516.639    515.159
 79.970    530.000    547.510    -17.510    515.166    545.989    515.166    516.682    515.166
 80.070    524.000    552.890    -28.890    515.173    551.330    515.173    516.728    515.173
 80.170    524.802    559.893    -35.090    515.178    558.290    515.178    516.778    515.178
 80.270    589.000    569.016     19.984    515.181    567.369    515.181    516.827    515.181
 80.370    557.850    580.712    -22.861    515.184    579.024    515.184    516.873    515.184
 80.470    552.000    595.271    -43.271    515.185    593.550    515.185    516.911    515.185
 80.570    570.000    612.708    -42.708    515.185    610.966    515.185    516.935    515.185
 80.670    616.417    632.676    -16.259    515.183    630.931    515.183    516.942    515.183
 80.770    672.480    654.426     18.055    515.180    652.697    515.180    516.928    515.180
 80.870    667.355    676.826     -9.470    515.176    675.134    515.176    516.893    515.176
 80.970    697.632    698.486     -0.854    515.171    696.848    515.171    516.840    515.171
 81.070    698.152    717.958    -19.805    515.164    716.386    515.164    516.774    515.164
 81.170    777.149    733.926     43.222    515.156    732.428    515.156    516.699    515.156
 81.270    775.986    745.332     30.654    515.146    743.909    515.146    516.621    515.146
 81.370    698.000    751.456    -53.456    515.135    750.107    515.135    516.542    515.135
 81.470    766.000    752.001     13.999    515.123    750.722    515.123    516.465    515.123
 81.570    742.000    747.105     -5.105    515.110    745.889    515.110    516.392    515.110
 81.670    760.000    737.291     22.709    515.095    736.130    515.095    516.324    515.095
 81.770    706.000    723.430    -17.430    515.078    722.315    515.078    516.261    515.078
 81.870    735.000    706.710     28.290    515.061    705.634    515.061    516.203    515.061
 81.970    739.442    688.468     50.973    515.042    687.425    515.042    516.151    515.042
 82.070    693.783    669.918     23.865    515.021    668.900    515.021    516.102    515.021
 82.170    653.390    651.929      1.461    514.999    650.930    514.999    516.057    514.999
 82.270    611.014    634.982    -23.968    514.976    633.998    514.976    516.014    514.976
 82.370    632.000    619.275     12.725    514.952    618.302    514.952    515.974    514.952
 82.470    627.049    604.897     22.152    514.926    603.932    514.926    515.935    514.926
 82.570    613.000    591.956     21.044    514.898    590.996    514.898    515.897    514.898
 82.670    575.000    580.608     -5.608    514.870    579.650    514.870    515.859    514.870
 82.770    549.000    571.019    -22.019    514.839    570.063    514.839    515.822    514.839
 82.870    604.976    563.340     41.636    514.808    562.383    514.808    515.784    514.808
 82.970    597.167    557.682     39.485    514.775    556.723    514.775    515.745    514.775
 83.070    535.000    554.106    -19.106    514.740    553.144    514.740    515.706    514.740
 83.170    533.000    552.605    -19.605    514.705    551.639    514.705    515.667    514.705
 83.270    569.000    553.078     15.922    514.667    552.109    514.667    515.626    514.667
 83.370    536.344    555.316    -18.973    514.629    554.342    514.629    515.585    514.629
 83.470    548.000    558.984    -10.984    514.589    558.004    514.589    515.542    514.589
 83.570    534.713    563.623    -28.910    514.547    562.639    514.547    515.499    514.547
 83.670    538.259    568.665    -30.406    514.504    567.676    514.504    515.455    514.504
 83.770    582.000    573.458      8.542    514.460    572.465    514.460    515.410    514.460
 83.870    600.792    577.317     23.475    514.414    576.322    514.414    515.363    514.414
 83.970    553.659    579.618    -25.959    514.367    578.623    514.367    515.316    514.367
 84.070    529.000    579.925    -50.925    514.318    578.929    514.318    515.268    514.318
 84.170    612.083    578.104     33.979    514.268    577.111    514.268    515.218    514.268
 84.270    541.000    574.363    -33.363    514.217    573.373    514.217    515.167    514.217
 84.370    591.000    569.161     21.839    514.164    568.175    514.164    515.116    514.164
 84.470    591.978    563.073     28.905    514.110    562.090    514.110    515.063    514.110
 84.570    575.761    556.662     19.099    514.054    555.682    514.054    515.009    514.054
 84.670    546.000    550.411     -4.411    513.997    549.434    513.997    514.954    513.997
 84.770    547.000    544.685      2.315    513.938    543.709    513.938    514.898    513.938
 84.870    581.300    539.719     41.581    513.878    538.744    513.878    514.841    513.878
 84.970    545.003    535.624      9.379    513.816    534.648    513.816    514.783    513.816
 85.070    570.000    532.409     37.591    513.753    531.431    513.753    514.724    513.753
 85.170    537.000    530.007      6.993    513.689    529.027    513.689    514.663    513.689
 85.270    511.000    528.311    -17.311    513.623    527.327    513.623    514.602    513.623
 85.370    557.099    527.201     29.897    513.555    526.213    513.555    514.539    513.555
 85.470    558.000    526.568     31.432    513.487    525.575    513.487    514.476    513.487
 85.570    520.000    526.329     -6.329    513.416    525.330    513.416    514.411    513.416
 85.670    515.000    526.438    -11.438    513.345    525.432    513.345    514.345    513.345
 85.770    508.058    526.888    -18.830    513.271    525.875    513.271    514.278    513.271
 85.870    544.000    527.720     16.280    513.197    526.699    513.197    514.210    513.197
 85.970    519.000    529.016    -10.016    513.121    527.986    513.121    514.141    513.121
 86.070    568.532    530.901     37.631    513.043    529.861    513.043    514.071    513.043
 86.170    505.952    533.538    -27.586    512.964    532.486    512.964    514.000    512.964
 86.270    580.000    537.113     42.887    512.884    536.048    512.884    513.928    512.884
 86.370    535.000    541.816     -6.816    512.802    540.736    512.802    513.855    512.802
 86.470    524.000    547.814    -23.814    512.719    546.718    512.719    513.781    512.719
 86.570    559.972    555.212      4.761    512.634    554.097    512.634    513.706    512.634
 86.670    578.125    564.013     14.112    512.548    562.877    512.548    513.630    512.548
 86.770    576.250    574.078      2.172    512.460    572.920    512.460    513.553    512.460
 86.870    618.663    585.092     33.571    512.371    583.910    512.371    513.476    512.371
 86.970    582.629    596.550    -13.921    512.281    595.345    512.281    513.397    512.281
 87.070    603.000    607.751     -4.751    512.189    606.522    512.189    513.318    512.189
 87.170    609.000    617.864     -8.864    512.095    616.614    512.095    513.237    512.095
 87.270    666.078    625.973     40.104    512.000    624.703    512.000    513.156    512.000
 87.370    645.278    631.213     14.065    511.904    629.927    511.904    513.074    511.904
 87.470    590.337    632.990    -42.653    511.806    631.692    511.806    512.992    511.806
 87.570    677.027    631.152     45.875    511.707    629.845    511.707    512.908    511.707
 87.670    665.848    626.031     39.817    511.607    624.717    511.607    512.824    511.607
 87.770    569.471    618.340    -48.869    511.505    617.021    511.505    512.740    511.505
 87.870    651.000    608.998     42.002    511.401    607.674    511.401    512.655    511.401
 87.970    631.181    598.978     32.203    511.296    597.649    511.296    512.569    511.296
 88.070    614.812    589.200     25.611    511.190    587.863    511.190    512.483    511.190
 88.170    565.000    580.462    -15.462    511.082    579.116    511.082    512.397    511.082
 88.270    605.778    573.394     32.384    510.973    572.036    510.973    512.310    510.973
 88.370    550.000    568.430    -18.430    510.862    567.058    510.862    512.223    510.862
 88.470    604.000    565.803     38.197    510.750    564.415    510.750    512.136    510.750
 88.570    556.000    565.546     -9.546    510.637    564.140    510.637    512.049    510.637
 88.670    557.000    567.506    -10.506    510.522    566.080    510.522    511.962    510.522
 88.770    603.296    571.360     31.935    510.406    569.912    510.406    511.875    510.406
 88.870    602.000    576.637     25.363    510.288    575.166    510.288    511.789    510.288
 88.970    546.224    582.743    -36.520    510.169    581.247    510.169    511.702    510.169
 89.070    546.110    588.991    -42.881    510.049    587.467    510.049    511.617    510.049
 89.170    613.895    594.642     19.254    509.927    593.088    509.927    511.532    509.927
 89.270    650.000    598.965     51.035    509.804    597.378    509.804    511.448    509.804
 89.370    586.000    601.338    -15.338    509.679    599.714    509.679    511.365    509.679
 89.470    561.073    601.360    -40.287    509.553    599.695    509.553    511.283    509.553
 89.570    666.000    598.949     67.051    509.426    597.236    509.426    511.203    509.426
 89.670    567.000    594.344    -27.344    509.297    592.578    509.297    511.124    509.297
 89.770    598.000    588.024      9.976    509.167    586.201    509.167    511.048    509.167
 89.870    567.148    580.585    -13.437    509.035    578.699    509.035    510.974    509.035
 89.970    562.000    572.626    -10.626    508.903    570.671    508.903    510.903    508.903
 90.070    549.000    564.680    -15.680    508.768    562.651    508.768    510.836    508.768
 90.170    596.067    557.177     38.890    508.633    555.070    508.633    510.773    508.633
 90.270    546.000    550.429     -4.429    508.496    548.236    508.496    510.714    508.496
 90.370    554.994    544.623     10.371    508.358    542.339    508.358    510.662    508.358
 90.470    566.025    539.839     26.186    508.218    537.456    508.218    510.616    508.218
 90.570    538.000    536.066      1.934    508.077    533.575    508.077    510.579    508.077
 90.670    509.000    533.228    -24.228    507.935    530.619    507.935    510.552    507.935
 90.770    492.512    531.217    -38.705    507.791    528.474    507.791    510.539    507.791
 90.870    572.345    529.909     42.436    507.646    527.015    507.646    510.543    507.646
 90.970    540.465    529.194     11.271    507.500    526.127    507.500    510.569    507.500
 91.070    496.884    528.981    -32.097    507.353    525.711    507.353    510.623    507.353
 91.170    520.676    529.183     -8.507    507.204    525.672    507.204    510.713    507.204
 91.270    497.985    529.855    -31.871    507.054    526.057    507.054    510.850    507.054
 91.370    517.000    531.022    -14.022    506.902    526.877    506.902    511.044    506.902
 91.470    526.000    532.751     -6.751    506.749    528.184    506.749    511.312    506.749
 91.570    523.000    535.173    -12.173    506.595    530.093    506.595    511.670    506.595
 91.670    583.000    538.458     44.542    506.440    532.753    506.440    512.139    506.440
 91.770    569.355    542.818     26.537    506.284    536.353    506.284    512.738    506.284
 91.870    530.267    548.490    -18.223    506.126    541.111    506.126    513.491    506.126
 91.970    563.000    555.723      7.277    505.967    547.252    505.967    514.421    505.967
 92.070    528.000    564.756    -36.756    505.807    554.995    505.807    515.546    505.807
 92.170    535.199    575.789    -40.589    505.645    564.523    505.645    516.884    505.645
 92.270    536.000    588.953    -52.953    505.482    575.956    505.482    518.446    505.482
 92.370    633.000    604.281     28.719    505.318    589.325    505.318    520.235    505.318
 92.470    623.000    621.683      1.317    505.153    604.546    505.153    522.244    505.153
 92.570    663.778    640.921     22.857    504.987    621.401    504.987    524.452    504.987
 92.670    631.612    661.595    -29.983    504.819    639.527    504.819    526.825    504.819
 92.770    693.000    683.138      9.862    504.651    658.412    504.651    529.309    504.651
 92.870    748.133    704.848     43.284    504.481    677.425    504.481    531.830    504.481
 92.970    783.000    725.932     57.068    504.309    695.874    504.309    534.290    504.309
 93.070    748.000    745.597      2.403    504.137    713.085    504.137    536.569    504.137
 93.170    795.000    763.194     31.806    503.964    728.553    503.964    538.523    503.964
 93.270    781.000    778.334      2.666    503.789    742.038    503.789    540.004    503.789
 93.370    853.000    790.924     62.076    503.613    753.582    503.613    540.876    503.613
 93.470    814.727    801.119     13.607    503.436    763.436    503.436    541.042    503.436
 93.570    808.020    809.239     -1.219    503.258    771.951    503.258    540.472    503.258
 93.670    867.302    815.703     51.599    503.079    779.502    503.079    539.207    503.079
 93.770    819.683    821.012     -1.330    502.899    786.492    502.899    537.350    502.899
 93.870    844.000    825.772     18.228    502.718    793.381    502.718    535.040    502.718
 93.970    784.395    830.669    -46.273    502.535    800.710    502.535    532.429    502.535
 94.070    897.000    836.381     60.619    502.352    809.015    502.352    529.654    502.352
 94.170    865.000    843.406     21.594    502.167    818.676    502.167    526.835    502.167
 94.270    825.000    851.886    -26.886    501.982    829.742    501.982    524.066    501.982
 94.370    891.774    861.498     30.276    501.795    841.818    501.795    521.418    501.795
 94.470    859.737    871.427    -11.691    501.607    854.038    501.607    518.942    501.607
 94.570    891.891    880.432     11.459    501.419    865.131    501.419    516.670    501.419
 94.670    952.000    886.988     65.012    501.229    873.551    501.229    514.622    501.229
 94.770    920.000    889.504     30.496    501.038    877.705    501.038    512.800    501.038
 94.870    932.000    886.634     45.366    500.846    876.248    500.846    511.204    500.846
 94.970    842.844    877.582    -34.738    500.654    868.394    500.654    509.821    500.654
 95.070    915.000    862.320     52.680    500.460    854.135    500.460    508.634    500.460
 95.170    897.000    841.615     55.385    500.265    834.255    500.265    507.621    500.265
 95.270    830.261    816.852     13.409    500.070    810.163    500.070    506.761    500.070
 95.370    746.000    789.783    -43.783    499.873    783.630    499.873    506.032    499.873
 95.470    727.000    762.349    -35.349    499.675    756.620    499.675    505.413    499.675
 95.570    710.000    736.445    -26.445    499.477    731.046    499.477    504.885    499.477
 95.670    740.000    713.854     26.146    499.278    708.708    499.278    504.430    499.278
 95.770    665.181    696.192    -31.011    499.077    691.237    499.077    504.036    499.077
 95.870    695.000    684.876     10.124    498.876    680.061    498.876    503.690    498.876
 95.970    669.000    681.117    -12.117    498.674    676.400    498.674    503.383    498.674
 96.070    654.679    685.926    -31.247    498.472    681.274    498.472    503.107    498.472
 96.170    716.000    700.112     15.888    498.268    695.497    498.268    502.857    498.268
 96.270    703.118    724.270    -21.152    498.063    719.668    498.063    502.629    498.063
 96.370    760.000    758.736      1.264    497.858    754.127    497.858    502.419    497.858
 96.470    885.000    803.514     81.486    497.652    798.881    497.652    502.226    497.652
 96.570    814.157    858.180    -44.023    497.445    853.507    497.445    502.047    497.445
 96.670    866.000    921.775    -55.775    497.237    917.049    497.237    501.882    497.237
 96.770   1000.000    992.722      7.278    497.029    987.929    497.029    501.731    497.029
 96.870   1021.557   1068.766    -47.209    496.820   1063.894    496.820    501.592    496.820
 96.970   1106.803   1146.944    -40.141    496.610   1141.984    496.610    501.467    496.610
 97.070   1229.000   1223.647      5.353    496.399   1218.588    496.399    501.354    496.399
 97.170   1350.000   1294.730     55.270    496.188   1289.562    496.188    501.256    496.188
 97.270   1321.000   1355.767    -34.767    495.976   1350.480    495.976    501.171    495.976
 97.370   1419.000   1402.469     16.531    495.763   1397.053    495.763    501.102    495.763
 97.470   1379.000   1431.285    -52.285    495.550   1425.726    495.550    501.050    495.550
 97.570   1438.000   1440.040     -2.040    495.336   1434.321    495.336    501.016    495.336
 97.670   1406.000   1428.377    -22.377    495.121   1422.480    495.121    501.002    495.121
 97.770   1358.383   1397.778    -39.395    494.905   1391.676    494.905    501.011    494.905
 97.870   1406.729   1351.171     55.558    494.690   1344.837    494.690    501.047    494.690
 97.970   1242.000   1292.365    -50.365    494.473   1285.761    494.473    501.114    494.473
 98.070   1218.000   1225.514     -7.514    494.256   1218.599    494.256    501.218    494.256
 98.170   1191.844   1154.743     37.101    494.038   1147.467    494.038    501.368    494.038
 98.270   1105.000   1083.901     21.099    493.820   1076.203    493.820    501.573    493.820
 98.370    972.409   1016.411    -44.002    493.601   1008.219    493.601    501.848    493.601
 98.470    934.245    955.198    -20.953    493.382    946.420    493.382    502.209    493.382
 98.570    910.000    902.662      7.338    493.162    893.188    493.162    502.679    493.162
 98.670    848.000    860.700    -12.700    492.942    850.392    492.942    503.285    492.942
 98.770    866.354    830.759     35.595    492.721    819.446    492.721    504.059    492.721
 98.870    762.129    813.902    -51.772    492.500    801.374    492.500    505.043    492.500
 98.970    815.000    810.885      4.115    492.279    796.887    492.279    506.282    492.279
 99.070    769.724    822.211    -52.487    492.057    806.432    492.057    507.832    492.057
 99.170    847.000    848.203     -1.203    491.834    830.274    491.834    509.751    491.834
 99.270    889.000    888.949      0.051    491.612    868.436    491.612    512.106    491.612
 99.370    940.000    944.273     -4.273    491.389    920.674    491.389    514.963    491.389
 99.470   1013.000   1013.675     -0.675    491.165    986.422    491.165    518.390    491.165
 99.570   1101.614   1096.232      5.382    490.941   1064.694    490.941    522.451    490.941
 99.670   1200.000   1190.504      9.496    490.717   1153.996    490.717    527.200    490.717
 99.770   1250.000   1294.441    -44.441    490.493   1252.239    490.493    532.677    490.493
 99.870   1479.000   1405.327     73.673    490.268   1356.685    490.268    538.903    490.268
 99.970   1481.000   1519.768    -38.768    490.043   1463.946    490.043    545.874    490.043
100.070   1724.000   1633.768     90.232    489.818   1570.060    489.818    553.553    489.818
100.170   1747.000   1742.925      4.075    489.593   1670.700    489.593    561.868    489.593
100.270   1822.000   1842.760    -20.760    489.367   1761.500    489.367    570.703    489.367
100.370   1980.000   1929.117     50.883    489.142   1838.467    489.142    579.895    489.142
100.470   1989.000   1998.503     -9.503    488.916   1898.320    488.916    589.227    488.916
100.570   2128.000   2048.248     79.752    488.690   1938.665    488.690    598.427    488.690
100.670   1983.000   2076.495    -93.495    488.464   1957.975    488.464    607.160    488.464
100.770   2096.000   2082.162     13.838    488.237   1955.553    488.237    615.041    488.237
100.870   2150.442   2065.037     85.405    488.011   1931.606    488.011    621.651    488.011
100.970   1950.911   2026.031    -75.121    487.785   1887.456    487.785    626.577    487.785
101.070   2047.000   1967.412     79.588    487.558   1825.725    487.558    629.466    487.558
101.170   1929.588   1892.801     36.787    487.332   1750.268    487.332    630.083    487.332
101.270   1777.000   1806.846    -29.846    487.105   1665.801    487.105    628.362    487.105
101.370   1746.000   1714.664     31.336    486.879   1577.324    486.879    624.419    486.879
101.470   1564.000   1621.253    -57.253    486.653   1489.561    486.653    618.530    486.653
101.570   1566.000   1531.024     34.976    486.427   1406.547    486.427    611.073    486.427
101.670   1462.280   1447.499     14.781    486.200   1331.384    486.200    602.469    486.200
101.770   1354.152   1373.161    -19.009    485.974   1266.142    485.974    593.129    485.974
101.870   1377.149   1309.407     67.742    485.748   1211.850    485.748    583.426    485.748
101.970   1252.000   1256.589     -4.589    485.523   1168.543    485.523    573.677    485.523
102.070   1205.000   1214.102     -9.102    485.297   1135.359    485.297    564.138    485.297
102.170   1213.691   1180.526     33.165    485.072   1110.679    485.072    555.009    485.072
102.270   1117.898   1153.805    -35.907    484.846   1092.298    484.846    546.439    484.846
102.370   1180.238   1131.475     48.763    484.621   1077.648    484.621    538.531    484.621
102.470   1122.000   1110.934     11.066    484.397   1064.067    484.397    531.346    484.397
102.570   1085.206   1089.763     -4.557    484.172   1049.107    484.172    524.910    484.172
102.670   1057.000   1066.030     -9.030    483.948   1030.841    483.948    519.221    483.948
102.770   1082.500   1038.525     43.975    483.724   1008.083    483.724    514.251    483.724
102.870   1011.000   1006.833      4.167    483.501    980.465    483.501    509.955    483.501
102.970    964.000    971.250     -7.250    483.278    948.338    483.278    506.275    483.278
103.070    937.000    932.584      4.416    483.056    912.574    483.056    503.147    483.056
103.170    859.000    891.932    -32.932    482.833    874.341    482.833    500.502    482.833
103.270    869.000    850.499     18.501    482.612    834.910    482.612    498.273    482.612
103.370    821.000    809.462     11.538    482.390    795.521    482.390    496.398    482.390
103.470    742.975    769.880    -26.905    482.170    757.294    482.170    494.816    482.170
103.570    744.000    732.642     11.358    481.949    721.168    481.949    493.477    481.949
103.670    702.000    698.428      3.572    481.730    687.868    481.730    492.336    481.730
103.770    716.000    667.695     48.305    481.511    657.892    481.511    491.353    481.511
103.870    616.000    640.684    -24.684    481.292    631.510    481.292    490.499    481.292
103.970    596.164    617.438    -21.273    481.074    608.793    481.074    489.747    481.074
104.070    622.000    597.835     24.165    480.857    589.638    480.857    489.076    480.857
104.170    592.000    581.619     10.381    480.641    573.805    480.641    488.471    480.641
104.270    582.000    568.468     13.532    480.425    560.987    480.425    487.920    480.425
104.370    520.024    558.001    -37.977    480.210    550.809    480.210    487.412    480.210
104.470    602.000    549.828     52.172    479.996    542.891    479.996    486.939    479.996
104.570    546.000    543.578      2.422    479.782    536.868    479.782    486.497    479.782
104.670    536.472    538.918     -2.446    479.569    532.409    479.569    486.081    479.569
104.770    529.000    535.562     -6.562    479.358    529.233    479.358    485.687    479.358
104.870    554.000    533.281     20.719    479.147    527.114    479.147    485.313    479.147
104.970    502.990    531.901    -28.911    478.936    525.878    478.936    484.957    478.936
105.070    540.000    531.303      8.697    478.727    525.409    478.727    484.617    478.727
105.170    492.837    531.418    -38.581    478.519    525.641    478.519    484.292    478.519
105.270    538.000    532.225      5.775    478.312    526.551    478.312    483.980    478.312
105.370    509.906    533.742    -23.836    478.106    528.159    478.106    483.681    478.106
105.470    545.000    536.023      8.977    477.900    530.520    477.900    483.393    477.900
105.570    519.000    539.147    -20.147    477.696    533.715    477.696    483.117    477.696
105.670    538.000    543.213     -5.213    477.493    537.840    477.493    482.851    477.493
105.770    539.950    548.321     -8.371    477.291    543.000    477.291    482.595    477.291
105.870    538.000    554.564    -16.564    477.090    549.285    477.090    482.349    477.090
105.970    604.496    562.008     42.488    476.891    556.763    476.891    482.113    476.891
106.070    558.515    570.681    -12.166    476.692    565.463    476.692    481.885    476.692
106.170    593.000    580.557     12.443    476.495    575.358    476.495    481.665    476.495
106.270    579.028    591.549    -12.521    476.299    586.362    476.299    481.454    476.299
106.370    596.000    603.504     -7.504    476.105    598.322    476.105    481.251    476.105
106.470    585.883    616.197    -30.314    475.911    611.013    475.911    481.056    475.911
106.570    581.000    629.333    -48.333    475.720    624.142    475.720    480.869    475.720
106.670    650.000    642.561      7.439    475.529    637.355    475.529    480.690    475.529
106.770    647.000    655.476     -8.476    475.340    650.252    475.340    480.518    475.340
106.870    620.890    667.647    -46.757    475.152    662.398    475.152    480.354    475.152
106.970    635.519    678.636    -43.117    474.966    673.357    474.966    480.198    474.966
107.070    681.000    688.043     -7.043    474.781    682.729    474.781    480.049    474.781
107.170    695.000    695.551     -0.551    474.598    690.197    474.598    479.908    474.598
107.270    677.000    700.980    -23.980    474.417    695.581    474.417    479.775    474.417
107.370    696.000    704.328     -8.328    474.237    698.878    474.237    479.649    474.237
107.470    706.000    705.775      0.225    474.059    700.268    474.059    479.532    474.059
107.570    744.001    705.659     38.342    473.882    700.089    473.882    479.422    473.882
107.670    694.000    704.417    -10.417    473.707    698.778    473.707    479.321    473.707
107.770    644.000    702.520    -58.520    473.534    696.806    473.534    479.228    473.534
107.870    686.250    700.415    -14.165    473.362    694.618    473.362    479.144    473.362
107.970    656.000    698.475    -42.475    473.193    692.588    473.193    479.069    473.193
108.070    685.000    696.971    -11.971    473.025    690.986    473.025    479.002    473.025
108.170    698.000    696.053      1.947    472.859    689.964    472.859    478.945    472.859
108.270    677.000    695.742    -18.742    472.695    689.540    472.695    478.898    472.695
108.370    658.568    695.930    -37.361    472.533    689.606    472.533    478.861    472.533
108.470    658.000    696.385    -38.385    472.373    689.931    472.373    478.835    472.373
108.570    667.000    696.780    -29.780    472.215    690.187    472.215    478.819    472.215
108.670    673.000    696.714    -23.714    472.059    689.972    472.059    478.815    472.059
108.770    709.000    695.765     13.235    471.905    688.864    471.905    478.823    471.905
108.870    701.000    693.544      7.456    471.753    686.474    471.753    478.843    471.753
108.970    655.000    689.753    -34.753    471.603    682.502    471.603    478.876    471.603
109.070    691.000    684.234      6.766    471.456    676.790    471.456    478.924    471.456
109.170    705.436    676.987     28.450    471.310    669.336    471.310    478.985    471.310
109.270    652.000    668.159    -16.159    471.167    660.289    471.167    479.063    471.167
109.370    631.544    658.013    -26.469    471.027    649.908    471.027    479.156    471.027
109.470    670.000    646.883     23.117    470.888    638.528    470.888    479.267    470.888
109.570    660.055    635.133     24.923    470.752    626.511    470.752    479.397    470.752
109.670    603.227    623.123    -19.895    470.619    614.216    470.619    479.546    470.619
109.770    598.640    611.173    -12.533    470.487    601.962    470.487    479.717    470.487
109.870    662.000    599.615     62.385    470.359    590.079    470.359    479.912    470.359
109.970    557.394    588.727    -31.333    470.232    578.841    470.232    480.132    470.232
110.070    568.457    578.694    -10.237    470.109    568.435    470.109    480.381    470.109
110.170    551.068    569.668    -18.600    469.987    559.005    469.987    480.661    469.987
110.270    617.000    561.747     55.253    469.869    550.649    469.869    480.976    469.869
110.370    588.720    554.981     33.739    469.753    543.409    469.753    481.332    469.753
110.470    561.000    549.374     11.626    469.640    537.286    469.640    481.732    469.640
110.570    564.000    544.895     19.105    469.530    532.241    469.530    482.186    469.530
110.670    518.000    541.485    -23.485    469.422    528.207    469.422    482.701    469.422
110.770    501.654    539.068    -37.414    469.317    525.096    469.317    483.289    469.317
110.870    571.000    537.556     33.444    469.215    522.809    469.215    483.961    469.215
110.970    539.384    536.861      2.523    469.116    521.240    469.116    484.735    469.116
111.070    564.654    536.898     27.756    469.020    520.286    469.020    485.629    469.020
111.170    565.000    537.591     27.409    468.927    519.847    468.927    486.666    468.927
111.270    522.000    538.875    -16.875    468.837    519.832    468.837    487.874    468.837
111.370    531.000    540.704     -9.704    468.750    520.160    468.750    489.287    468.750
111.470    540.000    543.043     -3.043    468.666    520.761    468.666    490.940    468.666
111.570    565.649    545.879     19.770    468.585    521.577    468.585    492.879    468.585
111.670    533.668    549.212    -15.544    468.507    522.558    468.507    495.152    468.507
111.770    573.138    553.062     20.076    468.433    523.669    468.433    497.817    468.433
111.870    571.000    557.464     13.536    468.362    524.883    468.362    500.933    468.362
111.970    530.000    562.471    -32.471    468.294    526.186    468.294    504.569    468.294
112.070    612.573    568.150     44.424    468.229    527.575    468.229    508.794    468.229
112.170    583.000    574.579      8.421    468.168    529.054    468.168    513.683    468.168
112.270    580.000    581.851     -1.851    468.111    530.638    468.111    519.312    468.111
112.370    563.125    590.061    -26.935    468.056    532.352    468.056    525.753    468.056
112.470    618.000    599.310     18.690    468.006    534.227    468.006    533.077    468.006
112.570    638.904    609.703     29.202    467.958    536.302    467.958    541.347    467.958
112.670    632.000    621.340     10.660    467.915    538.628    467.915    550.615    467.915
112.770    594.180    634.324    -40.144    467.875    541.268    467.875    560.917    467.875
112.870    665.637    648.751     16.886    467.839    544.305    467.839    572.271    467.839
112.970    597.000    664.733    -67.733    467.806    547.843    467.806    584.681    467.806
113.070    709.000    682.376     26.624    467.777    552.022    467.777    598.116    467.777
113.170    717.000    701.804     15.196    467.752    557.024    467.752    612.516    467.752
113.270    726.000    723.164      2.836    467.731    563.088    467.731    627.789    467.731
113.370    708.868    746.642    -37.773    467.714    570.529    467.714    643.806    467.714
113.470    748.000    772.476    -24.476    467.701    579.756    467.701    660.398    467.701
113.570    802.000    800.982      1.018    467.692    591.296    467.692    677.351    467.692
113.670    819.000    832.570    -13.570    467.687    605.817    467.687    694.407    467.687
113.770    884.000    867.773     16.227    467.686    624.163    467.686    711.258    467.686
113.870    929.000    907.274     21.726    467.689    647.370    467.689    727.547    467.689
113.970    972.000    951.934     20.066    467.696    676.704    467.696    742.872    467.696
114.070   1033.419   1002.825     30.594    467.707    713.671    467.707    756.795    467.707
114.170   1071.000   1061.248      9.752    467.723    760.036    467.723    768.854    467.723
114.270   1082.716   1128.796    -46.081    467.743    817.821    467.743    778.620    467.743
114.370   1228.000   1207.328     20.672    467.768    889.288    467.768    785.687    467.768
114.470   1281.000   1298.994    -17.994    467.797    976.904    467.797    789.742    467.797
114.570   1428.000   1406.216     21.784    467.830   1083.274    467.830    790.596    467.830
114.670   1548.000   1531.612     16.388    467.868   1211.059    467.868    788.210    467.868
114.770   1693.000   1677.890     15.110    467.910   1362.852    467.910    782.698    467.910
114.870   1881.000   1847.685     33.315    467.957   1541.033    467.957    774.315    467.957
114.970   2107.000   2043.355     63.645    468.009   1747.603    468.009    763.419    468.009
115.070   2302.171   2266.759     35.412    468.065   1983.992    468.065    750.438    468.065
115.170   2636.000   2519.018    116.982    468.126   2250.869    468.126    735.827    468.126
115.270   2767.000   2800.296    -33.296    468.192   2547.949    468.192    720.035    468.192
115.370   3101.715   3109.599     -7.884    468.263   2873.820    468.263    703.484    468.263
115.470   3363.000   3444.627    -81.627    468.339   3225.802    468.339    686.554    468.339
115.570   3816.000   3801.664     14.336    468.419   3599.849    468.419    669.577    468.419
115.670   4291.798   4175.537    116.261    468.505   3990.506    468.505    652.839    468.505
115.770   4508.000   4559.637    -51.637    468.595   4390.931    468.595    636.575    468.595
115.870   4787.000   4946.003   -159.003    468.691   4792.975    468.691    620.976    468.691
115.970   5340.000   5325.486     14.514    468.792   5187.339    468.792    606.191    468.792
116.070   5812.259   5687.974    124.285    468.898   5563.806    468.898    592.330    468.898
116.170   6042.000   6022.720     19.280    469.010   5911.553    469.010    579.469    469.010
116.270   6355.000   6318.759     36.241    469.126   6219.573    469.126    567.652    469.126
116.370   6591.000   6565.456     25.544    469.248   6477.215    469.248    556.893    469.248
116.470   6600.856   6753.185   -152.328    469.376   6674.861    469.376    547.183    469.376
116.570   6841.413   6874.086    -32.673    469.509   6804.677    469.509    538.495    469.509
116.670   6916.000   6922.816     -6.816    469.647   6861.363    469.647    530.782    469.647
116.770   6996.857   6897.113     99.744    469.791   6842.708    469.791    523.987    469.791
116.870   6785.000   6798.064    -13.064    469.941   6749.863    469.941    518.043    469.941
116.970   6711.000   6629.993     81.007    470.096   6587.217    470.096    512.878    470.096
117.070   6274.000   6399.867   -125.867    470.257   6361.810    470.257    508.418    470.257
117.170   6225.000   6116.664    108.336    470.424   6082.689    470.424    504.587    470.424
117.270   5559.000   5790.586   -231.586    470.597   5760.128    470.597    501.312    470.597
117.370   5547.527   5432.361    115.165    470.775   5404.923    470.775    498.526    470.775
117.470   5050.000   5052.669     -2.669    470.960   5027.817    470.960    496.163    470.960
117.570   4655.000   4661.686     -6.686    471.150   4639.047    471.150    494.166    471.150
117.670   4289.000   4268.752     20.248    471.346   4248.005    471.346    492.481    471.346
117.770   3923.000   3882.121     40.879    471.549   3862.995    471.549    491.061    471.549
117.870   3639.000   3508.799    130.201    471.758   3491.063    471.758    489.867    471.758
117.970   3313.000   3154.447    158.553    471.973   3137.910    471.973    488.863    471.973
118.070   2954.000   2823.366    130.634    472.194   2807.867    472.194    488.019    472.194
118.170   2540.000   2518.532     21.468    472.422   2503.938    472.422    487.311    472.422
118.270   2182.000   2241.698    -59.698    472.656   2227.899    472.656    486.716    472.656
118.370   2008.000   1993.523     14.477    472.896   1980.428    472.896    486.217    472.896
118.470   1746.000   1773.732    -27.732    473.143   1761.266    473.143    485.801    473.143
118.570   1549.000   1581.292    -32.292    473.397   1569.393    473.397    485.456    473.397
118.670   1341.000   1414.587    -73.587    473.657   1403.203    473.657    485.172    473.657
118.770   1217.000   1271.591    -54.591    473.924   1260.677    473.924    484.941    473.924
118.870   1110.000   1150.024    -40.024    474.197   1139.544    474.197    484.758    474.197
118.970   1094.138   1047.496     46.642    474.477   1037.418    474.477    484.617    474.477
119.070    986.347    961.622     24.724    474.765    951.917    474.765    484.515    474.765
119.170    912.000    890.114     21.886    475.059    880.757    475.059    484.448    475.059
119.270    840.000    830.845      9.155    475.360    821.812    475.360    484.414    475.360
119.370    749.000    781.892    -32.892    475.668    773.164    475.668    484.411    475.668
119.470    735.208    741.558     -6.349    475.983    733.113    475.983    484.437    475.983
119.570    715.530    708.372      7.158    476.305    700.191    476.305    484.491    476.305
119.670    627.000    681.085    -54.085    476.635    673.151    476.635    484.572    476.635
119.770    659.000    658.653      0.347    476.972    650.945    476.972    484.680    476.972
119.870    628.532    640.211    -11.679    477.316    632.713    477.316    484.814    477.316
119.970    627.000    625.057      1.943    477.667    617.751    477.667    484.974    477.667
120.070    608.000    612.624     -4.624    478.026    605.491    478.026    485.159    478.026
120.170    600.000    602.457     -2.457    478.392    595.480    478.392    485.370    478.392
120.270    559.145    594.195    -35.050    478.766    587.356    478.766    485.607    478.766
120.370    621.975    587.555     34.420    479.148    580.835    479.148    485.869    479.148
120.470    560.000    582.313    -22.313    479.537    575.694    479.537    486.159    479.537
120.570    583.000    578.294      4.706    479.934    571.756    479.934    486.475    479.934
120.670    612.481    575.361     37.120    480.339    568.885    480.339    486.818    480.339
120.770    553.000    573.407    -20.407    480.752    566.974    480.752    487.189    480.752
120.870    560.000    572.348    -12.348    481.173    565.938    481.173    487.587    481.173
120.970    571.000    572.115     -1.115    481.602    565.708    481.602    488.014    481.602
121.070    554.000    572.651    -18.651    482.038    566.227    482.038    488.469    482.038
121.170    539.000    573.907    -34.907    482.483    567.445    482.483    488.953    482.483
121.270    565.693    575.833    -10.140    482.936    569.313    482.936    489.465    482.936
121.370    595.000    578.382     16.618    483.398    571.785    483.398    490.006    483.398
121.470    606.000    581.502     24.498    483.867    574.809    483.867    490.574    483.867
121.570    602.000    585.137     16.863    484.346    578.329    484.346    491.169    484.346
121.670    617.375    589.222     28.153    484.832    582.282    484.832    491.789    484.832
121.770    622.174    593.684     28.490    485.327    586.597    485.327    492.434    485.327
121.870    575.124    598.443    -23.318    485.831    591.195    485.831    493.101    485.831
121.970    603.000    603.408     -0.408    486.343    595.987    486.343    493.789    486.343
122.070    631.000    608.480     22.520    486.864    600.878    486.864    494.495    486.864
122.170    650.000    613.552     36.448    487.394    605.762    487.394    495.215    487.394
122.270    632.000    618.512     13.488    487.933    610.531    487.933    495.947    487.933
122.370    648.000    623.243     24.757    488.480    615.072    488.480    496.687    488.480
122.470    579.000    627.627    -48.627    489.037    619.273    489.037    497.430    489.037
122.570    628.000    631.554     -3.554    489.603    623.026    489.603    498.171    489.603
122.670    653.000    634.919     18.081    490.177    626.233    490.177    498.906    490.177
122.770    629.000    637.636     -8.636    490.761    628.812    490.761    499.630    490.761
122.870    626.000    639.637    -13.637    491.355    630.701    491.355    500.336    491.355
122.970    623.834    640.881    -17.046    491.957    631.864    491.957    501.020    491.957
123.070    645.000    641.354      3.646    492.569    632.293    492.569    501.678    492.569
123.170    678.000    641.072     36.928    493.191    632.004    493.191    502.306    493.191
123.270    659.079    640.072     19.007    493.822    631.038    493.822    502.901    493.822
123.370    668.000    638.413     29.587    494.462    629.456    494.462    503.464    494.462
123.470    714.000    636.168     77.832    495.112    627.330    495.112    503.993    495.112
123.570    627.000    633.421     -6.421    495.772    624.741    495.772    504.493    495.772
123.670    630.000    630.259     -0.259    496.442    621.775    496.442    504.965    496.442
123.770    586.000    626.772    -40.772    497.122    618.516    497.122    505.414    497.122
123.870    641.000    623.046     17.954    497.811    615.045    497.811    505.846    497.811
123.970    633.408    619.163     14.245    498.511    611.440    498.511    506.264    498.511
124.070    655.000    615.195     39.805    499.221    607.767    499.221    506.676    499.221
124.170    594.000    611.206    -17.206    499.941    604.087    499.941    507.084    499.941
124.270    610.000    607.250      2.750    500.671    600.447    500.671    507.495    500.671
124.370    615.763    603.367     12.396    501.412    596.884    501.412    507.913    501.412
124.470    566.000    599.588    -33.588    502.163    593.425    502.163    508.341    502.163
124.570    560.578    595.933    -35.355    502.924    590.087    502.924    508.783    502.924
124.670    564.027    592.411    -28.384    503.696    586.876    503.696    509.242    503.696
124.770    588.000    589.027     -1.027    504.478    583.795    504.478    509.720    504.478
124.870    608.788    585.779     23.010    505.272    580.838    505.272    510.219    505.272
124.970    590.000    582.659      7.341    506.076    577.999    506.076    510.742    506.076
