neutron_powder_diffraction_0026
R_wp: 3.728
Temperature (K): 524.085
Counts: 83179.00
Wavelength (Ã…): 2.52098
COMMENTS
Test file for demonstrating the .xyy file format in Reel1.0
END OF HEADER
   tth       Y_obs     Y_calc      Y_res    Background    Phase_1_Nuc    Phase_1_Mag    Phase_2_Nuc    Phase_2_Mag
  9.970    756.000    711.023     44.977    709.405    710.417    710.010    709.405    709.405
 10.070    732.335    710.119     22.216    708.413    709.506    709.025    708.413    708.413
 10.170    708.515    709.230     -0.715    707.425    708.611    708.044    707.425    707.425
 10.270    711.141    708.360      2.781    706.442    707.734    707.067    706.442    706.442
 10.370    752.000    707.510     44.490    705.463    706.877    706.096    705.463    705.463
 10.470    745.919    706.684     39.235    704.489    706.044    705.128    704.489    704.489
 10.570    713.167    705.887      7.281    703.519    705.240    704.165    703.519    703.519
 10.670    733.000    705.123     27.877    702.554    704.469    703.207    702.554    702.554
 10.770    659.000    704.401    -45.401    701.593    703.740    702.253    701.593    701.593
 10.870    769.000    703.731     65.269    700.636    703.062    701.304    700.636    700.636
 10.970    735.525    703.126     32.399    699.684    702.450    700.359    699.684    699.684
 11.070    736.000    702.604     33.396    698.736    701.920    699.418    698.736    698.736
 11.170    755.000    702.193     52.807    697.792    701.501    698.482    697.792    697.792
 11.270    726.922    701.932     24.990    696.853    701.231    697.551    696.853    696.853
 11.370    653.498    701.882    -48.384    695.918    701.173    696.624    695.918    695.918
 11.470    672.428    702.161    -29.732    694.988    701.443    695.702    694.988    694.988
 11.570    697.000    703.020     -6.020    694.062    702.293    694.784    694.062    694.062
 11.670    727.357    705.032     22.324    693.140    704.296    693.871    693.140    693.140
 11.770    702.974    709.389     -6.415    692.223    708.641    692.962    692.223    692.223
 11.870    788.000    718.101     69.899    691.310    717.340    692.057    691.310    691.310
 11.970    765.000    733.587     31.413    690.401    732.807    691.158    690.401    690.401
 12.070    834.000    757.055     76.945    689.497    756.253    690.262    689.497    689.497
 12.170    828.000    785.494     42.506    688.597    784.667    689.372    688.597    688.597
 12.270    795.594    808.579    -12.985    687.701    807.730    688.485    687.701    687.701
 12.370    791.000    812.191    -21.191    686.810    811.330    687.604    686.810    686.810
 12.470    744.000    792.741    -48.741    685.923    791.881    686.727    685.923    685.923
 12.570    714.847    762.565    -47.717    685.040    761.710    685.854    685.040    685.040
 12.670    701.000    734.854    -33.854    684.162    734.004    684.985    684.162    684.162
 12.770    753.000    714.876     38.124    683.288    714.026    684.122    683.288    683.288
 12.870    738.894    702.397     36.496    682.418    701.543    683.262    682.418    682.418
 12.970    663.000    695.116    -32.116    681.553    694.254    682.408    681.553    681.553
 13.070    632.000    690.759    -58.759    680.692    689.889    681.557    680.692    680.692
 13.170    653.000    687.859    -34.859    679.835    686.979    680.712    679.835    679.835
 13.270    659.000    685.674    -26.674    678.983    684.783    679.870    678.983    678.983
 13.370    660.859    683.875    -23.016    678.134    682.974    679.034    678.134    678.134
 13.470    630.000    682.318    -52.318    677.291    681.405    678.201    677.291    677.291
 13.570    683.000    680.926      2.074    676.451    680.002    677.374    676.451    676.451
 13.670    680.000    679.656      0.344    675.616    678.720    676.551    675.616    675.616
 13.770    684.616    678.482      6.134    674.785    677.533    675.732    674.785    674.785
 13.870    655.000    677.375    -22.375    673.958    676.414    674.918    673.958    673.958
 13.970    730.664    676.323     54.342    673.136    675.349    674.108    673.136    673.136
 14.070    680.000    675.315      4.685    672.317    674.328    673.303    672.317    672.317
 14.170    641.198    674.343    -33.145    671.503    673.343    672.503    671.503    671.503
 14.270    663.000    673.402    -10.402    670.694    672.388    671.707    670.694    670.694
 14.370    622.000    672.486    -50.486    669.888    671.458    670.915    669.888    669.888
 14.470    669.000    671.592     -2.592    669.087    670.550    670.128    669.087    669.087
 14.570    645.000    670.718    -25.718    668.290    669.662    669.346    668.290    668.290
 14.670    644.484    669.881    -25.396    667.497    668.809    668.568    667.497    667.497
 14.770    629.000    669.047    -40.047    666.709    667.960    667.795    666.709    666.709
 14.870    638.521    668.217    -29.696    665.925    667.114    667.026    665.925    665.925
 14.970    668.000    667.397      0.603    665.145    666.279    666.262    665.145    665.145
 15.070    669.000    666.589      2.411    664.369    665.454    665.502    664.369    664.369
 15.170    618.155    665.790    -47.635    663.597    664.639    664.747    663.597    663.597
 15.270    635.663    665.001    -29.338    662.830    663.833    663.997    662.830    662.830
 15.370    629.000    664.220    -35.220    662.066    663.035    663.251    662.066    662.066
 15.470    685.542    663.448     22.094    661.307    662.245    662.510    661.307    661.307
 15.570    660.000    662.688     -2.688    660.552    661.467    661.773    660.552    660.552
 15.670    672.000    661.931     10.069    659.802    660.692    661.041    659.802    659.802
 15.770    701.028    661.181     39.846    659.055    659.923    660.313    659.055    659.055
 15.870    641.007    660.438    -19.430    658.313    659.160    659.590    658.313    658.313
 15.970    647.000    659.701    -12.701    657.575    658.404    658.872    657.575    657.575
 16.070    687.105    658.971     28.134    656.841    657.653    658.158    656.841    656.841
 16.170    679.000    658.247     20.753    656.111    656.909    657.449    656.111    656.111
 16.270    652.000    657.529     -5.529    655.385    656.169    656.744    655.385    655.385
 16.370    684.000    656.817     27.183    654.663    655.436    656.044    654.663    654.663
 16.470    626.000    656.111    -30.111    653.946    654.707    655.349    653.946    653.946
 16.570    637.788    655.411    -17.622    653.233    653.984    654.659    653.233    653.233
 16.670    658.000    654.716      3.284    652.523    653.267    653.973    652.523    652.523
 16.770    694.393    654.027     40.365    651.818    652.554    653.292    651.818    651.818
 16.870    631.000    653.344    -22.344    651.117    651.846    652.615    651.117    651.117
 16.970    598.000    652.666    -54.666    650.420    651.143    651.944    650.420    650.420
 17.070    610.000    651.995    -41.995    649.728    650.445    651.277    649.728    649.728
 17.170    656.718    651.333      5.384    649.039    649.757    650.615    649.039    649.039
 17.270    630.000    650.675    -20.675    648.354    649.071    649.957    648.354    648.354
 17.370    636.000    650.022    -14.022    647.674    648.390    649.305    647.674    647.674
 17.470    624.000    649.399    -25.399    646.997    647.738    648.658    646.997    646.997
 17.570    654.000    648.806      5.194    646.325    647.114    648.017    646.325    646.325
 17.670    623.675    648.181    -24.506    645.656    646.458    647.379    645.656    645.656
 17.770    634.000    647.553    -13.553    644.992    645.799    646.746    644.992    644.992
 17.870    633.000    646.925    -13.925    644.332    645.139    646.117    644.332    644.332
 17.970    647.459    646.303      1.157    643.675    644.484    645.494    643.675    643.675
 18.070    639.983    645.685     -5.702    643.023    643.833    644.875    643.023    643.023
 18.170    656.000    645.073     10.927    642.375    643.186    644.262    642.375    642.375
 18.270    618.000    644.467    -26.467    641.731    642.544    643.653    641.731    641.731
 18.370    630.000    643.868    -13.868    641.090    641.908    643.050    641.090    641.090
 18.470    597.000    643.298    -46.298    640.454    641.300    642.452    640.454    640.454
 18.570    592.000    642.714    -50.714    639.822    640.677    641.858    639.822    639.822
 18.670    629.000    642.130    -13.130    639.194    640.053    641.270    639.194    639.194
 18.770    648.520    641.551      6.969    638.569    639.433    640.687    638.569    638.569
 18.870    661.000    640.978     20.022    637.949    638.817    640.110    637.949    637.949
 18.970    662.000    640.410     21.590    637.333    638.206    639.537    637.333    637.333
 19.070    613.000    639.849    -26.849    636.720    637.600    638.970    636.720    636.720
 19.170    632.000    639.298     -7.298    636.112    637.002    638.408    636.112    636.112
 19.270    590.039    638.756    -48.718    635.507    636.412    637.852    635.507    635.507
 19.370    633.000    638.219     -5.219    634.907    635.823    637.303    634.907    634.907
 19.470    625.000    637.742    -12.742    634.310    635.277    636.775    634.310    634.310
 19.570    643.008    637.226      5.782    633.717    634.704    636.240    633.717    633.717
 19.670    638.000    636.702      1.298    633.129    634.124    635.706    633.129    633.129
 19.770    589.410    636.183    -46.773    632.544    633.549    635.178    632.544    632.544
 19.870    679.862    635.670     44.192    631.963    632.977    634.656    631.963    631.963
 19.970    612.000    635.167    -23.167    631.386    632.413    634.139    631.386    631.386
 20.070    633.565    634.691     -1.127    630.812    631.875    633.629    630.812    630.812
 20.170    598.000    634.201    -36.201    630.243    631.320    633.124    630.243    630.243
 20.270    603.000    633.716    -30.716    629.677    630.767    632.626    629.677    629.677
 20.370    661.000    633.247     27.753    629.116    630.222    632.140    629.116    629.116
 20.470    603.395    632.824    -29.428    628.558    629.709    631.672    628.558    628.558
 20.570    626.000    632.384     -6.384    628.004    629.193    631.195    628.004    628.004
 20.670    624.000    631.947     -7.947    627.454    628.678    630.723    627.454    627.454
 20.770    593.000    631.578    -38.578    626.907    628.226    630.259    626.907    626.907
 20.870    589.517    631.150    -41.633    626.365    627.715    629.800    626.365    626.365
 20.970    648.000    630.718     17.282    625.826    627.195    629.348    625.826    625.826
 21.070    635.270    630.294      4.976    625.291    626.681    628.904    625.291    625.291
 21.170    594.000    629.888    -35.888    624.760    626.181    628.467    624.760    624.760
 21.270    634.576    629.521      5.056    624.232    625.714    628.039    624.232    624.232
 21.370    587.264    629.127    -41.863    623.709    625.219    627.617    623.709    623.709
 21.470    602.000    628.742    -26.742    623.189    624.728    627.203    623.189    623.189
 21.570    592.000    628.377    -36.377    622.673    624.251    626.799    622.673    622.673
 21.670    584.000    628.024    -44.024    622.160    623.778    626.407    622.160    622.160
 21.770    629.000    627.672      1.328    621.652    623.305    626.019    621.652    621.652
 21.870    650.000    627.328     22.672    621.147    622.835    625.639    621.147    621.147
 21.970    621.502    626.997     -5.495    620.646    622.374    625.269    620.646    620.646
 22.070    624.000    626.676     -2.676    620.148    621.916    624.908    620.148    620.148
 22.170    623.547    626.369     -2.822    619.654    621.466    624.557    619.654    619.654
 22.270    645.000    626.077     18.923    619.164    621.024    624.217    619.164    619.164
 22.370    575.000    625.798    -50.798    618.678    620.589    623.887    618.678    618.678
 22.470    627.000    625.535      1.465    618.195    620.162    623.568    618.195    618.195
 22.570    613.376    625.289    -11.913    617.716    619.743    623.262    617.716    617.716
 22.670    590.793    625.062    -34.269    617.241    619.336    622.967    617.241    617.241
 22.770    665.926    624.858     41.068    616.769    618.941    622.686    616.769    616.769
 22.870    572.000    624.680    -52.680    616.301    618.562    622.419    616.301    616.301
 22.970    607.698    624.519    -16.821    615.836    618.191    622.165    615.836    615.836
 23.070    630.122    624.385      5.738    615.375    617.835    621.926    615.375    615.375
 23.170    619.000    624.281     -5.281    614.918    617.497    621.702    614.918    614.918
 23.270    622.000    624.211     -2.211    614.464    617.181    621.495    614.464    614.464
 23.370    591.000    624.180    -33.180    614.014    616.890    621.305    614.014    614.014
 23.470    612.000    624.195    -12.195    613.568    616.630    621.134    613.568    613.568
 23.570    640.000    624.265     15.735    613.125    616.407    620.983    613.125    613.125
 23.670    595.415    624.399    -28.984    612.685    616.232    620.853    612.685    612.685
 23.770    584.994    624.612    -39.618    612.249    616.117    620.746    612.249    612.249
 23.870    697.000    624.924     72.076    611.817    616.080    620.662    611.817    611.817
 23.970    648.981    625.364     23.617    611.388    616.151    620.604    611.388    611.388
 24.070    581.616    625.981    -44.365    610.963    616.372    620.574    610.963    610.963
 24.170    660.000    626.861     33.139    610.541    616.831    620.573    610.541    610.541
 24.270    620.000    628.193     -8.193    610.123    617.714    620.605    610.123    610.123
 24.370    633.000    630.397      2.603    609.708    619.438    620.673    609.708    609.708
 24.470    655.000    634.306     20.694    609.297    622.833    620.778    609.297    609.297
 24.570    641.000    641.262     -0.262    608.889    629.240    620.925    608.889    608.889
 24.670    665.000    652.792     12.208    608.485    640.181    621.117    608.485    608.485
 24.770    673.000    669.529      3.471    608.084    656.288    621.358    608.084    608.084
 24.870    669.000    689.328    -20.328    607.687    675.409    621.654    607.687    607.687
 24.970    717.000    705.421     11.579    607.293    690.763    622.010    607.293    607.293
 25.070    712.000    708.771      3.229    606.902    693.302    622.433    606.902    606.902
 25.170    695.000    697.165     -2.165    606.515    680.803    622.930    606.515    606.515
 25.270    652.000    678.482    -26.482    606.131    661.143    623.509    606.131    606.131
 25.370    662.000    661.225      0.775    605.751    642.821    624.180    605.751    605.751
 25.470    636.000    649.001    -13.001    605.374    629.435    624.955    605.374    605.374
 25.570    666.000    641.857     24.143    605.001    621.020    625.846    605.001    605.001
 25.670    608.000    638.399    -30.399    604.630    616.165    626.870    604.630    604.630
 25.770    605.166    637.161    -31.995    604.264    613.384    628.044    604.264    604.264
 25.870    692.000    637.155     54.845    603.900    611.667    629.390    603.900    603.900
 25.970    684.190    637.876     46.314    603.540    610.482    630.935    603.540    603.540
 26.070    594.144    639.115    -44.970    603.183    609.590    632.708    603.183    603.183
 26.170    680.569    640.804     39.765    602.829    608.885    634.748    602.829    602.829
 26.270    637.032    642.945     -5.913    602.479    608.319    637.105    602.479    602.479
 26.370    602.000    645.558    -43.558    602.132    607.861    639.829    602.132    602.132
 26.470    672.000    648.689     23.311    601.789    607.488    642.988    601.789    601.789
 26.570    617.000    652.421    -35.421    601.448    607.194    646.673    601.448    601.448
 26.670    681.000    656.863     24.137    601.111    606.977    650.994    601.111    601.111
 26.770    688.000    662.156     25.844    600.777    606.836    656.094    600.777    600.777
 26.870    673.053    668.490      4.562    600.447    606.777    662.156    600.447    600.447
 26.970    637.126    676.117    -38.992    600.119    606.808    669.424    600.119    600.119
 27.070    734.473    685.379     49.094    599.795    606.944    678.223    599.795    599.795
 27.170    710.616    696.741     13.875    599.474    607.209    688.999    599.474    599.474
 27.270    679.000    710.858    -31.858    599.156    607.633    702.372    599.156    599.156
 27.370    752.000    728.666     23.334    598.842    608.266    719.231    598.842    598.842
 27.470    727.000    751.567    -24.567    598.530    609.178    740.905    598.530    598.530
 27.570    780.000    781.892     -1.892    598.222    610.491    769.604    598.222    598.222
 27.670    789.000    824.581    -35.581    597.917    612.457    810.014    597.917    597.917
 27.770    901.000    893.668      7.332    597.615    615.792    875.445    597.615    597.615
 27.870   1048.000   1031.873     16.127    597.316    622.673   1006.422    597.316    597.316
 27.970   1373.329   1349.974     23.354    597.020    638.732   1308.059    597.020    597.020
 28.070   1876.000   2057.213   -181.213    596.728    674.611   1978.930    596.728    596.728
 28.170   3306.748   3384.230    -77.482    596.438    742.045   3237.971    596.438    596.438
 28.270   5178.000   5313.144   -135.144    596.152    840.168   5068.298    596.152    596.152
 28.370   7098.000   7250.867   -152.867    595.868    938.941   6907.047    595.868    595.868
 28.470   7954.000   8085.352   -131.352    595.588    982.081   7698.448    595.588    595.588
 28.570   7064.013   7201.335   -137.322    595.311    938.859   6857.684    595.311    595.311
 28.670   5475.000   5420.969     54.031    595.037    852.189   5163.829    595.037    595.037
 28.770   3845.920   3944.145    -98.225    594.766    784.859   3754.036    594.766    594.766
 28.870   3360.386   3371.339    -10.953    594.497    769.019   3196.744    594.497    594.497
 28.970   3706.000   3639.331     66.669    594.232    800.848   3432.658    594.232    594.232
 29.070   4292.000   4249.552     42.448    593.970    849.774   3993.832    593.970    593.970
 29.170   4545.508   4520.460     25.048    593.711    871.305   4243.143    593.711    593.711
 29.270   4113.000   4054.129     58.871    593.455    839.106   3808.843    593.455    593.455
 29.370   3087.000   3125.471    -38.471    593.202    773.513   2945.480    593.202    593.202
 29.470   2213.000   2204.203      8.797    592.951    708.244   2089.130    592.951    592.951
 29.570   1501.000   1535.430    -34.430    592.704    660.857   1467.403    592.704    592.704
 29.670   1152.708   1141.914     10.794    592.460    633.020   1101.417    592.460    592.460
 29.770   1012.000    940.359     71.641    592.218    618.828    913.779    592.218    592.218
 29.870    861.856    840.765     21.091    591.980    611.889    820.872    591.980    591.980
 29.970    806.000    786.862     19.138    591.744    608.213    770.403    591.744    591.744
 30.070    790.719    752.783     37.936    591.512    605.977    738.323    591.512    591.512
 30.170    750.292    728.557     21.735    591.282    604.496    715.346    591.282    591.282
 30.270    666.020    710.387    -44.367    591.055    603.540    697.903    591.055    591.055
 30.370    692.291    696.637     -4.346    590.830    603.077    684.391    590.830    590.830
 30.470    663.000    686.684    -23.684    590.609    603.255    674.036    590.609    590.609
 30.570    754.000    680.824     73.176    590.391    604.535    666.675    590.391    590.391
 30.670    685.000    680.463      4.537    590.175    607.836    662.791    590.175    590.175
 30.770    737.065    687.924     49.141    589.962    614.478    663.388    589.962    589.962
 30.870    705.000    705.165     -0.165    589.752    625.558    669.325    589.752    589.752
 30.970    748.000    731.162     16.838    589.545    640.653    680.001    589.545    589.545
 31.070    804.000    758.690     45.310    589.340    656.222    691.741    589.340    589.340
 31.170    796.155    773.449     22.706    589.138    665.169    697.345    589.138    589.138
 31.270    727.558    763.764    -36.206    588.939    661.701    690.938    588.939    588.939
 31.370    824.000    734.175     89.825    588.743    648.119    674.752    588.743    588.743
 31.470    720.000    699.058     20.942    588.550    631.634    655.943    588.550    588.550
 31.570    692.123    669.249     22.873    588.359    617.686    639.904    588.359    588.359
 31.670    693.644    648.470     45.175    588.171    608.153    628.477    588.171    588.171
 31.770    707.000    635.728     71.272    587.985    602.557    621.150    587.985    587.985
 31.870    655.000    628.359     26.641    587.802    599.578    616.579    587.802    587.802
 31.970    616.032    623.985     -7.953    587.622    598.040    613.564    587.622    587.622
 32.070    672.000    621.140     50.860    587.445    597.220    611.361    587.445    587.445
 32.170    667.000    619.107     47.893    587.270    596.770    609.605    587.270    587.270
 32.270    607.000    617.582    -10.582    587.098    596.546    608.132    587.098    587.098
 32.370    618.594    616.438      2.155    586.928    596.493    606.872    586.928    586.928
 32.470    664.220    615.621     48.599    586.761    596.593    605.787    586.761    586.761
 32.570    615.000    615.106     -0.106    586.597    596.845    604.856    586.597    586.597
 32.670    653.000    614.892     38.108    586.435    597.258    604.068    586.435    586.435
 32.770    621.000    614.995      6.005    586.276    597.851    603.418    586.276    586.276
 32.870    659.000    615.446     43.554    586.119    598.658    602.906    586.119    586.119
 32.970    565.671    616.304    -50.633    585.965    599.725    602.542    585.965    585.965
 33.070    630.000    617.654     12.346    585.813    601.122    602.343    585.813    585.813
 33.170    624.000    619.627      4.373    585.664    602.951    602.338    585.664    585.664
 33.270    614.000    622.441     -8.441    585.518    605.377    602.579    585.518    585.518
 33.370    662.000    626.504     35.496    585.373    608.707    603.167    585.373    585.373
 33.470    612.000    632.686    -20.686    585.232    613.592    604.322    585.232    585.232
 33.570    604.610    642.939    -38.329    585.093    621.488    606.539    585.093    585.093
 33.670    690.000    661.321     28.679    584.956    635.419    610.849    584.956    584.956
 33.770    719.000    695.008     23.992    584.822    660.734    619.082    584.822    584.822
 33.870    740.000    753.912    -13.912    584.690    704.816    633.762    584.690    584.690
 33.970    902.376    846.952     55.424    584.560    774.316    657.162    584.560    584.560
 34.070    995.000    974.141     20.859    584.434    869.243    689.285    584.434    584.434
 34.170   1086.000   1115.831    -29.831    584.309    974.967    725.123    584.309    584.309
 34.270   1192.364   1225.503    -33.139    584.187   1056.834    752.815    584.187    584.187
 34.370   1295.000   1247.085     47.915    584.067   1073.068    758.065    584.067    584.067
 34.470   1171.023   1165.990      5.033    583.949   1012.790    737.149    583.949    583.949
 34.570   1003.000   1028.272    -25.272    583.834    910.309    701.807    583.834    583.834
 34.670    876.000    890.208    -14.208    583.722    807.554    666.386    583.722    583.722
 34.770    761.000    781.999    -20.999    583.611    727.030    638.587    583.611    583.611
 34.870    764.484    709.830     54.654    583.503    673.349    619.988    583.503    583.503
 34.970    652.000    666.959    -14.959    583.397    641.488    608.871    583.397    583.397
 35.070    698.000    643.050     54.950    583.293    623.746    602.598    583.293    583.293
 35.170    603.732    629.594    -25.862    583.192    613.785    599.002    583.192    583.192
 35.270    674.000    621.391     52.609    583.093    607.729    596.755    583.093    583.093
 35.370    645.000    615.826     29.174    582.996    603.630    595.191    582.996    582.996
 35.470    606.072    611.717     -5.644    582.902    600.608    594.010    582.902    582.902
 35.570    580.736    608.529    -27.793    582.809    598.263    593.074    582.809    582.809
 35.670    620.000    605.988     14.012    582.719    596.392    592.315    582.719    582.719
 35.770    596.000    603.930     -7.930    582.631    594.870    591.692    582.631    582.631
 35.870    582.000    602.246    -20.246    582.546    593.615    591.175    582.546    582.546
 35.970    601.000    600.856      0.144    582.462    592.569    590.748    582.462    582.462
 36.070    558.012    599.705    -41.693    582.381    591.689    590.397    582.381    582.381
 36.170    580.000    598.752    -18.752    582.301    590.941    590.113    582.301    582.301
 36.270    605.000    597.968      7.032    582.224    590.302    589.890    582.224    582.224
 36.370    601.000    597.331      3.669    582.149    589.755    589.725    582.149    582.149
 36.470    560.760    596.827    -36.067    582.076    589.284    589.619    582.076    582.076
 36.570    609.000    596.448     12.552    582.006    588.880    589.573    582.006    582.006
 36.670    632.000    596.191     35.809    581.937    588.536    589.592    581.937    581.937
 36.770    621.000    596.060     24.940    581.870    588.246    589.684    581.870    581.870
 36.870    608.101    596.062     12.039    581.806    588.008    589.860    581.806    581.806
 36.970    588.000    596.217     -8.217    581.743    587.824    590.136    581.743    581.743
 37.070    598.000    596.555      1.445    581.683    587.699    590.539    581.683    581.683
 37.170    601.138    597.132      4.006    581.624    587.653    591.104    581.624    581.624
 37.270    599.000    598.055      0.945    581.568    587.730    591.892    581.568    581.568
 37.370    608.308    599.531      8.777    581.513    588.021    593.023    581.513    581.513
 37.470    582.000    601.965    -19.965    581.461    588.682    594.744    581.461    581.461
 37.570    589.000    606.095    -17.095    581.410    589.926    597.578    581.410    581.410
 37.670    628.000    613.128     14.872    581.362    591.954    602.534    581.362    581.362
 37.770    595.746    624.762    -29.016    581.315    594.811    611.264    581.315    581.315
 37.870    678.351    642.815     35.536    581.270    598.182    625.901    581.270    581.270
 37.970    647.000    668.220    -21.220    581.228    601.190    648.253    581.228    581.228
 38.070    738.000    699.649     38.351    581.187    602.540    678.290    581.187    581.187
 38.170    699.000    732.551    -33.551    581.148    601.537    712.158    581.148    581.148
 38.270    768.194    758.250      9.944    581.111    598.868    740.492    581.111    581.111
 38.370    777.139    764.991     12.148    581.075    595.657    750.413    581.075    581.075
 38.470    748.000    747.466      0.534    581.042    592.635    735.880    581.042    581.042
 38.570    728.000    714.268     13.732    581.010    590.180    705.105    581.010    581.010
 38.670    649.000    678.521    -29.521    580.981    588.409    671.099    580.981    580.981
 38.770    689.612    648.450     41.162    580.953    587.232    642.175    580.953    580.953
 38.870    587.530    626.792    -39.262    580.927    586.487    621.235    580.927    580.927
 38.970    575.000    612.888    -37.888    580.903    586.022    607.770    580.903    580.903
 39.070    585.000    604.629    -19.629    580.880    585.727    599.783    580.880    580.880
 39.170    584.000    599.853    -15.853    580.859    585.531    595.182    580.859    580.859
 39.270    588.000    596.991     -8.991    580.840    585.395    592.437    580.840    580.840
 39.370    567.986    595.126    -27.140    580.823    585.295    590.654    580.823    580.823
 39.470    621.555    593.796     27.759    580.808    585.220    589.384    580.808    580.808
 39.570    579.000    592.790    -13.790    580.794    585.169    588.415    580.794    580.794
 39.670    547.892    592.000    -44.108    580.782    585.136    587.646    580.782    580.782
 39.770    616.000    591.366     24.634    580.771    585.118    587.020    580.771    580.771
 39.870    627.000    590.853     36.147    580.763    585.113    586.503    580.763    580.763
 39.970    580.000    590.436    -10.436    580.755    585.120    586.071    580.755    580.755
 40.070    585.000    590.096     -5.096    580.750    585.140    585.707    580.750    580.750
 40.170    612.642    589.820     22.822    580.746    585.170    585.396    580.746    580.746
 40.270    627.455    589.598     37.857    580.744    585.213    585.130    580.744    580.744
 40.370    608.000    589.423     18.577    580.744    585.267    584.900    580.744    580.744
 40.470    539.834    589.289    -49.456    580.745    585.333    584.701    580.745    580.745
 40.570    596.539    589.193      7.346    580.747    585.413    584.528    580.747    580.747
 40.670    604.011    589.131     14.880    580.751    585.506    584.377    580.751    580.751
 40.770    630.000    589.103     40.897    580.757    585.616    584.245    580.757    580.757
 40.870    612.000    589.107     22.893    580.765    585.743    584.130    580.765    580.765
 40.970    608.000    589.144     18.856    580.773    585.889    584.029    580.773    580.773
 41.070    612.805    589.216     23.588    580.784    586.059    583.942    580.784    580.784
 41.170    604.098    589.325     14.773    580.796    586.255    583.867    580.796    580.796
 41.270    626.594    589.475     37.119    580.809    586.482    583.803    580.809    580.809
 41.370    559.000    589.672    -30.672    580.824    586.748    583.749    580.824    580.824
 41.470    581.000    589.922     -8.922    580.840    587.059    583.705    580.840    580.840
 41.570    536.000    590.238    -54.238    580.858    587.427    583.670    580.858    580.858
 41.670    589.000    590.634     -1.634    580.877    587.867    583.645    580.877    580.877
 41.770    589.000    591.131     -2.131    580.898    588.401    583.630    580.898    580.898
 41.870    599.000    591.764      7.236    580.920    589.061    583.625    580.920    580.920
 41.970    633.762    592.597     41.165    580.944    589.909    583.634    580.944    580.944
 42.070    598.000    593.753      4.247    580.968    591.065    583.659    580.968    580.968
 42.170    580.000    595.487    -15.487    580.995    592.774    583.712    580.995    580.995
 42.270    566.000    598.285    -32.285    581.022    595.503    583.809    581.022    581.022
 42.370    609.000    602.976      6.024    581.051    600.049    583.984    581.051    581.051
 42.470    592.910    610.740    -17.830    581.082    607.549    584.282    581.082    581.082
 42.570    640.000    622.873     17.127    581.113    619.249    584.752    581.113    581.113
 42.670    622.852    640.196    -17.343    581.146    635.938    585.427    581.146    581.146
 42.770    645.000    662.150    -17.150    581.181    657.081    586.284    581.181    581.181
 42.870    702.391    685.758     16.633    581.216    679.813    587.208    581.216    581.216
 42.970    731.505    704.857     26.648    581.253    698.207    587.961    581.253    581.253
 43.070    745.474    711.602     33.872    581.291    704.719    588.239    581.291    581.291
 43.170    698.000    702.420     -4.420    581.330    695.909    587.903    581.330    581.330
 43.270    681.688    682.034     -0.345    581.371    676.319    587.138    581.371    581.371
 43.370    622.000    658.431    -36.431    581.413    653.633    586.250    581.413    581.413
 43.470    634.000    637.272     -3.272    581.456    633.296    585.460    581.456    581.456
 43.570    625.000    621.022      3.978    581.500    617.679    584.862    581.500    581.500
 43.670    641.170    609.907     31.263    581.545    606.999    584.466    581.545    581.545
 43.770    637.000    602.953     34.047    581.592    600.320    584.233    581.592    581.592
 43.870    567.880    598.845    -30.965    581.640    596.377    584.113    581.640    581.640
 43.970    564.385    596.450    -32.064    581.689    594.081    584.061    581.689    581.689
 44.070    608.000    595.004     12.996    581.739    592.697    584.049    581.739    581.739
 44.170    626.000    594.073     31.927    581.790    591.806    584.060    581.790    581.790
 44.270    640.000    593.434     46.566    581.842    591.195    584.084    581.842    581.842
 44.370    615.930    592.979     22.951    581.896    590.758    584.118    581.896    581.896
 44.470    651.000    592.651     58.349    581.950    590.443    584.159    581.950    581.950
 44.570    620.860    592.419     28.441    582.006    590.219    584.207    582.006    582.006
 44.670    596.000    592.263      3.737    582.062    590.066    584.260    582.062    582.062
 44.770    590.000    592.169     -2.169    582.120    589.971    584.318    582.120    582.120
 44.870    614.000    592.127     21.873    582.178    589.925    584.381    582.178    582.178
 44.970    560.000    592.128    -32.128    582.238    589.918    584.448    582.238    582.238
 45.070    618.000    592.167     25.833    582.299    589.946    584.520    582.299    582.299
 45.170    569.960    592.240    -22.281    582.360    590.005    584.596    582.360    582.360
 45.270    597.842    592.344      5.498    582.423    590.091    584.676    582.423    582.423
 45.370    553.127    592.477    -39.350    582.487    590.203    584.761    582.487    582.487
 45.470    540.000    592.636    -52.636    582.551    590.338    584.849    582.551    582.551
 45.570    582.000    592.821    -10.821    582.617    590.496    584.943    582.617    582.617
 45.670    595.814    593.032      2.782    582.683    590.675    585.040    582.683    582.683
 45.770    640.783    593.269     47.514    582.751    590.877    585.143    582.751    582.751
 45.870    587.000    593.533     -6.533    582.819    591.101    585.250    582.819    582.819
 45.970    614.000    593.824     20.176    582.888    591.349    585.363    582.888    582.888
 46.070    619.000    594.144     24.856    582.958    591.620    585.481    582.958    582.958
 46.170    609.814    594.495     15.319    583.029    591.918    585.606    583.029    583.029
 46.270    584.000    594.881    -10.881    583.101    592.244    585.737    583.101    583.101
 46.370    620.000    595.305     24.695    583.174    592.602    585.875    583.174    583.174
 46.470    633.000    595.771     37.229    583.247    592.995    586.022    583.247    583.247
 46.570    609.572    596.285     13.287    583.321    593.428    586.177    583.321    583.321
 46.670    588.000    596.855     -8.855    583.397    593.908    586.343    583.397    583.397
 46.770    555.255    597.491    -42.235    583.472    594.442    586.520    583.472    583.472
 46.870    604.000    598.205      5.795    583.549    595.043    586.710    583.549    583.549
 46.970    620.000    599.016     20.984    583.627    595.725    586.915    583.627    583.627
 47.070    587.902    599.955    -12.054    583.705    596.517    587.141    583.705    583.705
 47.170    554.698    601.077    -46.379    583.784    597.467    587.392    583.784    583.784
 47.270    612.997    602.486     10.511    583.863    598.665    587.681    583.863    583.863
 47.370    643.000    604.375     38.625    583.944    600.285    588.030    583.944    583.944
 47.470    564.000    607.087    -43.087    584.025    602.629    588.476    584.025    584.025
 47.570    572.751    611.148    -38.396    584.107    606.168    589.078    584.107    584.107
 47.670    607.000    617.253    -10.253    584.189    611.518    589.912    584.189    584.189
 47.770    604.000    626.112    -22.112    584.272    619.311    591.055    584.272    584.272
 47.870    598.175    638.149    -39.974    584.356    629.923    592.556    584.356    584.356
 47.970    641.000    653.072    -12.072    584.440    643.092    594.386    584.440    584.440
 48.070    728.000    669.395     58.605    584.525    657.491    596.385    584.525    584.525
 48.170    693.000    684.044      8.956    584.611    670.377    598.224    584.611    584.611
 48.270    694.337    692.793      1.544    584.697    677.982    599.451    584.697    584.697
 48.370    691.000    692.646     -1.646    584.784    677.631    599.746    584.784    584.784
 48.470    678.000    684.419     -6.419    584.872    670.043    599.202    584.872    584.872
 48.570    657.000    671.944    -14.944    584.960    658.627    598.240    584.960    584.960
 48.670    658.000    659.207     -1.207    585.048    646.929    597.299    585.048    585.048
 48.770    643.000    648.772     -5.772    585.137    637.222    596.667    585.137    585.137
 48.870    657.000    641.743     15.257    585.227    630.480    596.477    585.227    585.227
 48.970    586.000    638.223    -52.223    585.317    626.772    596.757    585.317    585.317
 49.070    604.000    637.784    -33.784    585.408    625.699    597.486    585.408    585.408
 49.170    634.558    639.889     -5.331    585.499    626.746    598.636    585.499    585.499
 49.270    692.778    644.177     48.600    585.591    629.543    600.219    585.591    585.591
 49.370    649.000    650.703     -1.703    585.683    634.044    602.336    585.683    585.683
 49.470    641.000    660.267    -19.267    585.775    640.767    605.270    585.775    585.775
 49.570    655.000    675.197    -20.197    585.868    651.329    609.727    585.868    585.868
 49.670    684.710    700.918    -16.208    585.962    669.560    617.307    585.962    585.962
 49.770    754.642    748.461      6.181    586.056    703.260    631.232    586.056    586.056
 49.870    813.000    836.986    -23.986    586.150    766.014    657.080    586.150    586.150
 49.970    951.000    993.772    -42.772    586.245    877.223    702.719    586.245    586.245
 50.070   1172.000   1248.595    -76.595    586.340   1057.732    777.082    586.340    586.340
 50.170   1598.527   1617.958    -19.431    586.435   1319.344    884.875    586.435    586.435
 50.270   2086.739   2085.634      1.105    586.531   1650.595   1021.350    586.531    586.531
 50.370   2550.000   2585.818    -35.818    586.627   2004.909   1167.301    586.627    586.627
 50.470   2920.000   3000.827    -80.827    586.724   2298.984   1288.371    586.724    586.724
 50.570   3180.000   3191.938    -11.938    586.820   2434.616   1344.051    586.820    586.820
 50.670   3073.000   3081.342     -8.342    586.918   2356.723   1311.580    586.918    586.918
 50.770   2678.975   2717.787    -38.812    587.015   2099.844   1205.112    587.015    587.015
 50.870   2305.000   2232.300     72.700    587.113   1756.828   1062.788    587.113    587.113
 50.970   1744.000   1752.601     -8.601    587.211   1418.241    921.773    587.211    587.211
 51.070   1390.000   1359.587     30.413    587.309   1141.501    805.562    587.309    587.309
 51.170   1088.000   1082.113      5.887    587.408    947.125    722.519    587.408    587.408
 51.270    889.597    910.548    -20.951    587.506    828.236    669.904    587.506    587.506
 51.370    844.000    816.667     27.333    587.605    764.564    639.769    587.605    587.605
 51.470    815.000    770.117     44.883    587.704    734.030    623.838    587.704    587.704
 51.570    750.000    747.026      2.974    587.804    718.887    615.983    587.804    587.804
 51.670    724.038    732.424     -8.386    587.903    707.765    612.596    587.903    587.903
 51.770    782.000    719.603     62.397    588.003    695.722    611.912    588.003    588.003
 51.870    660.790    707.510    -46.720    588.103    682.496    613.137    588.103    588.103
 51.970    725.000    697.215     27.785    588.203    669.659    615.770    588.203    588.203
 52.070    651.000    689.526    -38.526    588.304    658.648    619.186    588.304    588.304
 52.170    676.381    684.237     -7.856    588.404    650.199    622.439    588.404    588.404
 52.270    660.801    680.266    -19.465    588.505    644.430    624.335    588.505    588.505
 52.370    697.000    676.352     20.648    588.605    641.062    623.889    588.605    588.605
 52.470    667.000    671.947     -4.947    588.706    639.670    620.977    588.706    588.706
 52.570    680.476    667.495     12.981    588.807    639.883    616.414    588.807    588.807
 52.670    644.000    663.955    -19.955    588.908    641.514    611.346    588.908    588.908
 52.770    717.000    662.338     54.662    589.009    644.662    606.683    589.009    589.009
 52.870    617.000    663.670    -46.670    589.110    649.838    602.941    589.110    589.110
 52.970    712.000    669.231     42.769    589.211    658.158    600.283    589.211    589.211
 53.070    679.000    680.955     -1.955    589.312    671.620    598.647    589.312    589.312
 53.170    772.000    701.789     70.211    589.413    693.323    597.878    589.413    589.413
 53.270    707.545    735.727    -28.182    589.514    727.419    597.820    589.514    589.514
 53.370    740.000    787.152    -47.152    589.615    778.469    598.295    589.615    589.615
 53.470    887.000    859.842     27.158    589.716    850.078    599.476    589.716    589.716
 53.570    931.000    954.168    -23.168    589.817    942.774    601.207    589.817    589.817
 53.670   1034.000   1065.054    -31.054    589.918   1051.635    603.335    589.918    589.918
 53.770   1172.000   1179.437     -7.437    590.020   1163.885    605.573    590.020    590.020
 53.870   1293.000   1274.931     18.069    590.120   1257.608    607.453    590.120    590.120
 53.970   1374.588   1324.236     50.352    590.221   1306.068    608.408    590.221    590.221
 54.070   1288.916   1309.831    -20.915    590.322   1292.106    608.077    590.322    590.322
 54.170   1193.713   1237.605    -43.892    590.423   1221.488    606.576    590.423    590.423
 54.270   1115.000   1131.589    -16.589    590.523   1117.753    604.396    590.523    590.523
 54.370    980.506   1017.717    -37.211    590.624   1006.306    602.067    590.624    590.624
 54.470    862.700    914.153    -51.452    590.724    904.942    599.961    590.724    590.724
 54.570    771.000    830.122    -59.122    590.825    822.701    598.265    590.825    590.825
 54.670    708.000    767.895    -59.895    590.925    761.808    597.026    590.925    590.925
 54.770    767.232    725.279     41.953    591.025    720.116    596.197    591.025    591.025
 54.870    709.000    697.977     11.023    591.124    693.417    595.690    591.124    591.124
 54.970    692.561    681.416     11.145    591.224    677.234    595.410    591.224    591.224
 55.070    721.427    671.821     49.607    591.323    667.867    595.280    591.323    591.323
 55.170    645.000    666.545    -21.545    591.422    662.724    595.245    591.422    591.422
 55.270    648.000    663.964    -15.964    591.521    660.215    595.272    591.521    591.521
 55.370    647.000    663.184    -16.184    591.620    659.463    595.343    591.620    591.620
 55.470    658.000    663.767     -5.767    591.719    660.039    595.448    591.719    591.719
 55.570    661.489    665.536     -4.047    591.817    661.770    595.584    591.817    591.817
 55.670    731.000    668.474     62.526    591.915    664.638    595.751    591.915    591.915
 55.770    664.735    672.686     -7.951    592.013    668.746    595.953    592.013    592.013
 55.870    691.000    678.435     12.565    592.110    674.349    596.196    592.110    592.110
 55.970    701.000    686.250     14.750    592.207    681.963    596.494    592.207    592.207
 56.070    695.975    697.170     -1.195    592.304    692.600    596.872    592.304    592.304
 56.170    688.000    713.173    -25.173    592.401    708.189    597.381    592.401    592.401
 56.270    704.000    737.820    -33.820    592.497    732.200    598.110    592.497    592.497
 56.370    710.000    777.024    -67.024    592.593    770.398    599.207    592.593    592.593
 56.470    815.000    839.625    -24.625    592.688    831.401    600.892    592.688    592.688
 56.570    917.000    937.174    -20.174    592.784    926.470    603.455    592.784    592.784
 56.670   1036.000   1082.226    -46.226    592.879   1067.848    607.211    592.879    592.879
 56.770   1174.000   1284.691   -110.691    592.973   1265.198    612.408    592.973    592.973
 56.870   1546.000   1546.548     -0.548    593.067   1520.455    619.096    593.067    593.067
 56.970   1863.523   1855.998      7.524    593.161   1822.120    626.981    593.161    593.161
 57.070   2180.000   2182.400     -2.400    593.254   2140.322    635.299    593.254    593.254
 57.170   2547.000   2473.991     73.009    593.347   2424.596    642.757    593.347    593.347
 57.270   2754.256   2664.476     89.780    593.440   2610.300    647.702    593.440    593.440
 57.370   2770.000   2697.800     72.200    593.532   2642.757    648.733    593.532    593.532
 57.470   2550.000   2562.819    -12.819    593.623   2511.077    645.576    593.623    593.623
 57.570   2247.047   2302.208    -55.161    593.714   2256.850    639.300    593.714    593.714
 57.670   1965.927   1983.164    -17.238    593.805   1945.592    631.591    593.805    593.805
 57.770   1703.000   1664.863     38.137    593.895   1634.998    623.941    593.895    593.895
 57.870   1389.240   1385.879      3.362    593.985   1362.666    617.339    593.985    593.985
 57.970   1069.000   1164.640    -95.640    594.074   1146.517    612.300    594.074    594.074
 58.070    985.000   1003.994    -18.994    594.163    989.228    608.998    594.163    594.163
 58.170    908.000    897.085     10.915    594.251    883.929    607.449    594.251    594.251
 58.270    805.924    833.208    -27.285    594.339    819.870    607.700    594.339    594.339
 58.370    816.000    802.317     13.683    594.426    786.797    609.952    594.426    594.426
 58.470    848.741    797.404     51.337    594.513    777.322    614.587    594.513    594.513
 58.570    858.382    814.829     43.554    594.599    787.364    622.043    594.599    594.599
 58.670    868.329    853.167     15.162    594.684    815.266    632.552    594.684    594.684
 58.770    894.000    911.353    -17.353    594.769    860.256    645.824    594.769    594.769
 58.870    916.000    986.769    -70.769    594.853    920.809    660.765    594.853    594.853
 58.970    982.000   1073.739    -91.739    594.937    993.256    675.371    594.937    594.937
 59.070   1208.000   1163.008     44.992    595.020   1071.063    686.925    595.020    595.020
 59.170   1258.000   1243.429     14.571    595.103   1145.722    692.786    595.103    595.103
 59.270   1282.197   1306.025    -23.828    595.185   1209.464    691.742    595.185    595.185
 59.370   1400.673   1346.265     54.408    595.266   1256.847    684.702    595.266    595.266
 59.470   1382.609   1361.811     20.797    595.347   1283.374    673.823    595.347    595.347
 59.570   1407.000   1351.534     55.466    595.427   1285.722    661.291    595.427    595.427
 59.670   1242.000   1319.519    -77.519    595.506   1266.217    648.859    595.506    595.506
 59.770   1219.712   1277.531    -57.819    595.585   1235.358    637.793    595.585    595.585
 59.870   1296.000   1240.535     55.465    595.663   1207.414    628.787    595.663    595.663
 59.970   1148.576   1220.553    -71.977    595.740   1194.310    621.947    595.740    595.740
 60.070   1269.000   1224.450     44.550    595.817   1203.215    616.968    595.817    595.817
 60.170   1236.000   1255.102    -19.102    595.893   1237.455    613.408    595.893    595.893
 60.270   1336.000   1312.558     23.442    595.968   1297.471    610.875    595.968    595.968
 60.370   1439.290   1392.454     46.836    596.042   1379.179    609.095    596.042    596.042
 60.470   1500.000   1483.053     16.947    596.116   1471.028    607.887    596.116    596.116
 60.570   1646.000   1564.216     81.784    596.189   1553.014    607.126    596.189    596.189
 60.670   1551.087   1610.760    -59.673    596.261   1600.045    606.723    596.261    596.261
 60.770   1604.000   1601.789      2.211    596.333   1591.284    606.618    596.333    596.333
 60.870   1491.000   1532.358    -41.358    596.404   1521.817    606.770    596.404    596.404
 60.970   1410.262   1416.499     -6.236    596.474   1405.688    607.155    596.474    596.474
 61.070   1229.277   1278.014    -48.737    596.543   1266.695    607.772    596.543    596.543
 61.170   1170.000   1139.492     30.508    596.611   1127.395    608.647    596.611    596.611
 61.270   1043.426   1017.149     26.278    596.679   1003.924    609.863    596.679    596.679
 61.370    924.000    920.145      3.855    596.745    905.272    611.588    596.745    596.745
 61.470    840.000    851.839    -11.839    596.811    834.483    614.141    596.811    596.811
 61.570    868.416    811.965     56.450    596.877    790.748    618.065    596.877    596.877
 61.670    806.000    799.086      6.914    596.941    771.790    624.201    596.941    596.941
 61.770    792.000    812.576    -20.576    597.004    775.813    633.719    597.004    597.004
 61.870    848.970    853.510     -4.540    597.067    802.464    648.045    597.067    597.067
 61.970    979.379    924.200     55.179    597.129    852.612    668.621    597.129    597.129
 62.070   1039.548   1026.490     13.058    597.190    927.071    696.480    597.190    597.190
 62.170   1170.000   1159.306     10.694    597.250   1024.706    731.679    597.250    597.250
 62.270   1278.000   1316.128    -38.128    597.309   1140.484    772.743    597.309    597.309
 62.370   1463.000   1483.047    -20.047    597.367   1263.950    816.218    597.367    597.367
 62.470   1572.787   1637.890    -65.103    597.424   1378.550    856.496    597.424    597.424
 62.570   1711.000   1751.860    -40.860    597.481   1462.818    886.254    597.481    597.481
 62.670   1775.000   1797.125    -22.125    597.536   1496.018    898.402    597.536    597.536
 62.770   1704.574   1760.642    -56.068    597.591   1468.419    889.621    597.591    597.591
 62.870   1675.000   1652.721     22.279    597.644   1387.676    862.553    597.644    597.644
 62.970   1447.000   1499.958    -52.958    597.697   1273.571    823.998    597.697    597.697
 63.070   1287.000   1331.382    -44.382    597.749   1147.704    781.379    597.749    597.749
 63.170   1165.000   1169.986     -4.986    597.799   1027.187    740.578    597.799    597.799
 63.270   1002.000   1030.410    -28.410    597.849    922.912    705.341    597.849    597.849
 63.370    942.865    919.426     23.439    597.898    839.918    677.406    597.898    597.898
 63.470    825.000    837.579    -12.579    597.946    778.606    656.919    597.946    597.946
 63.570    853.000    781.307     71.693    597.993    736.323    642.974    597.993    597.993
 63.670    765.710    745.266     20.444    598.039    709.089    634.210    598.039    598.039
 63.770    736.000    724.128     11.872    598.084    692.934    629.269    598.084    598.084
 63.870    687.314    713.710    -26.396    598.127    684.735    627.090    598.127    598.127
 63.970    710.000    711.464     -1.464    598.170    682.567    627.051    598.170    598.170
 64.070    782.000    716.542     65.458    598.212    685.720    629.013    598.212    598.212
 64.170    698.143    729.641    -31.498    598.253    694.538    633.326    598.253    598.253
 64.270    752.000    752.733     -0.733    598.293    710.155    640.832    598.293    598.293
 64.370    776.928    788.658    -11.731    598.331    734.122    652.814    598.331    598.331
 64.470    901.000    840.508     60.492    598.369    767.927    670.878    598.369    598.369
 64.570    956.080    910.746     45.334    598.405    812.384    696.672    598.405    598.405
 64.670   1049.456   1000.085     49.370    598.441    866.961    731.443    598.441    598.441
 64.770   1041.193   1106.255    -65.062    598.475    929.120    775.460    598.475    598.475
 64.870   1288.775   1222.857     65.918    598.509    993.794    827.396    598.509    598.509
 64.970   1414.447   1338.735     75.711    598.541   1053.262    883.822    598.541    598.541
 65.070   1497.000   1438.684     58.316    598.572   1098.138    938.921    598.572    598.572
 65.170   1499.143   1506.430     -7.287    598.602   1120.132    984.713    598.602    598.602
 65.270   1614.399   1529.492     84.907    598.631   1115.541   1012.419    598.631    598.631
 65.370   1527.523   1503.757     23.766    598.659   1086.791   1015.497    598.659    598.659
 65.470   1422.000   1435.383    -13.383    598.686   1040.951    993.027    598.686    598.686
 65.570   1401.000   1338.501     62.499    598.711    986.805    950.352    598.711    598.711
 65.670   1206.000   1229.652    -23.652    598.736    932.210    896.152    598.736    598.736
 65.770   1129.441   1122.670      6.771    598.759    882.526    838.901    598.759    598.759
 65.870    978.938   1026.442    -47.504    598.781    840.225    785.011    598.781    598.781
 65.970    996.113    945.027     51.086    598.802    805.393    738.458    598.802    598.802
 66.070    902.290    878.971     23.319    598.822    776.813    701.006    598.822    598.822
 66.170    773.579    826.971    -53.392    598.840    753.149    672.688    598.840    598.840
 66.270    743.000    787.080    -44.080    598.858    733.559    652.400    598.858    598.858
 66.370    764.000    757.227      6.773    598.874    717.621    638.496    598.874    598.874
 66.470    655.000    735.423    -80.423    598.889    705.059    629.264    598.889    598.889
 66.570    726.376    719.932      6.444    598.903    695.621    623.221    598.903    598.903
 66.670    688.309    709.383    -21.074    598.916    689.062    619.241    598.916    598.916
 66.770    685.000    702.780    -17.780    598.927    685.164    616.545    598.927    598.927
 66.870    667.096    699.456    -32.360    598.938    683.752    614.641    598.938    598.938
 66.970    669.000    699.032    -30.032    598.947    684.739    613.240    598.947    598.947
 67.070    692.984    701.450     -8.466    598.954    688.224    612.180    598.954    598.954
 67.170    716.000    707.069      8.931    598.961    694.646    611.384    598.961    598.961
 67.270    727.000    716.857     10.143    598.966    704.996    610.828    598.966    598.966
 67.370    730.000    732.632     -2.632    598.970    721.077    610.526    598.970    598.970
 67.470    791.442    757.347     34.095    598.973    745.787    610.534    598.973    598.973
 67.570    827.909    795.305     32.603    598.975    783.336    610.943    598.975    598.975
 67.670    826.000    852.167    -26.167    598.975    839.254    611.885    598.975    598.975
 67.770    929.000    934.552     -5.552    598.974    920.007    613.514    598.974    598.974
 67.870    985.205   1049.079    -63.873    598.972   1032.056    615.989    598.972    598.972
 67.970   1264.000   1200.780     63.220    598.969   1180.316    619.429    598.969    598.969
 68.070   1341.000   1391.084    -50.084    598.964   1366.185    623.863    598.964    598.964
 68.170   1552.000   1615.682    -63.682    598.958   1585.471    629.180    598.958    598.958
 68.270   1817.484   1862.702    -45.218    598.951   1826.603    635.082    598.951    598.951
 68.370   2174.862   2111.443     63.419    598.942   2069.399    641.049    598.942    598.942
 68.470   2417.699   2332.209     85.490    598.932   2284.906    646.339    598.932    598.932
 68.570   2505.845   2489.244     16.601    598.921   2438.261    650.060    598.921    598.921
 68.670   2494.000   2550.157    -56.157    598.909   2497.875    651.403    598.909    598.909
 68.770   2497.090   2500.555     -3.465    598.895   2449.702    650.007    598.895    598.895
 68.870   2338.669   2352.329    -13.661    598.880   2305.331    646.168    598.880    598.880
 68.970   2230.000   2136.620     93.380    598.863   2095.120    640.658    598.863    598.863
 69.070   1942.000   1889.289     52.711    598.845   1854.043    634.370    598.845    598.845
 69.170   1690.000   1640.845     49.155    598.826   1611.856    628.063    598.826    598.826
 69.270   1466.000   1412.968     53.032    598.806   1389.706    622.277    598.806    598.806
 69.370   1256.204   1218.432     37.771    598.784   1200.056    617.327    598.784    598.784
 69.470   1071.000   1062.278      8.722    598.761   1047.828    613.339    598.761    598.761
 69.570   1011.000    943.589     67.411    598.736    932.134    610.285    598.736    598.736
 69.670    942.000    857.621     84.379    598.710    848.341    608.058    598.710    598.710
 69.770    787.000    797.825    -10.825    598.683    790.067    606.488    598.683    598.683
 69.870    789.000    757.496     31.504    598.655    750.775    605.409    598.655    598.655
 69.970    676.201    730.797    -54.596    598.625    724.770    604.674    598.625    598.625
 70.070    733.000    713.194     19.806    598.593    707.633    604.170    598.593    598.593
 70.170    755.000    701.478     53.522    598.560    696.232    603.817    598.560    598.560
 70.270    698.853    693.542      5.311    598.526    688.512    603.563    598.526    598.526
 70.370    734.828    688.090     46.738    598.491    683.210    603.376    598.491    598.491
 70.470    753.000    684.373     68.627    598.454    679.593    603.236    598.454    598.454
 70.570    704.000    681.980     22.020    598.416    677.262    603.135    598.416    598.416
 70.670    625.880    680.718    -54.838    598.376    676.026    603.067    598.376    598.376
 70.770    728.463    680.538     47.925    598.335    675.838    603.033    598.335    598.335
 70.870    699.789    681.523     18.266    598.293    676.776    603.036    598.293    598.293
 70.970    696.561    683.913     12.648    598.249    679.072    603.084    598.249    598.249
 71.070    702.000    688.172     13.828    598.203    683.173    603.194    598.203    598.203
 71.170    698.000    695.097      2.903    598.157    689.850    603.392    598.157    598.157
 71.270    755.971    705.956     50.015    598.109    700.328    603.720    598.109    598.109
 71.370    787.000    722.638     64.362    598.059    716.432    604.242    598.059    598.059
 71.470    770.000    747.764     22.236    598.008    740.694    605.045    598.008    598.008
 71.570    792.000    784.686      7.314    597.956    776.355    606.239    597.956    597.956
 71.670    776.248    837.295    -61.047    597.902    827.176    607.955    597.902    597.902
 71.770    887.000    909.550    -22.550    597.847    896.984    610.325    597.847    597.847
 71.870    940.394   1004.713    -64.319    597.790    988.932    613.456    597.790    597.790
 71.970   1104.000   1124.341    -20.341    597.732   1104.524    617.403    597.732    597.732
 72.070   1308.000   1267.185     40.815    597.672   1242.555    622.124    597.672    597.672
 72.170   1386.031   1428.175    -42.144    597.611   1398.123    627.454    597.611    597.611
 72.270   1548.000   1597.635    -49.635    597.549   1561.874    633.075    597.549    597.549
 72.370   1804.000   1760.874     43.126    597.485   1719.606    638.503    597.485    597.485
 72.470   1944.000   1898.627     45.373    597.419   1852.690    643.105    597.419    597.419
 72.570   2071.978   1989.634     82.344    597.352   1940.572    646.179    597.352    597.352
 72.670   2004.000   2016.625    -12.625    597.284   1966.545    647.158    597.284    597.284
 72.770   1985.000   1973.802     11.198    597.214   1924.996    645.853    597.214    597.214
 72.870   1861.081   1869.943     -8.862    597.143   1824.402    642.554    597.143    597.143
 72.970   1688.000   1723.927    -35.927    597.071   1683.016    637.886    597.071    597.071
 73.070   1563.000   1557.049      5.951    596.996   1521.432    632.546    596.996    596.996
 73.170   1379.000   1387.695     -8.695    596.921   1357.438    627.132    596.921    596.921
 73.270   1179.000   1229.392    -50.392    596.844   1204.132    622.073    596.844    596.844
 73.370   1148.785   1090.670     58.115    596.765   1069.785    617.631    596.765    596.765
 73.470    941.000    975.608    -34.608    596.685    958.361    613.919    596.685    596.685
 73.570    839.549    884.694    -45.145    596.604    870.345    610.943    596.604    596.604
 73.670    840.080    815.895     24.185    596.521    803.764    608.644    596.521    596.521
 73.770    804.000    765.749     38.251    596.436    755.249    606.930    596.436    596.436
 73.870    765.169    730.320     34.849    596.350    720.958    605.706    596.350    596.350
 73.970    649.076    705.886    -56.810    596.263    697.256    604.888    596.263    596.263
 74.070    706.000    689.335     16.665    596.174    681.095    604.411    596.174    596.174
 74.170    687.000    678.311      8.689    596.084    670.159    604.234    596.084    596.084
 74.270    666.000    671.167     -5.167    595.992    662.819    604.339    595.992    595.992
 74.370    721.156    666.835     54.321    595.898    658.010    604.725    595.898    595.898
 74.470    637.731    664.651    -26.919    595.803    655.066    605.394    595.803    595.803
 74.570    670.000    664.198      5.802    595.707    653.569    606.346    595.707    595.707
 74.670    660.106    665.174     -5.068    595.609    653.233    607.565    595.609    595.609
 74.770    649.000    667.291    -18.291    595.510    653.811    609.010    595.510    595.510
 74.870    638.000    670.210    -32.210    595.409    655.036    610.609    595.409    595.409
 74.970    702.038    673.502     28.535    595.307    656.584    612.256    595.307    595.307
 75.070    655.412    676.630    -21.218    595.203    658.062    613.808    595.203    595.203
 75.170    669.000    678.988     -9.988    595.098    659.029    615.098    595.098    595.098
 75.270    684.000    680.024      3.976    594.991    659.080    615.979    594.991    594.991
 75.370    713.000    679.435     33.565    594.882    657.983    616.378    594.882    594.882
 75.470    705.000    677.327     27.673    594.773    655.791    616.351    594.773    594.773
 75.570    640.141    674.211    -34.070    594.661    652.827    616.083    594.661    594.661
 75.670    656.000    670.855    -14.855    594.548    649.585    615.850    594.548    594.548
 75.770    720.000    668.138     51.862    594.434    646.613    615.983    594.434    594.434
 75.870    678.000    666.964     11.036    594.318    644.450    616.849    594.318    594.318
 75.970    661.000    668.261     -7.261    594.201    643.618    618.852    594.201    594.201
 76.070    618.266    672.977    -54.711    594.082    644.624    622.435    594.082    594.082
 76.170    721.000    682.065     38.935    593.962    647.949    628.067    593.962    593.962
 76.270    708.000    696.417     11.583    593.840    654.031    636.204    593.840    593.840
 76.370    699.000    716.757    -17.757    593.717    663.208    647.233    593.717    593.717
 76.470    794.324    743.484     50.840    593.592    675.653    661.378    593.592    593.592
 76.570    783.000    776.480      6.520    593.466    691.281    678.606    593.466    593.466
 76.670    839.000    814.927     24.073    593.338    709.667    698.526    593.338    593.338
 76.770    857.000    857.153     -0.153    593.209    729.972    720.304    593.209    593.209
 76.870    895.694    900.497     -4.803    593.078    750.874    742.605    593.078    593.078
 76.970    997.000    941.287     55.713    592.946    770.557    763.571    592.946    592.946
 77.070    995.146    974.998     20.147    592.812    786.792    780.908    592.812    592.812
 77.170   1003.000    996.875      6.125    592.677    797.241    792.203    592.677    592.677
 77.270   1019.006   1003.187     15.818    592.540    800.067    795.558    592.540    592.540
 77.370   1049.000    992.680     56.320    592.402    794.651    790.339    592.402    592.402
 77.470    947.000    967.163    -20.163    592.262    781.879    777.467    592.262    592.262
 77.570    924.918    930.684     -5.765    592.121    763.734    759.003    592.121    592.121
 77.670    945.379    888.019     57.360    591.978    742.561    737.382    591.978    591.978
 77.770    889.000    843.521     45.479    591.834    720.492    714.820    591.834    591.834
 77.870    806.763    800.605      6.158    591.688    699.204    693.055    591.688    591.688
 77.970    690.000    761.643    -71.643    591.541    679.860    673.298    591.541    591.541
 78.070    729.000    728.031      0.969    591.392    663.144    656.260    591.392    591.392
 78.170    712.000    700.316     11.684    591.242    649.324    642.219    591.242    591.242
 78.270    614.000    678.380    -64.380    591.090    638.342    631.118    591.090    591.090
 78.370    614.200    661.648    -47.448    590.937    629.913    622.663    590.937    590.937
 78.470    667.219    649.293     17.926    590.783    623.633    616.436    590.783    590.783
 78.570    645.000    640.416      4.584    590.627    619.057    611.979    590.627    590.627
 78.670    614.000    634.170    -20.170    590.469    615.771    608.863    590.469    590.469
 78.770    670.168    629.839     40.329    590.310    613.421    606.723    590.310    590.310
 78.870    642.000    626.860     15.140    590.150    611.730    605.275    590.150    590.150
 78.970    585.000    624.824    -39.824    589.988    610.497    604.311    589.988    589.988
 79.070    615.000    623.450     -8.450    589.824    609.582    603.689    589.824    589.824
 79.170    639.000    622.559     16.441    589.659    608.895    603.319    589.659    589.659
 79.270    606.000    622.047    -16.047    589.493    608.386    603.151    589.493    589.493
 79.370    619.000    621.865     -2.865    589.325    608.026    603.160    589.325    589.325
 79.470    636.000    622.005     13.995    589.156    607.810    603.348    589.156    589.156
 79.570    593.734    622.498    -28.764    588.985    607.743    603.736    588.985    588.985
 79.670    610.951    623.408    -12.457    588.813    607.847    604.370    588.813    588.813
 79.770    584.000    624.849    -40.849    588.640    608.153    605.331    588.640    588.640
 79.870    622.000    626.990     -4.990    588.465    608.703    606.747    588.465    588.465
 79.970    629.000    630.089     -1.089    588.288    609.554    608.816    588.288    588.288
 80.070    601.182    634.513    -33.331    588.110    610.780    611.834    588.110    588.110
 80.170    631.000    640.782     -9.782    587.931    612.475    616.227    587.931    587.931
 80.270    621.000    649.598    -28.598    587.750    614.757    622.577    587.750    587.750
 80.370    669.000    661.871      7.129    587.568    617.777    631.644    587.568    587.568
 80.470    665.000    678.713    -13.713    587.384    621.718    644.356    587.384    587.384
 80.570    729.000    701.384     27.616    587.199    626.794    661.761    587.199    587.199
 80.670    740.000    731.187      8.813    587.013    633.235    684.928    587.013    587.013
 80.770    816.000    769.297     46.703    586.825    641.282    714.796    586.825    586.825
 80.870    827.000    816.557     10.443    586.636    651.168    751.973    586.636    586.636
 80.970    895.679    873.238     22.441    586.445    663.098    796.525    586.445    586.445
 81.070    925.181    938.783    -13.603    586.253    677.215    847.755    586.253    586.253
 81.170   1037.000   1011.544     25.456    586.060    693.519    904.015    586.060    586.060
 81.270   1142.000   1088.589     53.411    585.865    711.789    962.594    585.865    585.865
 81.370   1187.000   1165.666     21.334    585.668    731.523   1019.745    585.668    585.668
 81.470   1305.000   1237.425     67.575    585.471    751.929   1070.909    585.471    585.471
 81.570   1387.000   1298.041     88.959    585.272    771.990   1111.278    585.272    585.272
 81.670   1286.237   1342.231    -55.994    585.071    790.590   1136.684    585.071    585.071
 81.770   1306.324   1366.317    -59.993    584.870    806.663   1144.513    584.870    584.870
 81.870   1438.000   1369.033     68.967    584.666    819.450   1134.258    584.666    584.666
 81.970   1284.664   1351.194    -66.530    584.462    828.365   1107.318    584.462    584.462
 82.070   1301.083   1315.448    -14.365    584.256    833.134   1066.614    584.256    584.256
 82.170   1205.652   1265.774    -60.121    584.049    833.770   1016.111    584.049    584.049
 82.270   1301.000   1206.781     94.219    583.840    830.457    960.233    583.840    583.840
 82.370   1215.000   1142.942     72.058    583.631    823.425    903.225    583.631    583.631
 82.470   1078.939   1078.068      0.870    583.419    812.953    848.615    583.419    583.419
 82.570    998.000   1015.156    -17.156    583.207    799.504    798.942    583.207    583.207
 82.670    916.378    956.429    -40.051    582.993    783.794    755.708    582.993    582.993
 82.770    910.000    903.336      6.664    582.778    766.691    719.499    582.778    582.778
 82.870    849.000    856.541     -7.541    582.561    749.005    690.170    582.561    582.561
 82.970    803.276    816.032    -12.756    582.343    731.363    667.078    582.343    582.343
 83.070    761.000    781.362    -20.362    582.124    714.231    649.313    582.124    582.124
 83.170    790.000    751.939     38.061    581.904    698.002    635.893    581.904    581.904
 83.270    746.487    727.228     19.260    581.682    683.050    625.903    581.682    581.682
 83.370    719.000    706.813     12.187    581.459    669.735    618.573    581.459    581.459
 83.470    704.286    690.388     13.898    581.235    658.353    613.297    581.235    581.235
 83.570    733.000    677.710     55.290    581.009    649.113    609.625    581.009    581.009
 83.670    631.000    668.572    -37.572    580.783    642.122    607.242    580.783    580.783
 83.770    648.000    662.765    -14.765    580.554    637.393    605.927    580.554    580.554
 83.870    626.945    660.046    -33.100    580.325    634.839    605.523    580.325    580.325
 83.970    625.000    660.102    -35.102    580.095    634.281    605.897    580.095    580.095
 84.070    611.000    662.527    -51.527    579.863    635.448    606.915    579.863    579.863
 84.170    620.614    666.802    -46.189    579.630    637.976    608.422    579.630    579.630
 84.270    607.000    672.290    -65.290    579.395    641.415    610.228    579.395    579.395
 84.370    629.000    678.243    -49.243    579.160    645.243    612.112    579.160    579.160
 84.470    637.017    683.826    -46.808    578.923    648.880    613.816    578.923    578.923
 84.570    639.614    688.172    -48.559    578.685    651.729    615.073    578.685    578.685
 84.670    617.000    690.500    -73.500    578.446    653.255    615.634    578.446    578.446
 84.770    750.000    690.253     59.747    578.206    653.077    615.327    578.206    578.206
 84.870    624.000    687.253    -63.253    577.964    651.064    614.101    577.964    577.964
 84.970    705.005    681.734     23.272    577.722    647.365    612.043    577.722    577.722
 85.070    669.000    674.248     -5.248    577.478    642.341    609.343    577.478    577.478
 85.170    647.069    665.501    -18.432    577.233    636.450    606.247    577.233    577.233
 85.270    611.000    656.206    -45.206    576.987    630.157    603.005    576.987    576.987
 85.370    610.000    646.998    -36.998    576.739    623.868    599.843    576.739    576.739
 85.470    617.000    638.394    -21.394    576.491    617.906    596.956    576.491    576.491
 85.570    604.000    630.785    -26.785    576.241    612.505    594.502    576.241    576.241
 85.670    611.461    624.437    -12.976    575.991    607.809    592.602    575.991    575.991
 85.770    614.240    619.505     -5.265    575.739    603.880    591.349    575.739    575.739
 85.870    612.000    616.050     -4.050    575.486    600.717    590.805    575.486    575.486
 85.970    579.428    614.065    -34.637    575.232    598.273    591.009    575.232    575.232
 86.070    604.000    613.491     -9.491    574.977    596.473    591.980    574.977    574.977
 86.170    586.000    614.240    -28.240    574.721    595.235    593.709    574.721    574.721
 86.270    629.000    616.201     12.799    574.463    594.485    596.160    574.463    574.463
 86.370    662.676    619.246     43.431    574.205    594.167    599.261    574.205    574.205
 86.470    599.000    623.228    -24.228    573.946    594.253    602.895    573.946    573.946
 86.570    611.000    627.987    -16.987    573.685    594.746    606.897    573.685    573.685
 86.670    604.000    633.338    -29.338    573.424    595.683    611.045    573.424    573.424
 86.770    679.021    639.078     39.943    573.161    597.135    615.067    573.161    573.161
 86.870    670.000    644.990     25.010    572.898    599.201    618.644    572.898    572.898
 86.970    681.000    650.856     30.144    572.633    602.006    621.436    572.633    572.633
 87.070    636.000    656.499    -20.499    572.368    605.686    623.128    572.368    572.368
 87.170    701.000    661.834     39.166    572.101    610.377    623.500    572.101    572.101
 87.270    733.000    666.908     66.092    571.834    616.195    622.483    571.834    571.834
 87.370    698.468    671.896     26.572    571.565    623.210    620.180    571.565    571.565
 87.470    726.627    677.036     49.591    571.296    631.424    616.827    571.296    571.296
 87.570    769.000    682.530     86.470    571.026    640.743    612.722    571.026    571.026
 87.670    745.000    688.466     56.534    570.754    650.954    608.167    570.754    570.754
 87.770    691.000    694.768     -3.768    570.482    661.707    603.433    570.482    570.482
 87.870    806.000    701.171    104.829    570.209    672.513    598.748    570.209    570.209
 87.970    690.000    707.221    -17.221    569.935    682.738    594.291    569.935    569.935
 88.070    747.000    712.311     34.689    569.660    691.643    590.195    569.660    569.660
 88.170    740.000    715.756     24.244    569.384    698.463    586.541    569.384    569.384
 88.270    782.000    716.944     65.056    569.107    702.550    583.367    569.107    569.107
 88.370    774.000    715.515     58.485    568.830    703.545    580.671    568.830    568.830
 88.470    761.114    711.477     49.637    568.551    701.486    578.422    568.551    568.551
 88.570    706.000    705.204      0.796    568.272    696.794    576.575    568.272    568.272
 88.670    697.000    697.323     -0.323    567.992    690.148    575.074    567.992    567.992
 88.770    708.000    688.570     19.430    567.711    682.338    573.865    567.711    567.711
 88.870    673.000    679.685     -6.685    567.429    674.155    572.897    567.429    567.429
 88.970    667.000    671.354     -4.354    567.147    666.326    572.127    567.147    567.147
 89.070    687.000    664.166     22.834    566.863    659.478    571.518    566.863    566.863
 89.170    605.975    658.576    -52.602    566.579    654.095    571.039    566.579    566.579
 89.270    683.000    654.881     28.119    566.294    650.498    570.668    566.294    566.294
 89.370    640.000    653.200    -13.200    566.009    648.827    570.383    566.009    566.009
 89.470    641.000    653.474    -12.474    565.722    649.041    570.168    565.722    565.722
 89.570    707.222    655.480     51.742    565.435    650.933    570.003    565.435    565.435
 89.670    644.720    658.838    -14.118    565.147    654.144    569.873    565.147    565.147
 89.770    676.000    663.045     12.955    564.859    658.187    569.756    564.859    564.859
 89.870    660.896    667.494     -6.599    564.570    662.476    569.635    564.570    564.570
 89.970    677.000    671.517      5.483    564.280    666.365    569.485    564.280    564.280
 90.070    714.000    674.445     39.555    563.989    669.207    569.287    563.989    563.989
 90.170    709.000    675.704     33.296    563.698    670.443    569.023    563.698    563.698
 90.270    702.000    674.916     27.084    563.406    669.707    568.681    563.406    563.406
 90.370    640.640    671.978    -31.338    563.114    666.899    568.260    563.114    563.114
 90.470    653.862    667.072    -13.210    562.821    662.190    567.768    562.821    562.821
 90.570    695.829    660.589     35.240    562.527    655.959    567.218    562.527    562.527
 90.670    655.000    653.023      1.977    562.232    648.682    566.631    562.232    562.232
 90.770    636.000    644.885     -8.885    561.938    640.850    566.023    561.938    561.938
 90.870    659.000    636.635     22.365    561.642    632.908    565.413    561.642    561.642
 90.970    649.000    628.655     20.345    561.346    625.226    564.813    561.346    561.346
 91.070    586.000    621.243    -35.243    561.050    618.089    564.234    561.050    561.050
 91.170    594.000    614.603    -20.603    560.752    611.697    563.684    560.752    560.752
 91.270    656.000    608.859     47.141    560.455    606.166    563.167    560.455    560.455
 91.370    647.074    604.059     43.016    560.157    601.545    562.685    560.157    560.157
 91.470    630.643    600.193     30.450    559.858    597.825    562.237    559.858    559.858
 91.570    625.543    597.211     28.332    559.559    594.956    561.822    559.559    559.559
 91.670    611.000    595.041     15.959    559.260    592.869    561.436    559.260    559.260
 91.770    573.974    593.603    -19.629    558.960    591.487    561.078    558.960    558.960
 91.870    615.000    592.829     22.171    558.659    590.744    560.745    558.659    558.659
 91.970    595.000    592.671      2.329    558.359    590.593    560.435    558.359    558.359
 92.070    600.230    593.110      7.120    558.058    591.016    560.148    558.058    558.058
 92.170    667.000    594.162     72.838    557.756    592.030    559.884    557.756    557.756
 92.270    617.144    595.882     21.261    557.454    593.684    559.646    557.454    557.454
 92.370    614.639    598.359     16.280    557.152    596.066    559.437    557.152    557.152
 92.470    602.000    601.713      0.287    556.849    599.291    559.260    556.849    556.849
 92.570    592.000    606.092    -14.092    556.546    603.503    559.122    556.546    556.546
 92.670    569.207    611.658    -42.451    556.243    608.857    559.027    556.243    556.243
 92.770    613.000    618.576     -5.576    555.940    615.515    558.980    555.940    555.940
 92.870    639.000    627.000     12.000    555.636    623.624    558.985    555.636    555.636
 92.970    648.491    637.052     11.438    555.332    633.307    559.046    555.332    555.332
 93.070    685.899    648.814     37.085    555.028    644.642    559.162    555.028    555.028
 93.170    631.000    662.303    -31.303    554.723    657.649    559.333    554.723    554.723
 93.270    723.394    677.463     45.931    554.418    672.277    559.553    554.418    554.418
 93.370    644.000    694.135    -50.135    554.113    688.374    559.816    554.113    554.113
 93.470    720.000    712.117      7.883    553.808    705.742    560.116    553.808    553.808
 93.570    748.696    731.074     17.622    553.503    724.059    560.445    553.503    553.503
 93.670    778.000    750.579     27.421    553.198    742.903    560.795    553.198    553.198
 93.770    789.125    770.156     18.969    552.892    761.799    561.164    552.892    552.892
 93.870    756.000    789.334    -33.334    552.586    780.272    561.559    552.586    552.586
 93.970    773.000    807.752    -34.752    552.281    797.942    561.998    552.281    552.281
 94.070    837.477    825.253     12.224    551.975    814.616    562.518    551.975    551.975
 94.170    875.910    841.932     33.978    551.669    830.332    563.174    551.669    551.669
 94.270    813.722    858.089    -44.367    551.363    845.319    564.037    551.363    551.363
 94.370    826.000    874.109    -48.109    551.057    859.883    565.188    551.057    551.057
 94.470    902.000    890.322     11.678    550.751    874.276    566.703    550.751    550.751
 94.570    815.000    906.902    -91.902    550.445    888.605    568.647    550.445    550.445
 94.670    880.454    923.836    -43.382    550.139    902.817    571.065    550.139    550.139
 94.770    881.961    940.972    -59.011    549.833    916.746    573.967    549.833    549.833
 94.870    997.000    958.096     38.904    549.527    930.206    577.327    549.527    549.527
 94.970    988.621    974.979     13.642    549.222    943.038    581.075    549.222    549.222
 95.070    998.000    991.353      6.647    548.916    955.089    585.095    548.916    548.916
 95.170    993.698   1006.819    -13.121    548.610    966.124    589.224    548.610    548.610
 95.270   1062.453   1020.746     41.707    548.305    975.717    593.258    548.305    548.305
 95.370   1043.083   1032.224     10.859    548.000    983.197    596.956    548.000    548.000
 95.470   1047.533   1040.107      7.426    547.694    987.679    600.060    547.694    547.694
 95.570   1063.000   1043.161     19.839    547.389    988.182    602.314    547.389    547.389
 95.670   1001.000   1040.317    -39.317    547.085    983.848    603.510    547.085    547.085
 95.770   1015.000   1030.922    -15.922    546.780    974.157    603.511    546.780    546.780
 95.870    970.610   1014.977    -44.367    546.476    959.139    602.290    546.476    546.476
 95.970    989.000    993.204     -4.204    546.172    939.425    599.936    546.172    546.172
 96.070   1013.000    966.931     46.069    545.868    916.158    596.633    545.868    545.868
 96.170    948.000    937.870     10.130    545.565    890.811    592.621    545.565    545.565
 96.270    933.000    907.896     25.104    545.262    864.998    588.159    545.262    545.262
 96.370    869.000    878.879     -9.879    544.959    840.339    583.501    544.959    544.959
 96.470    808.660    852.591    -43.932    544.657    818.378    578.871    544.657    544.657
 96.570    865.000    830.647     34.353    544.355    800.544    574.456    544.355    544.355
 96.670    856.000    814.476     41.524    544.053    788.120    570.403    544.053    544.053
 96.770    775.190    805.305    -30.115    543.752    782.233    566.813    543.752    543.752
 96.870    802.813    804.152     -1.339    543.451    783.841    563.744    543.451    543.451
 96.970    856.000    811.815     44.185    543.151    793.720    561.219    543.151    543.151
 97.070    797.521    828.863    -31.342    542.851    812.448    559.230    542.851    542.851
 97.170    867.000    855.603     11.397    542.551    840.363    557.745    542.551    542.551
 97.270    900.805    892.098      8.706    542.253    877.571    556.723    542.253    542.253
 97.370    930.166    938.178     -8.012    541.954    923.951    556.113    541.954    541.954
 97.470   1030.370    993.212     37.158    541.657    978.929    555.861    541.657    541.657
 97.570   1041.047   1056.205    -15.158    541.360   1041.567    555.908    541.360    541.360
 97.670   1188.000   1125.717     62.283    541.063   1110.485    556.196    541.063    541.063
 97.770   1218.000   1199.839     18.161    540.767   1183.835    556.662    540.767    540.767
 97.870   1231.614   1276.118    -44.504    540.472   1259.234    557.242    540.472    540.472
 97.970   1337.000   1351.591    -14.591    540.177   1333.787    557.864    540.177    540.177
 98.070   1433.000   1422.821     10.179    539.883   1404.135    558.453    539.883    539.883
 98.170   1508.000   1486.024     21.976    539.590   1466.573    558.930    539.590    539.590
 98.270   1502.000   1537.341    -35.341    539.298   1517.321    559.216    539.298    539.298
 98.370   1553.364   1573.282    -19.918    539.006   1552.958    559.243    539.006    539.006
 98.470   1515.072   1591.296    -76.224    538.715   1570.981    558.960    538.715    538.715
 98.570   1606.000   1590.273     15.727    538.425   1570.302    558.346    538.425    538.425
 98.670   1632.578   1570.784     61.793    538.136   1551.480    557.411    538.136    538.136
 98.770   1610.359   1534.918     75.441    537.847   1516.560    556.196    537.847    537.847
 98.870   1507.000   1485.837     21.163    537.560   1468.645    554.760    537.560    537.560
 98.970   1430.000   1427.252      2.748    537.273   1411.376    553.170    537.273    537.273
 99.070   1334.000   1362.990    -28.990    536.987   1348.511    551.498    536.987    536.987
 99.170   1314.000   1296.705     17.295    536.702   1283.638    549.807    536.702    536.702
 99.270   1237.000   1231.707      5.293    536.418   1220.011    548.154    536.418    536.418
 99.370   1163.591   1170.881     -7.289    536.135   1160.468    546.588    536.135    536.135
 99.470   1155.000   1116.660     38.340    535.854   1107.403    545.147    535.854    535.854
 99.570   1091.000   1071.041     19.959    535.573   1062.783    543.861    535.573    535.573
 99.670   1069.000   1035.617     33.383    535.293   1028.184    542.750    535.293    535.293
 99.770   1011.000   1011.619     -0.619    535.014   1004.826    541.824    535.014    535.014
 99.870   1014.000    999.947     14.053    534.736    993.605    541.088    534.736    534.736
 99.970   1017.890   1001.188     16.702    534.460    995.110    540.539    534.460    534.460
100.070   1029.000   1015.626     13.374    534.184   1009.637    540.167    534.184    534.184
100.170   1054.000   1043.253     10.747    533.910   1037.192    539.960    533.910    533.910
100.270   1099.238   1083.773     15.465    533.637   1077.493    539.900    533.637    533.637
100.370   1089.115   1136.592    -47.477    533.365   1129.972    539.966    533.365    533.365
100.470   1265.291   1200.812     64.479    533.095   1193.752    540.134    533.095    533.095
100.570   1317.000   1275.202     41.798    532.825   1267.629    540.379    532.825    532.825
100.670   1361.001   1358.164      2.837    532.557   1350.035    540.671    532.557    532.557
100.770   1482.000   1447.700     34.300    532.291   1439.002    540.981    532.291    532.291
100.870   1498.197   1541.414    -43.217    532.025   1532.164    541.278    532.025    532.025
100.970   1593.394   1636.560    -43.166    531.761   1626.807    541.530    531.761    531.761
101.070   1665.062   1730.091    -65.029    531.499   1719.915    541.707    531.499    531.499
101.170   1812.000   1818.925     -6.925    531.238   1808.430    541.784    531.238    531.238
101.270   1911.266   1900.208     11.058    530.978   1889.514    541.745    530.978    530.978
101.370   1959.000   1971.565    -12.565    530.720   1960.796    541.585    530.720    530.720
101.470   1969.939   2031.209    -61.270    530.463   2020.480    541.310    530.463    530.463
101.570   2016.000   2077.859    -61.859    530.208   2067.267    540.939    530.208    530.208
101.670   2049.000   2110.533    -61.533    529.954   2100.149    540.497    529.954    529.954
101.770   2216.000   2128.350     87.650    529.702   2118.214    540.014    529.702    529.702
101.870   2149.000   2130.497     18.503    529.451   2120.620    539.519    529.451    529.451
101.970   2176.000   2116.429     59.571    529.203   2106.795    539.039    529.203    529.203
102.070   2083.000   2086.232     -3.232    528.955   2076.802    538.596    528.955    528.955
102.170   2035.000   2040.990     -5.990    528.710   2031.708    538.208    528.710    528.710
102.270   1916.378   1982.929    -66.551    528.466   1973.725    537.887    528.466    528.466
102.370   1880.000   1915.245    -35.245    528.224   1906.044    537.638    528.224    528.224
102.470   1898.679   1841.670     57.009    527.983   1832.401    537.460    527.983    527.983
102.570   1731.000   1765.967    -34.967    527.745   1756.563    537.347    527.745    527.745
102.670   1655.000   1691.501    -36.501    527.508   1681.912    537.284    527.508    527.508
102.770   1635.000   1620.979     14.021    527.273   1611.172    537.254    527.273    527.273
102.870   1548.000   1556.327     -8.327    527.040   1546.293    537.235    527.040    527.040
102.970   1438.294   1498.672    -60.378    526.809   1488.423    537.207    526.809    526.809
103.070   1443.000   1448.372     -5.372    526.580   1437.939    537.149    526.580    526.580
103.170   1401.607   1405.084     -3.477    526.353   1394.517    537.047    526.353    526.353
103.270   1371.000   1367.840      3.160    526.127   1357.202    536.885    526.127    526.127
103.370   1263.000   1335.168    -72.168    525.904   1324.533    536.651    525.904    525.904
103.470   1306.903   1305.268      1.634    525.683   1294.723    536.335    525.683    525.683
103.570   1245.000   1276.240    -31.240    525.464   1265.879    535.929    525.464    525.464
103.670   1242.707   1246.345     -3.637    525.247   1236.267    535.427    525.247    525.247
103.770   1272.205   1214.256     57.948    525.032   1204.559    534.831    525.032    525.032
103.870   1198.697   1179.223     19.474    524.819   1169.995    534.147    524.819    524.819
103.970   1141.000   1141.097     -0.097    524.608   1132.415    533.389    524.608    524.608
104.070   1117.000   1100.243     16.757    524.400   1092.163    532.576    524.400    524.400
104.170   1042.000   1057.374    -15.374    524.194   1049.933    531.727    524.194    524.194
104.270   1055.000   1013.384     41.616    523.990   1006.597    530.864    523.990    523.990
104.370    937.992    969.212    -31.220    523.788    963.079    530.004    523.788    523.788
104.470    874.562    925.761    -51.200    523.589    920.263    529.163    523.589    523.589
104.570    922.000    883.839     38.161    523.392    878.946    528.355    523.392    523.392
104.670    863.000    844.133     18.867    523.198    839.804    527.589    523.198    523.198
104.770    842.000    807.187     34.813    523.006    803.377    526.872    523.006    523.006
104.870    759.576    773.397    -13.821    522.816    770.055    526.208    522.816    522.816
104.970    766.000    742.985     23.015    522.629    740.066    525.591    522.629    522.629
105.070    730.194    716.117     14.077    522.444    713.561    525.037    522.444    522.444
105.170    713.000    692.751     20.249    522.262    690.506    524.538    522.262    522.262
105.270    717.574    672.758     44.816    522.083    670.776    524.091    522.083    522.083
105.370    661.000    655.933      5.067    521.906    654.170    523.690    521.906    521.906
105.470    638.000    642.017     -4.017    521.732    640.433    523.332    521.732    521.732
105.570    648.082    630.723     17.358    521.560    629.284    523.013    521.560    521.560
105.670    649.000    621.757     27.243    521.391    620.431    522.727    521.391    521.391
105.770    587.080    614.837    -27.757    521.225    613.597    522.471    521.225    521.225
105.870    627.000    609.706     17.294    521.062    608.530    522.242    521.062    521.062
105.970    608.000    606.145      1.855    520.901    605.012    522.035    520.901    520.901
106.070    646.000    603.973     42.027    520.743    602.866    521.850    520.743    520.743
106.170    612.000    603.056      8.944    520.588    601.958    521.683    520.588    520.588
106.270    607.000    603.295      3.705    520.436    602.192    521.533    520.436    520.436
106.370    575.000    604.630    -29.630    520.287    603.509    521.400    520.287    520.287
106.470    631.000    607.031     23.969    520.141    605.878    521.284    520.141    520.141
106.570    645.000    610.492     34.508    519.998    609.293    521.183    519.998    519.998
106.670    664.000    615.020     48.980    519.858    613.763    521.099    519.858    519.858
106.770    603.000    620.633    -17.633    519.721    619.304    521.031    519.721    519.721
106.870    656.000    627.347     28.653    519.587    625.932    520.979    519.587    519.587
106.970    667.648    635.171     32.477    519.456    633.656    520.945    519.456    519.456
107.070    670.652    644.093     26.559    519.328    642.465    520.926    519.328    519.328
107.170    688.000    654.074     33.926    519.204    652.321    520.924    519.204    519.204
107.270    691.000    665.039     25.961    519.082    663.148    520.937    519.082    519.082
107.370    724.000    676.866     47.134    518.964    674.828    520.962    518.964    518.964
107.470    683.000    689.385     -6.385    518.850    687.193    520.999    518.850    518.850
107.570    687.000    702.375    -15.375    518.738    700.024    521.043    518.738    518.738
107.670    691.549    715.566    -24.017    518.630    713.055    521.092    518.630    518.630
107.770    753.246    728.638     24.608    518.525    725.973    521.140    518.525    518.525
107.870    795.000    741.236     53.764    518.424    738.426    521.183    518.424    518.424
107.970    745.000    752.978     -7.978    518.326    750.037    521.215    518.326    518.326
108.070    803.194    763.481     39.713    518.232    760.430    521.230    518.232    518.232
108.170    753.000    772.392    -19.392    518.141    769.258    521.225    518.141    518.141
108.270    719.000    779.438    -60.438    518.054    776.250    521.193    518.054    518.054
108.370    723.000    784.464    -61.464    517.970    781.255    521.133    517.970    517.970
108.470    804.000    787.471     16.529    517.890    784.275    521.044    517.890    517.890
108.570    781.000    788.626     -7.626    517.814    785.474    520.928    517.814    517.814
108.670    744.238    788.239    -44.001    517.742    785.159    520.787    517.742    517.742
108.770    750.593    786.718    -36.125    517.673    783.733    520.627    517.673    517.673
108.870    843.619    784.516     59.103    517.608    781.645    520.452    517.608    517.608
108.970    734.000    782.081    -48.081    517.546    779.335    520.270    517.546    517.546
109.070    770.000    779.809     -9.809    517.489    777.195    520.085    517.489    517.489
109.170    721.000    778.024    -57.024    517.435    775.542    519.903    517.435    517.435
109.270    818.925    776.952     41.973    517.386    774.601    519.727    517.386    517.386
109.370    793.000    776.718     16.282    517.340    774.491    519.561    517.340    517.340
109.470    754.000    777.339    -23.339    517.299    775.228    519.407    517.299    517.299
109.570    766.000    778.720    -12.720    517.261    776.715    519.267    517.261    517.261
109.670    723.000    780.663    -57.663    517.227    778.752    519.142    517.227    517.227
109.770    737.278    782.870    -45.592    517.198    781.045    519.031    517.198    517.198
109.870    749.000    784.967    -35.967    517.173    783.218    518.933    517.173    517.173
109.970    735.000    786.523    -51.523    517.152    784.842    518.847    517.152    517.152
110.070    803.000    787.091     15.909    517.135    785.473    518.770    517.135    517.135
110.170    746.000    786.261    -40.261    517.122    784.703    518.700    517.122    517.122
110.270    838.001    783.702     54.299    517.114    782.206    518.632    517.114    517.114
110.370    748.660    779.224    -30.564    517.110    777.794    518.564    517.110    517.110
110.470    728.000    772.808    -44.808    517.110    771.436    518.508    517.110    517.110
110.570    739.000    764.563    -25.563    517.115    763.249    518.455    517.115    517.115
110.670    780.000    754.730     25.270    517.124    753.474    518.406    517.124    517.124
110.770    700.000    743.634    -43.634    517.138    742.437    518.361    517.138    517.138
110.870    684.000    731.639    -47.639    517.156    730.501    518.320    517.156    517.156
110.970    662.000    719.116    -57.116    517.179    718.035    518.285    517.179    517.179
111.070    699.657    706.411     -6.754    517.207    705.385    518.256    517.207    517.207
111.170    694.000    693.844      0.156    517.239    692.870    518.234    517.239    517.239
111.270    661.000    681.702    -20.702    517.276    680.776    518.220    517.276    517.276
111.370    706.000    670.210     35.790    517.317    669.328    518.215    517.317    517.317
111.470    670.000    659.551     10.449    517.363    658.709    518.219    517.363    517.363
111.570    656.000    649.863      6.137    517.415    649.056    518.233    517.415    517.415
111.670    623.000    641.239    -18.239    517.470    640.461    518.257    517.470    517.470
111.770    677.000    633.730     43.270    517.531    632.977    518.291    517.531    517.531
111.870    610.000    627.346    -17.346    517.597    626.613    518.335    517.597    517.597
111.970    653.000    622.069     30.931    517.668    621.350    518.389    517.668    517.668
112.070    620.000    617.849      2.151    517.744    617.141    518.452    517.744    517.744
112.170    609.990    614.621     -4.631    517.824    613.919    518.525    517.824    517.824
112.270    664.732    612.301     52.430    517.910    611.602    518.606    517.910    517.910
112.370    624.000    610.802     13.198    518.001    610.103    518.696    518.001    518.001
112.470    638.339    610.031     28.308    518.097    609.329    518.794    518.097    518.097
112.570    630.177    609.897     20.280    518.199    609.190    518.899    518.199    518.199
112.670    617.000    610.315      6.685    518.305    609.601    519.011    518.305    518.305
112.770    617.000    611.206      5.794    518.417    610.485    519.130    518.417    518.417
112.870    586.324    612.504    -26.179    518.535    611.774    519.254    518.535    518.535
112.970    597.000    614.151    -17.151    518.657    613.414    519.385    518.657    518.657
113.070    644.000    616.107     27.893    518.785    615.360    519.521    518.785    518.785
113.170    623.685    618.341      5.344    518.919    617.586    519.662    518.919    518.919
113.270    653.000    620.842     32.158    519.058    620.079    519.809    519.058    519.058
113.370    632.342    623.612      8.730    519.202    622.840    519.962    519.202    519.202
113.470    640.591    626.669     13.922    519.353    625.888    520.121    519.353    519.353
113.570    613.000    630.049    -17.049    519.508    629.258    520.287    519.508    519.508
113.670    679.400    633.805     45.596    519.670    633.001    520.461    519.670    519.670
113.770    592.459    638.009    -45.550    519.837    637.190    520.642    519.837    519.837
113.870    663.000    642.758     20.242    520.010    641.920    520.833    520.010    520.010
113.970    667.000    648.177     18.823    520.189    647.316    521.035    520.189    520.189
114.070    693.025    654.428     38.597    520.374    653.537    521.247    520.374    520.374
114.170    695.000    661.716     33.284    520.564    660.790    521.473    520.564    520.564
114.270    644.000    670.305    -26.305    520.761    669.333    521.713    520.761    520.761
114.370    659.000    680.526    -21.526    520.963    679.498    521.968    520.963    520.963
114.470    735.000    692.794     42.206    521.172    691.697    522.242    521.172    521.172
114.570    672.000    707.622    -35.622    521.386    706.443    522.535    521.386    521.386
114.670    752.000    725.645     26.355    521.607    724.367    522.850    521.607    521.607
114.770    716.916    747.631    -30.715    521.834    746.233    523.189    521.834    521.834
114.870    744.000    774.500    -30.500    522.067    772.961    523.555    522.067    522.067
114.970    782.224    807.342    -25.118    522.306    805.637    523.950    522.306    522.306
115.070    781.000    847.427    -66.427    522.552    845.528    524.376    522.552    522.552
115.170    892.000    896.209     -4.209    522.804    894.087    524.836    522.804    522.804
115.270    948.000    955.329     -7.329    523.062    952.950    525.333    523.062    523.062
115.370   1000.902   1026.598    -25.696    523.327   1023.926    525.869    523.327    523.327
115.470   1178.799   1111.974     66.825    523.598   1108.972    526.446    523.598    523.598
115.570   1227.378   1213.526     13.852    523.876   1210.154    527.066    523.876    523.876
115.670   1347.000   1333.374     13.626    524.161   1329.590    527.730    524.161    524.161
115.770   1474.000   1473.621      0.379    524.452   1469.382    528.439    524.452    524.452
115.870   1717.485   1636.261     81.223    524.749   1631.526    529.193    524.749    524.749
115.970   1851.000   1823.081     27.919    525.054   1817.807    529.992    525.054    525.054
116.070   2086.253   2035.537     50.715    525.365   2029.687    530.834    525.365    525.365
116.170   2306.870   2274.639     32.231    525.683   2268.175    531.717    525.683    525.683
116.270   2536.000   2540.814     -4.814    526.008   2533.705    532.637    526.008    526.008
116.370   2806.000   2833.792    -27.792    526.339   2826.012    533.590    526.339    526.339
116.470   3142.782   3152.484     -9.702    526.678   3144.016    534.569    526.678    526.678
116.570   3405.886   3494.889    -89.004    527.024   3485.723    535.568    527.024    527.024
116.670   3825.000   3857.984    -32.984    527.377   3848.120    536.577    527.377    527.377
116.770   4114.688   4237.867   -123.179    527.736   4227.313    537.591    527.736    527.736
116.870   4710.464   4629.463     81.001    528.103   4618.238    538.602    528.103    528.103
116.970   4961.223   5026.717    -65.494    528.478   5014.850    539.601    528.478    528.478
117.070   5565.260   5422.633    142.627    528.859   5410.161    540.581    528.859    528.859
117.170   5838.465   5809.361     29.104    529.248   5796.330    541.536    529.248    529.248
117.270   6140.971   6178.344    -37.373    529.644   6164.807    542.458    529.644    529.644
117.370   6540.000   6520.524     19.476    530.047   6506.544    543.341    530.047    530.047
117.470   6874.000   6826.637     47.363    530.458   6812.281    544.178    530.458    530.458
117.570   6991.057   7087.602    -96.544    530.876   7072.944    544.964    530.876    530.876
117.670   7422.138   7295.022    127.116    531.302   7280.144    545.690    531.302    531.302
117.770   7447.000   7441.780      5.220    531.736   7426.765    546.350    531.736    531.736
117.870   7414.000   7522.634   -108.634    532.177   7507.569    546.941    532.177    532.177
117.970   7545.000   7534.734     10.266    532.626   7519.704    547.458    532.626    532.626
118.070   7529.000   7477.920     51.080    533.082   7463.007    547.901    533.082    533.082
118.170   7463.000   7354.735    108.265    533.547   7340.016    548.271    533.547    533.547
118.270   7225.000   7170.149     54.851    534.019   7155.695    548.570    534.019    534.019
118.370   7072.354   6931.060    141.294    534.499   6916.935    548.803    534.499    534.499
118.470   6673.000   6645.690     27.310    534.987   6631.949    548.976    534.987    534.987
118.570   6136.000   6322.989   -186.989    535.483   6309.681    549.094    535.483    535.483
118.670   5773.000   5972.117   -199.117    535.987   5959.286    549.163    535.987    535.987
118.770   5552.376   5602.045    -49.669    536.499   5589.726    549.192    536.499    536.499
118.870   5234.182   5221.245     12.937    537.019   5209.469    549.186    537.019    537.019
118.970   4810.000   4837.486    -27.486    537.548   4826.274    549.155    537.548    537.548
119.070   4549.000   4457.676     91.324    538.084   4447.043    549.106    538.084    538.084
119.170   4207.000   4087.767    119.233    538.629   4077.723    549.049    538.629    538.629
119.270   3648.661   3732.702    -84.041    539.183   3723.245    548.993    539.183    539.183
119.370   3424.237   3396.391     27.846    539.744   3387.515    548.946    539.744    539.744
119.470   3185.000   3081.739    103.261    540.314   3073.430    548.919    540.314    540.314
119.570   2866.000   2790.699     75.301    540.893   2782.937    548.918    540.893    540.893
119.670   2581.000   2524.356     56.644    541.480   2517.115    548.950    541.480    541.480
119.770   2390.000   2283.036    106.964    542.076   2276.284    549.023    542.076    542.076
119.870   1975.503   2066.420    -90.917    542.681   2060.123    549.141    542.681    542.681
119.970   1867.503   1873.672     -6.169    543.294   1867.790    549.309    543.294    543.294
120.070   1751.899   1703.551     48.348    543.916   1698.042    549.530    543.916    543.916
120.170   1575.436   1554.526     20.909    544.547   1549.346    549.808    544.547    544.547
120.270   1491.000   1424.875     66.125    545.187   1419.977    550.144    545.187    545.187
120.370   1353.000   1312.773     40.227    545.836   1308.109    550.541    545.836    545.836
120.470   1262.116   1216.368     45.748    546.493   1211.887    551.000    546.493    546.493
120.570   1185.000   1133.843     51.157    547.160   1129.496    551.521    547.160    547.160
120.670   1058.570   1063.470     -4.900    547.836   1059.204    552.107    547.836    547.836
120.770   1048.000   1003.639     44.361    548.521    999.402    552.756    548.521    548.521
120.870    894.671    952.890    -58.219    549.215    948.628    553.470    549.215    549.215
120.970    950.614    909.917     40.697    549.918    905.575    554.250    549.918    549.918
121.070    885.000    873.576     11.424    550.631    869.100    555.095    550.631    550.631
121.170    871.000    842.879     28.121    551.353    838.213    556.007    551.353    551.353
121.270    841.235    816.984     24.251    552.085    812.070    556.987    552.085    552.085
121.370    811.954    795.180     16.774    552.826    789.960    558.035    552.826    552.826
121.470    775.000    776.872     -1.872    553.577    771.286    559.153    553.577    553.577
121.570    740.000    761.568    -21.568    554.337    755.554    560.343    554.337    554.337
121.670    745.000    748.861     -3.861    555.107    742.357    561.604    555.107    555.107
121.770    685.000    738.416    -53.416    555.886    731.357    562.940    555.886    555.886
121.870    712.562    729.955    -17.394    556.676    722.277    564.350    556.676    556.676
121.970    736.000    723.250     12.750    557.475    714.886    565.837    557.475    557.475
122.070    718.698    718.110      0.588    558.284    708.993    567.400    558.284    558.284
122.170    686.000    714.374    -28.374    559.103    704.437    569.041    559.103    559.103
122.270    642.000    711.904    -69.904    559.932    701.079    570.759    559.932    559.932
122.370    690.823    710.580    -19.757    560.771    698.800    572.554    560.771    560.771
122.470    719.000    710.293      8.707    561.620    697.493    574.426    561.620    561.620
122.570    659.000    710.946    -51.946    562.479    697.061    576.372    562.479    562.479
122.670    661.412    712.444    -51.032    563.349    697.413    578.390    563.349    563.349
122.770    748.143    714.697     33.446    564.229    698.461    580.475    564.229    564.229
122.870    685.000    717.611    -32.611    565.119    700.122    582.621    565.119    565.119
122.970    650.000    721.094    -71.094    566.019    702.309    584.820    566.019    566.019
123.070    733.027    725.048      7.979    566.930    704.935    587.061    566.930    566.930
123.170    710.480    729.370    -18.890    567.852    707.911    589.331    567.852    567.852
123.270    685.000    733.953    -48.953    568.784    711.145    591.615    568.784    568.784
123.370    705.000    738.682    -33.682    569.727    714.540    593.895    569.727    569.727
123.470    749.000    743.437      5.563    570.680    717.996    596.150    570.680    570.680
123.570    775.000    748.093     26.907    571.645    721.412    598.357    571.645    571.645
123.670    750.000    752.522     -2.522    572.620    724.682    600.493    572.620    572.620
123.770    770.000    756.591     13.409    573.606    727.701    602.533    573.606    573.606
123.870    776.000    760.172     15.828    574.602    730.364    604.452    574.602    574.602
123.970    741.569    763.142    -21.573    575.610    732.572    606.223    575.610    575.610
124.070    741.236    765.380    -24.144    576.629    734.230    607.826    576.629    576.629
124.170    784.000    766.770     17.230    577.659    735.239    609.240    577.659    577.659
124.270    775.000    767.308      7.692    578.700    735.607    610.453    578.700    578.700
124.370    793.000    766.919     26.081    579.753    735.269    611.456    579.753    579.753
124.470    823.564    765.588     57.977    580.817    734.212    612.247    580.817    580.817
124.570    773.038    763.336      9.703    581.892    732.451    612.833    581.892    581.892
124.670    775.000    760.214     14.786    582.978    730.024    613.225    582.978    582.978
124.770    802.000    756.299     45.701    584.076    726.991    613.440    584.076    584.076
124.870    784.801    751.684     33.118    585.186    723.424    613.501    585.186    585.186
124.970    756.365    746.477      9.888    586.307    719.406    613.432    586.307    586.307
