neutron_powder_diffraction_0178
R_wp: 3.888
Temperature (K): 1074.000
Counts: 83680.00
Wavelength (Ã…): 2.52098
COMMENTS
Test file for demonstrating the .xyy file format in Reel1.0
END OF HEADER
   tth       Y_obs     Y_calc      Y_res    Background    Phase_1_Nuc    Phase_1_Mag    Phase_2_Nuc    Phase_2_Mag
  9.970    582.000    571.986     10.014    571.377    571.963    571.377    571.400    571.377
 10.070    638.000    572.140     65.860    571.481    572.116    571.481    571.504    571.481
 10.170    593.384    572.294     21.090    571.579    572.271    571.579    571.602    571.579
 10.270    564.000    572.452     -8.452    571.670    572.428    571.670    571.694    571.670
 10.370    601.590    572.613     28.977    571.756    572.589    571.756    571.779    571.756
 10.470    661.000    572.782     88.218    571.835    572.758    571.835    571.859    571.835
 10.570    589.318    572.961     16.357    571.909    572.936    571.909    571.932    571.909
 10.670    558.915    573.154    -14.239    571.976    573.130    571.976    572.000    571.976
 10.770    552.000    573.368    -21.368    572.038    573.343    572.038    572.062    572.038
 10.870    597.000    573.609     23.391    572.094    573.584    572.094    572.118    572.094
 10.970    525.094    573.891    -48.797    572.144    573.864    572.144    572.170    572.144
 11.070    582.583    574.226      8.357    572.189    574.199    572.189    572.215    572.189
 11.170    606.000    574.637     31.363    572.228    574.610    572.228    572.254    572.228
 11.270    584.137    575.161      8.976    572.261    575.133    572.261    572.287    572.261
 11.370    569.000    575.854     -6.854    572.289    575.826    572.289    572.315    572.289
 11.470    558.211    576.842    -18.632    572.311    576.813    572.311    572.337    572.311
 11.570    571.000    578.482     -7.482    572.328    578.452    572.328    572.354    572.328
 11.670    563.000    581.881    -18.881    572.339    581.849    572.339    572.366    572.339
 11.770    560.888    589.882    -28.993    572.345    589.844    572.345    572.373    572.345
 11.870    644.952    607.548     37.404    572.346    607.491    572.346    572.384    572.346
 11.970    663.966    639.364     24.602    572.341    639.287    572.341    572.381    572.341
 12.070    699.000    681.674     17.326    572.332    681.573    572.332    572.372    572.332
 12.170    696.827    715.515    -18.688    572.317    715.395    572.317    572.357    572.317
 12.270    681.000    716.610    -35.610    572.297    716.489    572.297    572.338    572.297
 12.370    654.000    683.927    -29.927    572.273    683.825    572.273    572.313    572.273
 12.470    612.000    641.330    -29.330    572.243    641.251    572.243    572.283    572.243
 12.570    625.000    608.678     16.322    572.208    608.617    572.208    572.249    572.208
 12.670    645.000    590.324     54.676    572.169    590.272    572.169    572.210    572.169
 12.770    541.755    581.945    -40.190    572.124    581.894    572.124    572.170    572.124
 12.870    627.636    578.375     49.261    572.075    578.325    572.075    572.122    572.075
 12.970    600.000    576.652     23.348    572.021    576.602    572.021    572.069    572.021
 13.070    604.400    575.610     28.790    571.963    575.561    571.963    572.010    571.963
 13.170    568.429    574.873     -6.444    571.900    574.824    571.900    571.947    571.900
 13.270    535.000    574.311    -39.311    571.832    574.261    571.832    571.880    571.832
 13.370    549.000    573.863    -24.863    571.760    573.814    571.760    571.808    571.760
 13.470    578.000    573.495      4.505    571.683    573.446    571.683    571.732    571.683
 13.570    588.000    573.184     14.816    571.602    573.135    571.602    571.651    571.602
 13.670    595.000    572.914     22.086    571.517    572.864    571.517    571.566    571.517
 13.770    557.000    572.673    -15.673    571.427    572.623    571.427    571.476    571.427
 13.870    567.000    572.455     -5.455    571.333    572.405    571.333    571.382    571.333
 13.970    557.000    572.253    -15.253    571.235    572.203    571.235    571.284    571.235
 14.070    548.000    572.063    -24.063    571.132    572.013    571.132    571.182    571.132
 14.170    574.838    571.883      2.956    571.025    571.832    571.025    571.076    571.025
 14.270    566.433    571.709     -5.276    570.915    571.658    570.915    570.965    570.915
 14.370    581.518    571.540      9.979    570.800    571.488    570.800    570.851    570.800
 14.470    593.000    571.374     21.626    570.681    571.322    570.681    570.732    570.681
 14.570    586.572    571.210     15.362    570.559    571.158    570.559    570.610    570.559
 14.670    617.729    571.051     46.678    570.432    570.999    570.432    570.484    570.432
 14.770    540.000    570.890    -30.890    570.301    570.838    570.301    570.354    570.301
 14.870    551.000    570.729    -19.729    570.167    570.676    570.167    570.220    570.167
 14.970    569.840    570.569     -0.729    570.029    570.513    570.029    570.085    570.029
 15.070    614.698    570.406     44.292    569.887    570.349    569.887    569.944    569.887
 15.170    522.875    570.242    -47.367    569.742    570.184    569.742    569.799    569.742
 15.270    551.000    570.076    -19.076    569.593    570.018    569.593    569.651    569.593
 15.370    569.000    569.908     -0.908    569.440    569.850    569.440    569.498    569.440
 15.470    600.732    569.738     30.994    569.284    569.679    569.284    569.343    569.284
 15.570    586.254    569.566     16.687    569.124    569.507    569.124    569.184    569.124
 15.670    573.000    569.392      3.608    568.961    569.333    568.961    569.021    568.961
 15.770    533.774    569.216    -35.442    568.795    569.156    568.795    568.854    568.795
 15.870    550.000    569.038    -19.038    568.625    568.977    568.625    568.685    568.625
 15.970    553.000    568.857    -15.857    568.451    568.796    568.451    568.512    568.451
 16.070    604.756    568.673     36.083    568.275    568.612    568.275    568.336    568.275
 16.170    558.522    568.487     -9.965    568.095    568.426    568.095    568.156    568.095
 16.270    562.000    568.299     -6.299    567.912    568.237    567.912    567.974    567.912
 16.370    604.000    568.108     35.892    567.726    568.046    567.726    567.788    567.726
 16.470    577.000    567.915      9.085    567.536    567.852    567.536    567.599    567.536
 16.570    537.000    567.720    -30.720    567.344    567.656    567.344    567.407    567.344
 16.670    568.000    567.523      0.477    567.149    567.459    567.149    567.212    567.149
 16.770    552.826    567.322    -14.496    566.950    567.258    566.950    567.014    566.950
 16.870    573.281    567.119      6.162    566.749    567.054    566.749    566.813    566.749
 16.970    535.122    566.913    -31.791    566.545    566.848    566.545    566.609    566.545
 17.070    600.712    566.704     34.007    566.337    566.639    566.337    566.402    566.337
 17.170    543.943    566.493    -22.550    566.127    566.428    566.127    566.193    566.127
 17.270    594.000    566.280     27.720    565.915    566.214    565.915    565.981    565.915
 17.370    527.000    566.066    -39.066    565.699    565.998    565.699    565.767    565.699
 17.470    548.000    565.850    -17.850    565.481    565.782    565.481    565.549    565.481
 17.570    558.000    565.631     -7.631    565.260    565.562    565.260    565.329    565.260
 17.670    531.950    565.408    -33.458    565.036    565.339    565.036    565.106    565.036
 17.770    576.045    565.183     10.862    564.810    565.113    564.810    564.880    564.810
 17.870    578.000    564.956     13.044    564.582    564.885    564.582    564.652    564.582
 17.970    542.873    564.726    -21.854    564.350    564.655    564.350    564.421    564.350
 18.070    584.655    564.494     20.160    564.117    564.423    564.117    564.188    564.117
 18.170    557.000    564.260     -7.260    563.881    564.189    563.881    563.952    563.881
 18.270    520.000    564.024    -44.024    563.642    563.952    563.642    563.715    563.642
 18.370    527.000    563.786    -36.786    563.401    563.713    563.401    563.474    563.401
 18.470    605.826    563.546     42.280    563.158    563.473    563.158    563.232    563.158
 18.570    536.000    563.304    -27.304    562.913    563.230    562.913    562.987    562.913
 18.670    578.000    563.060     14.940    562.665    562.985    562.665    562.739    562.665
 18.770    564.000    562.814      1.186    562.415    562.739    562.415    562.490    562.415
 18.870    563.000    562.566      0.434    562.163    562.491    562.163    562.238    562.163
 18.970    565.000    562.317      2.683    561.908    562.240    561.908    561.985    561.908
 19.070    608.000    562.065     45.935    561.652    561.988    561.652    561.729    561.652
 19.170    591.431    561.811     29.619    561.394    561.734    561.394    561.471    561.394
 19.270    608.000    561.557     46.443    561.133    561.478    561.133    561.212    561.133
 19.370    541.078    561.304    -20.226    560.871    561.221    560.871    560.954    560.871
 19.470    553.000    561.047     -8.047    560.606    560.961    560.606    560.692    560.606
 19.570    529.129    560.787    -31.657    560.340    560.701    560.340    560.426    560.340
 19.670    547.000    560.525    -13.525    560.072    560.438    560.072    560.158    560.072
 19.770    602.950    560.262     42.688    559.801    560.174    559.801    559.889    559.801
 19.870    546.000    559.998    -13.998    559.529    559.909    559.529    559.618    559.529
 19.970    555.000    559.732     -4.732    559.256    559.642    559.256    559.345    559.256
 20.070    531.494    559.464    -27.970    558.980    559.374    558.980    559.070    558.980
 20.170    581.000    559.197     21.803    558.703    559.106    558.703    558.794    558.703
 20.270    554.000    558.941     -4.941    558.424    558.849    558.424    558.516    558.424
 20.370    539.569    558.680    -19.111    558.144    558.588    558.144    558.236    558.144
 20.470    598.062    558.410     39.651    557.861    558.317    557.861    557.955    557.861
 20.570    530.000    558.138    -28.138    557.578    558.044    557.578    557.672    557.578
 20.670    554.000    557.865     -3.865    557.292    557.770    557.292    557.388    557.292
 20.770    559.128    557.590      1.538    557.006    557.494    557.006    557.102    557.006
 20.870    587.130    557.315     29.815    556.717    557.218    556.717    556.815    556.717
 20.970    559.812    557.039      2.773    556.428    556.941    556.428    556.526    556.428
 21.070    588.000    556.764     31.236    556.136    556.665    556.136    556.236    556.136
 21.170    546.000    556.511    -10.511    555.844    556.411    555.844    555.944    555.844
 21.270    545.000    556.265    -11.265    555.550    556.163    555.550    555.651    555.550
 21.370    534.540    555.999    -21.459    555.255    555.896    555.255    555.357    555.255
 21.470    520.000    555.811    -35.811    554.958    555.707    554.958    555.062    554.958
 21.570    536.000    555.557    -19.557    554.660    555.452    554.660    554.765    554.660
 21.670    561.000    555.281      5.719    554.361    555.175    554.361    554.467    554.361
 21.770    561.000    555.005      5.995    554.061    554.897    554.061    554.168    554.061
 21.870    579.000    554.728     24.272    553.760    554.620    553.760    553.868    553.760
 21.970    568.000    554.453     13.547    553.457    554.343    553.457    553.567    553.457
 22.070    550.000    554.179     -4.179    553.154    554.068    553.154    553.265    553.154
 22.170    618.000    553.911     64.089    552.849    553.798    552.849    552.961    552.849
 22.270    537.627    553.687    -16.060    552.543    553.573    552.543    552.657    552.543
 22.370    586.000    553.438     32.562    552.236    553.323    552.236    552.352    552.236
 22.470    509.000    553.174    -44.174    551.929    553.057    551.929    552.046    551.929
 22.570    532.000    552.912    -20.912    551.620    552.793    551.620    551.739    551.620
 22.670    588.000    552.654     35.346    551.310    552.534    551.310    551.431    551.310
 22.770    550.000    552.401     -2.401    551.000    552.279    551.000    551.122    551.000
 22.870    502.000    552.157    -50.157    550.688    552.033    550.688    550.812    550.688
 22.970    544.000    551.922     -7.922    550.376    551.796    550.376    550.502    550.376
 23.070    562.000    551.693     10.307    550.063    551.566    550.063    550.191    550.063
 23.170    503.000    551.476    -48.476    549.749    551.347    549.749    549.879    549.749
 23.270    526.447    551.276    -24.829    549.434    551.143    549.434    549.568    549.434
 23.370    536.000    551.095    -15.095    549.119    550.959    549.119    549.256    549.119
 23.470    538.281    550.939    -12.658    548.803    550.800    548.803    548.942    548.803
 23.570    521.540    550.816    -29.276    548.486    550.675    548.486    548.628    548.486
 23.670    558.000    550.738      7.262    548.169    550.595    548.169    548.313    548.169
 23.770    574.994    550.724     24.270    547.851    550.578    547.851    547.997    547.851
 23.870    551.087    550.798      0.289    547.532    550.650    547.532    547.682    547.532
 23.970    578.000    551.010     26.990    547.213    550.859    547.213    547.365    547.213
 24.070    588.000    551.471     36.529    546.893    551.317    546.893    547.048    546.893
 24.170    548.000    552.505     -4.505    546.573    552.349    546.573    546.731    546.573
 24.270    580.000    555.075     24.925    546.252    554.918    546.252    546.414    546.252
 24.370    586.533    561.395     25.138    545.931    561.240    545.931    546.096    545.931
 24.470    579.000    574.850      4.150    545.609    574.701    545.609    545.778    545.609
 24.570    573.685    597.447    -23.763    545.287    597.311    545.287    545.460    545.287
 24.670    597.000    624.882    -27.882    544.965    624.761    544.965    545.142    544.965
 24.770    607.000    643.300    -36.300    544.642    643.188    544.642    544.823    544.642
 24.870    623.000    638.806    -15.806    544.319    638.687    544.319    544.505    544.319
 24.970    652.000    615.174     36.826    543.996    615.034    543.996    544.186    543.996
 25.070    616.000    587.966     28.034    543.672    587.802    543.672    543.867    543.672
 25.170    600.000    567.852     32.148    543.348    567.667    543.348    543.549    543.348
 25.270    558.000    556.524      1.476    543.024    556.325    543.024    543.230    543.024
 25.370    544.000    551.155     -7.155    542.699    550.947    542.699    542.912    542.699
 25.470    543.000    548.690     -5.690    542.375    548.474    542.375    542.594    542.375
 25.570    539.894    547.375     -7.481    542.050    547.150    542.050    542.276    542.050
 25.670    569.929    546.509     23.421    541.725    546.276    541.725    541.959    541.725
 25.770    549.000    545.856      3.144    541.400    545.616    541.400    541.642    541.400
 25.870    525.000    545.335    -20.335    541.075    545.085    541.075    541.325    541.075
 25.970    570.020    544.908     25.112    540.750    544.649    540.750    541.010    540.750
 26.070    499.928    544.555    -44.627    540.424    544.285    540.424    540.694    540.424
 26.170    546.000    544.265      1.735    540.099    543.985    540.099    540.380    540.099
 26.270    571.000    544.057     26.943    539.774    543.765    539.774    540.067    539.774
 26.370    570.000    543.899     26.101    539.449    543.594    539.449    539.754    539.449
 26.470    499.756    543.773    -44.017    539.124    543.454    539.124    539.443    539.124
 26.570    558.081    543.702     14.380    538.798    543.367    538.798    539.133    538.798
 26.670    587.000    543.695     43.305    538.473    543.343    538.473    538.825    538.473
 26.770    502.964    543.764    -40.800    538.149    543.394    538.149    538.518    538.149
 26.870    556.000    543.926     12.074    537.824    543.535    537.824    538.214    537.824
 26.970    522.000    544.203    -22.203    537.499    543.789    537.499    537.912    537.499
 27.070    570.000    544.631     25.369    537.175    544.192    537.175    537.613    537.175
 27.170    573.000    545.266     27.734    536.850    544.799    536.850    537.317    536.850
 27.270    504.784    546.171    -41.388    536.526    545.672    536.526    537.024    536.526
 27.370    589.000    547.424     41.576    536.202    546.889    536.202    536.736    536.202
 27.470    576.095    549.251     26.844    535.879    548.675    535.879    536.452    535.879
 27.570    575.000    552.169     22.831    535.556    551.546    535.556    536.175    535.556
 27.670    590.069    557.816     32.253    535.233    557.140    535.233    535.904    535.233
 27.770    592.000    571.192     20.808    534.910    570.450    534.910    535.642    534.910
 27.870    628.000    603.526     24.474    534.588    602.703    534.588    535.391    534.588
 27.970    647.295    670.364    -23.069    534.266    669.437    534.266    535.151    534.266
 28.070    789.000    776.586     12.414    533.944    775.532    533.944    534.927    533.944
 28.170    849.506    892.685    -43.180    533.623    891.489    533.623    534.721    533.623
 28.270    926.000    950.025    -24.025    533.302    948.690    533.302    534.540    533.302
 28.370    894.000    902.987     -8.987    532.982    901.516    532.982    534.390    532.982
 28.470    764.752    800.829    -36.077    532.662    799.180    532.662    534.282    532.662
 28.570    711.000    720.890     -9.890    532.343    718.987    532.343    534.230    532.343
 28.670    709.000    703.448      5.552    532.024    701.193    532.024    534.262    532.024
 28.770    760.000    745.263     14.737    531.705    742.521    531.705    534.427    531.705
 28.870    774.000    809.531    -35.531    531.387    806.089    531.387    534.815    531.387
 28.970    794.000    839.567    -45.567    531.070    835.060    531.070    535.578    531.070
 29.070    766.000    801.206    -35.206    530.753    795.024    530.753    536.945    530.753
 29.170    739.000    723.659     15.341    530.437    714.904    530.437    539.203    530.437
 29.270    677.000    651.969     25.031    530.122    639.489    530.122    542.609    530.122
 29.370    589.000    606.705    -17.705    529.807    589.285    529.807    547.229    529.807
 29.470    620.000    586.052     33.948    529.492    562.900    529.492    552.644    529.492
 29.570    623.000    579.163     43.837    529.179    550.824    529.179    557.516    529.179
 29.670    575.956    575.980     -0.024    528.866    545.220    528.866    559.624    528.866
 29.770    595.000    571.158     23.842    528.553    542.151    528.553    557.559    528.553
 29.870    604.000    564.306     39.694    528.242    540.148    528.242    552.398    528.242
 29.970    526.485    557.158    -30.673    527.931    538.735    527.931    546.352    527.931
 30.070    569.000    551.061     17.939    527.621    537.753    527.621    540.927    527.621
 30.170    529.163    546.538    -17.375    527.311    537.169    527.311    536.678    527.311
 30.270    532.000    543.703    -11.703    527.003    537.097    527.003    533.606    527.003
 30.370    559.000    542.771     16.229    526.695    537.989    526.695    531.474    526.695
 30.470    548.000    544.616      3.384    526.388    541.003    526.388    529.994    526.388
 30.570    500.000    551.065    -51.065    526.082    548.206    526.082    528.927    526.082
 30.670    577.000    564.118     12.882    525.776    561.765    525.776    528.106    525.776
 30.770    565.348    583.486    -18.139    525.472    581.489    525.472    527.431    525.472
 30.870    611.000    603.468      7.532    525.168    601.737    525.168    526.848    525.168
 30.970    631.000    612.551     18.449    524.865    611.035    524.865    526.326    524.865
 31.070    573.000    603.079    -30.079    524.563    601.749    524.563    525.849    524.563
 31.170    579.000    582.157     -3.157    524.262    580.985    524.262    525.404    524.262
 31.270    570.378    561.296      9.083    523.962    560.256    523.962    524.985    523.962
 31.370    536.000    546.436    -10.436    523.663    545.503    523.663    524.587    523.663
 31.470    547.552    537.966      9.586    523.365    537.121    523.365    524.205    523.365
 31.570    540.000    533.769      6.231    523.068    532.997    523.068    523.837    523.068
 31.670    539.000    531.723      7.277    522.771    531.012    522.771    523.480    522.771
 31.770    503.000    530.595    -27.595    522.476    529.938    522.476    523.132    522.476
 31.870    531.215    529.867      1.348    522.182    529.255    522.182    522.792    522.182
 31.970    525.000    529.353     -4.353    521.889    528.782    521.889    522.459    521.889
 32.070    534.000    528.990      5.010    521.597    528.453    521.597    522.132    521.597
 32.170    545.000    528.752     16.248    521.305    528.246    521.305    521.810    521.305
 32.270    528.000    528.629     -0.629    521.015    528.151    521.015    521.493    521.015
 32.370    544.000    528.623     15.377    520.726    528.169    520.726    521.179    520.726
 32.470    568.878    528.742     40.136    520.438    528.310    520.438    520.870    520.438
 32.570    532.752    529.003      3.749    520.151    528.590    520.151    520.563    520.151
 32.670    533.000    529.433      3.567    519.866    529.037    519.866    520.260    519.866
 32.770    531.587    530.071      1.515    519.581    529.691    519.581    519.960    519.581
 32.870    518.000    530.975    -12.975    519.298    530.609    519.298    519.662    519.298
 32.970    550.000    532.234     17.766    519.015    531.881    519.015    519.367    519.015
 33.070    548.000    533.985     14.015    518.734    533.643    518.734    519.075    518.734
 33.170    536.000    536.473     -0.473    518.454    536.141    518.454    518.784    518.454
 33.270    543.000    540.261      2.739    518.175    539.938    518.175    518.496    518.175
 33.370    550.623    546.858      3.765    517.898    546.543    517.898    518.209    517.898
 33.470    543.000    560.153    -17.153    517.621    559.843    517.621    517.925    517.621
 33.570    617.077    588.403     28.674    517.346    588.095    517.346    517.642    517.346
 33.670    640.000    644.421     -4.421    517.072    644.110    517.072    517.362    517.072
 33.770    781.000    739.573     41.427    516.800    739.252    516.800    517.083    516.800
 33.870    955.000    869.875     85.125    516.528    869.543    516.528    516.806    516.528
 33.970   1049.000   1000.241     48.759    516.258    999.905    516.258    516.531    516.258
 34.070   1085.551   1064.089     21.462    515.989   1063.766    515.989    516.257    515.989
 34.170    960.833   1016.071    -55.238    515.721   1015.779    515.721    515.985    515.721
 34.270    888.715    891.736     -3.020    515.455    891.471    515.455    515.715    515.455
 34.370    760.000    758.115      1.885    515.190    757.865    515.190    515.446    515.190
 34.470    634.000    655.864    -21.864    514.926    655.619    514.926    515.179    514.926
 34.570    583.000    593.245    -10.245    514.664    593.001    514.664    514.914    514.664
 34.670    551.439    560.521     -9.082    514.402    560.276    514.402    514.650    514.402
 34.770    517.625    544.655    -27.030    514.143    544.410    514.143    514.388    514.143
 34.870    518.000    536.595    -18.595    513.884    536.352    513.884    514.127    513.884
 34.970    535.000    531.839      3.161    513.627    531.597    513.627    513.868    513.627
 35.070    489.000    528.567    -39.567    513.372    528.328    513.372    513.610    513.372
 35.170    503.000    526.100    -23.100    513.117    525.862    513.117    513.354    513.117
 35.270    526.000    524.149      1.851    512.864    523.913    512.864    513.100    512.864
 35.370    538.000    522.564     15.436    512.613    522.329    512.613    512.847    512.613
 35.470    537.000    521.248     15.752    512.363    521.014    512.363    512.596    512.363
 35.570    495.000    520.136    -25.136    512.114    519.903    512.114    512.346    512.114
 35.670    504.000    519.181    -15.181    511.867    518.949    511.867    512.098    511.867
 35.770    510.000    518.350     -8.350    511.621    518.119    511.621    511.851    511.621
 35.870    509.000    517.618     -8.618    511.376    517.388    511.376    511.606    511.376
 35.970    528.000    516.966     11.034    511.133    516.737    511.133    511.363    511.133
 36.070    521.000    516.381      4.619    510.892    516.152    510.892    511.121    510.892
 36.170    560.000    515.852     44.148    510.652    515.623    510.652    510.880    510.652
 36.270    525.947    515.371     10.576    510.413    515.142    510.413    510.642    510.413
 36.370    507.000    514.932     -7.932    510.176    514.704    510.176    510.405    510.176
 36.470    534.000    514.532     19.468    509.940    514.304    509.940    510.169    509.940
 36.570    544.389    514.169     30.220    509.706    513.941    509.706    509.935    509.706
 36.670    536.000    513.844     22.156    509.473    513.615    509.473    509.702    509.473
 36.770    508.429    513.560     -5.130    509.242    513.330    509.242    509.472    509.242
 36.870    515.373    513.333      2.041    509.013    513.103    509.013    509.242    509.013
 36.970    501.000    513.209    -12.209    508.784    512.979    508.784    509.015    508.784
 37.070    507.000    513.309     -6.309    508.558    513.078    508.558    508.789    508.558
 37.170    501.000    513.885    -12.885    508.333    513.654    508.333    508.564    508.333
 37.270    552.850    515.328     37.522    508.109    515.097    508.109    508.341    508.109
 37.370    478.825    518.002    -39.177    507.887    517.770    507.887    508.120    507.887
 37.470    565.827    521.853     43.974    507.667    521.621    507.667    507.901    507.667
 37.570    569.000    525.973     43.027    507.448    525.741    507.448    507.683    507.448
 37.670    565.000    528.562     36.438    507.231    528.330    507.231    507.466    507.231
 37.770    501.864    528.106    -26.242    507.015    527.876    507.015    507.252    507.015
 37.870    496.434    525.002    -28.568    506.801    524.773    506.801    507.039    506.801
 37.970    546.840    520.921     25.919    506.588    520.692    506.588    506.827    506.588
 38.070    483.000    517.166    -34.166    506.377    516.936    506.377    506.618    506.377
 38.170    488.981    514.221    -25.239    506.167    513.988    506.167    506.410    506.167
 38.270    543.924    512.117     31.807    505.960    511.881    505.960    506.203    505.960
 38.370    491.336    510.699    -19.363    505.753    510.458    505.753    505.998    505.753
 38.470    503.000    509.759     -6.759    505.549    509.516    505.549    505.795    505.549
 38.570    500.000    509.128     -9.128    505.346    508.882    505.346    505.594    505.346
 38.670    469.780    508.683    -38.904    505.144    508.434    505.144    505.394    505.144
 38.770    501.000    508.343     -7.343    504.944    508.092    504.944    505.196    504.944
 38.870    497.000    508.059    -11.059    504.746    507.806    504.746    505.000    504.746
 38.970    476.000    507.807    -31.807    504.550    507.552    504.550    504.805    504.550
 39.070    532.000    507.575     24.425    504.355    507.318    504.355    504.612    504.355
 39.170    538.000    507.358     30.642    504.161    507.098    504.161    504.421    504.161
 39.270    490.000    507.153    -17.153    503.970    506.891    503.970    504.232    503.970
 39.370    505.000    506.958     -1.958    503.780    506.694    503.780    504.044    503.780
 39.470    468.287    506.772    -38.485    503.591    506.506    503.591    503.858    503.591
 39.570    496.000    506.595    -10.595    503.405    506.326    503.405    503.674    503.405
 39.670    512.000    506.426      5.574    503.219    506.155    503.219    503.491    503.219
 39.770    523.000    506.265     16.735    503.036    505.991    503.036    503.310    503.036
 39.870    493.708    506.112    -12.404    502.854    505.835    502.854    503.131    502.854
 39.970    518.304    505.967     12.337    502.674    505.688    502.674    502.954    502.674
 40.070    469.000    505.830    -36.830    502.496    505.548    502.496    502.778    502.496
 40.170    525.000    505.702     19.298    502.319    505.417    502.319    502.604    502.319
 40.270    467.000    505.583    -38.583    502.144    505.295    502.144    502.432    502.144
 40.370    475.052    505.475    -30.423    501.970    505.183    501.970    502.262    501.970
 40.470    502.000    505.377     -3.377    501.799    505.082    501.799    502.094    501.799
 40.570    486.000    505.292    -19.292    501.629    504.994    501.629    501.927    501.629
 40.670    533.000    505.221     27.779    501.460    504.920    501.460    501.762    501.460
 40.770    493.000    505.167    -12.167    501.293    504.862    501.293    501.599    501.293
 40.870    522.000    505.131     16.869    501.128    504.823    501.128    501.438    501.128
 40.970    445.000    505.119    -60.119    500.965    504.806    500.965    501.278    500.965
 41.070    513.232    505.133      8.099    500.803    504.817    500.803    501.120    500.803
 41.170    531.000    505.182     25.818    500.644    504.861    500.644    500.964    500.644
 41.270    495.000    505.271    -10.271    500.485    504.947    500.485    500.810    500.485
 41.370    530.686    505.414     25.271    500.329    505.086    500.329    500.658    500.329
 41.470    497.320    505.626     -8.306    500.174    505.293    500.174    500.508    500.174
 41.570    504.000    505.932     -1.932    500.021    505.595    500.021    500.359    500.021
 41.670    552.000    506.377     45.623    499.869    506.035    499.869    500.213    499.869
 41.770    489.000    507.060    -18.060    499.719    506.714    499.719    500.068    499.719
 41.870    487.000    508.223    -21.223    499.571    507.873    499.571    499.925    499.571
 41.970    481.000    510.423    -29.423    499.425    510.068    499.425    499.784    499.425
 42.070    483.000    514.775    -31.775    499.280    514.416    499.280    499.645    499.280
 42.170    530.473    523.066      7.407    499.137    522.705    499.137    499.507    499.137
 42.270    510.000    537.353    -27.353    498.996    536.993    498.996    499.372    498.996
 42.370    525.000    558.721    -33.721    498.856    558.365    498.856    499.239    498.856
 42.470    539.000    585.417    -46.417    498.719    585.069    498.719    499.107    498.719
 42.570    588.000    611.224    -23.224    498.582    610.884    498.582    498.977    498.582
 42.670    604.285    625.991    -21.706    498.448    625.655    498.448    498.850    498.448
 42.770    620.000    621.957     -1.957    498.315    621.615    498.315    498.724    498.315
 42.870    609.794    601.487      8.306    498.184    601.129    498.184    498.600    498.184
 42.970    543.817    574.257    -30.440    498.055    573.877    498.055    498.479    498.055
 43.070    512.000    549.087    -37.087    497.927    548.685    497.927    498.359    497.927
 43.170    541.000    530.323     10.677    497.801    529.901    497.801    498.242    497.801
 43.270    471.000    518.397    -47.397    497.677    517.959    497.677    498.126    497.677
 43.370    512.000    511.674      0.326    497.555    511.223    497.555    498.012    497.555
 43.470    528.000    508.130     19.870    497.434    507.667    497.434    497.901    497.434
 43.570    501.000    506.239     -5.239    497.315    505.765    497.315    497.792    497.315
 43.670    475.000    505.128    -30.128    497.197    504.644    497.197    497.684    497.197
 43.770    511.742    504.387      7.354    497.082    503.891    497.082    497.579    497.082
 43.870    517.000    503.841     13.159    496.968    503.333    496.968    497.477    496.968
 43.970    482.722    503.415    -20.694    496.855    502.896    496.855    497.376    496.855
 44.070    481.000    503.076    -22.076    496.745    502.544    496.745    497.278    496.745
 44.170    501.000    502.801     -1.801    496.636    502.256    496.636    497.182    496.636
 44.270    466.323    502.577    -36.254    496.529    502.019    496.529    497.088    496.529
 44.370    446.000    502.395    -56.395    496.423    501.823    496.423    496.997    496.423
 44.470    491.000    502.248    -11.248    496.319    501.660    496.319    496.908    496.319
 44.570    514.000    502.130     11.870    496.217    501.527    496.217    496.821    496.217
 44.670    503.658    502.038      1.621    496.117    501.418    496.117    496.737    496.117
 44.770    538.000    501.968     36.032    496.018    501.331    496.018    496.656    496.018
 44.870    505.988    501.919      4.068    495.921    501.263    495.921    496.577    495.921
 44.970    480.000    501.890    -21.890    495.826    501.215    495.826    496.502    495.826
 45.070    521.000    501.879     19.121    495.732    501.183    495.732    496.429    495.732
 45.170    457.000    501.886    -44.886    495.640    501.168    495.640    496.358    495.640
 45.270    505.338    501.911      3.428    495.550    501.169    495.550    496.291    495.550
 45.370    476.000    501.953    -25.953    495.461    501.186    495.461    496.228    495.461
 45.470    513.000    502.013     10.987    495.374    501.221    495.374    496.167    495.374
 45.570    540.401    502.093     38.308    495.289    501.272    495.289    496.110    495.289
 45.670    534.411    502.193     32.219    495.205    501.341    495.205    496.057    495.205
 45.770    478.000    502.314    -24.314    495.123    501.430    495.123    496.007    495.123
 45.870    490.000    502.458    -12.458    495.043    501.540    495.043    495.962    495.043
 45.970    472.195    502.628    -30.434    494.965    501.672    494.965    495.921    494.965
 46.070    477.000    502.827    -25.827    494.888    501.830    494.888    495.884    494.888
 46.170    475.683    503.055    -27.372    494.812    502.015    494.812    495.852    494.812
 46.270    515.000    503.322     11.678    494.739    502.234    494.739    495.826    494.739
 46.370    484.000    503.633    -19.633    494.667    502.493    494.667    495.805    494.667
 46.470    518.000    503.994     14.006    494.596    502.799    494.596    495.791    494.596
 46.570    520.000    504.417     15.583    494.528    503.160    494.528    495.784    494.528
 46.670    505.000    504.917      0.083    494.461    503.593    494.461    495.784    494.461
 46.770    530.000    505.521     24.479    494.395    504.122    494.395    495.792    494.395
 46.870    539.000    506.283     32.717    494.331    504.803    494.331    495.810    494.331
 46.970    514.000    507.326      6.674    494.269    505.755    494.269    495.838    494.269
 47.070    489.311    508.917    -19.606    494.209    507.244    494.209    495.878    494.209
 47.170    502.000    511.576     -9.576    494.150    509.789    494.150    495.931    494.150
 47.270    492.000    516.156    -24.156    494.092    514.240    494.092    496.000    494.092
 47.370    537.000    523.741     13.259    494.037    521.678    494.037    496.086    494.037
 47.470    544.000    535.216      8.784    493.983    532.984    493.983    496.193    493.983
 47.570    552.000    550.517      1.483    493.930    548.090    493.930    496.324    493.930
 47.670    556.925    567.807    -10.882    493.879    565.158    493.879    496.484    493.879
 47.770    584.000    583.023      0.977    493.830    580.121    493.830    496.677    493.830
 47.870    626.825    590.721     36.104    493.782    587.533    493.782    496.912    493.782
 47.970    620.000    587.674     32.326    493.736    584.159    493.736    497.198    493.736
 48.070    601.000    576.084     24.916    493.692    572.185    493.692    497.548    493.692
 48.170    589.000    561.268     27.732    493.649    556.905    493.649    497.980    493.649
 48.270    584.898    547.811     37.088    493.608    542.871    493.608    498.527    493.608
 48.370    557.000    538.172     18.828    493.568    532.488    493.568    499.239    493.568
 48.470    517.000    532.932    -15.932    493.530    526.248    493.530    500.206    493.530
 48.570    525.000    531.591     -6.591    493.493    523.493    493.493    501.585    493.493
 48.670    540.000    533.403      6.597    493.458    523.228    493.458    503.628    493.458
 48.770    490.140    537.924    -47.783    493.424    524.633    493.424    506.711    493.424
 48.870    581.232    545.192     36.040    493.392    527.251    493.392    511.330    493.392
 48.970    565.000    555.645      9.355    493.362    530.969    493.362    518.034    493.362
 49.070    560.476    569.950     -9.475    493.333    535.998    493.333    527.281    493.333
 49.170    570.000    588.996    -18.996    493.306    543.094    493.306    539.202    493.306
 49.270    639.000    614.190     24.810    493.280    554.167    493.280    553.294    493.280
 49.370    656.000    648.655      7.345    493.256    573.857    493.256    568.039    493.256
 49.470    667.040    699.538    -32.498    493.233    612.156    493.233    580.589    493.233
 49.570    724.416    781.331    -56.914    493.212    687.243    493.212    587.253    493.212
 49.670    906.285    917.973    -11.688    493.192    825.552    493.192    585.534    493.192
 49.770   1168.197   1137.518     30.679    493.173   1054.421    493.173    576.148    493.173
 49.870   1485.000   1454.213     30.787    493.157   1384.853    493.157    562.353    493.157
 49.970   1863.000   1843.815     19.185    493.141   1789.161    493.141    547.615    493.141
 50.070   2219.000   2227.230     -8.230    493.127   2185.966    493.127    534.243    493.127
 50.170   2505.000   2481.065     23.935    493.115   2450.801    493.115    523.321    493.115
 50.270   2466.758   2496.394    -29.636    493.104   2474.488    493.104    515.071    493.104
 50.370   2309.000   2262.197     46.803    493.095   2246.237    493.095    509.207    493.095
 50.470   1915.021   1876.679     38.342    493.087   1864.736    493.087    505.215    493.087
 50.570   1456.683   1468.455    -11.772    493.080   1459.149    493.080    502.557    493.080
 50.670   1145.418   1128.309     17.109    493.075   1120.737    493.075    500.780    493.075
 50.770    806.000    892.002    -86.002    493.072    885.609    493.072    499.559    493.072
 50.870    726.000    752.107    -26.107    493.069    746.561    493.069    498.681    493.069
 50.970    653.000    679.873    -26.873    493.069    674.972    493.069    498.019    493.069
 51.070    662.000    644.297     17.703    493.069    639.908    493.069    497.500    493.069
 51.170    647.000    622.793     24.207    493.071    618.819    493.071    497.082    493.071
 51.270    640.000    604.122     35.878    493.075    600.489    493.075    496.739    493.075
 51.370    567.554    585.773    -18.219    493.080    582.422    493.080    496.455    493.080
 51.470    546.000    568.986    -22.986    493.086    565.871    493.086    496.218    493.086
 51.570    585.000    555.293     29.707    493.094    552.379    493.094    496.020    493.094
 51.670    562.000    545.320     16.680    493.103    542.576    493.103    495.854    493.103
 51.770    554.620    538.774     15.846    493.113    536.178    493.113    495.715    493.113
 51.870    554.000    534.884     19.116    493.125    532.414    493.125    495.599    493.125
 51.970    548.000    532.838     15.162    493.138    530.475    493.138    495.504    493.138
 52.070    563.138    532.044     31.095    493.152    529.773    493.152    495.425    493.152
 52.170    544.000    532.193     11.807    493.168    530.001    493.168    495.361    493.168
 52.270    564.000    533.232     30.768    493.185    531.108    493.185    495.311    493.185
 52.370    591.000    535.377     55.623    493.204    533.309    493.204    495.273    493.204
 52.470    592.000    539.258     52.742    493.223    537.237    493.223    495.246    493.223
 52.570    571.262    546.289     24.974    493.245    544.306    493.245    495.228    493.245
 52.670    589.000    559.231     29.769    493.267    557.279    493.267    495.219    493.267
 52.770    552.768    582.758    -29.990    493.291    580.829    493.291    495.218    493.291
 52.870    674.000    623.456     50.544    493.316    621.544    493.316    495.225    493.316
 52.970    713.619    688.503     25.116    493.342    686.601    493.342    495.239    493.342
 53.070    723.172    782.502    -59.330    493.369    780.607    493.369    495.260    493.369
 53.170    912.000    903.001      8.999    493.398    901.108    493.398    495.288    493.398
 53.270   1042.000   1036.186      5.814    493.428   1034.294    493.428    495.321    493.428
 53.370   1088.286   1154.929    -66.643    493.460   1153.037    493.460    495.361    493.460
 53.470   1199.000   1223.697    -24.697    493.492   1221.805    493.492    495.407    493.492
 53.570   1168.024   1216.406    -48.382    493.526   1214.509    493.526    495.458    493.526
 53.670   1162.500   1136.345     26.155    493.561   1134.433    493.561    495.515    493.561
 53.770    992.142   1013.100    -20.958    493.597   1011.161    493.597    495.579    493.597
 53.870    901.985    881.334     20.651    493.635    879.357    493.635    495.648    493.635
 53.970    716.000    765.721    -49.721    493.674    763.700    493.674    495.722    493.674
 54.070    684.000    677.732      6.268    493.714    675.661    493.714    495.803    493.714
 54.170    611.000    618.184     -7.184    493.755    616.060    493.755    495.890    493.755
 54.270    585.000    581.713      3.287    493.797    579.534    493.797    495.984    493.797
 54.370    596.000    561.100     34.900    493.840    558.861    493.840    496.084    493.840
 54.470    556.151    550.081      6.069    493.885    547.778    493.885    496.191    493.885
 54.570    571.124    544.364     26.760    493.931    541.991    493.931    496.305    493.931
 54.670    538.000    541.473     -3.473    493.978    539.025    493.978    496.427    493.978
 54.770    542.000    540.162      1.838    494.026    537.632    494.026    496.557    494.026
 54.870    543.000    539.868      3.132    494.075    537.248    494.075    496.696    494.075
 54.970    594.000    540.355     53.645    494.125    537.637    494.125    496.844    494.125
 55.070    565.000    541.542     23.458    494.176    538.718    494.176    497.002    494.176
 55.170    560.669    543.425     17.243    494.229    540.484    494.229    497.171    494.229
 55.270    584.605    546.049     38.556    494.283    542.981    494.283    497.351    494.283
 55.370    533.000    549.514    -16.514    494.337    546.307    494.337    497.545    494.337
 55.470    573.000    553.997     19.003    494.393    550.638    494.393    497.752    494.393
 55.570    592.000    559.831     32.169    494.450    556.307    494.450    497.975    494.450
 55.670    569.818    567.698      2.119    494.508    563.992    494.508    498.214    494.508
 55.770    600.000    579.061     20.939    494.567    575.154    494.567    498.473    494.567
 55.870    621.169    596.991     24.178    494.627    592.863    494.627    498.752    494.627
 55.970    621.000    627.481     -6.481    494.688    623.107    494.688    499.056    494.688
 56.070    669.000    680.971    -11.971    494.750    676.324    494.750    499.385    494.750
 56.170    737.000    773.133    -36.133    494.813    768.179    494.813    499.745    494.813
 56.270    917.927    923.258     -5.330    494.877    917.960    494.877    500.138    494.877
 56.370   1064.000   1148.616    -84.616    494.942   1142.935    494.942    500.571    494.942
 56.470   1377.000   1454.735    -77.735    495.008   1448.633    495.008    501.048    495.008
 56.570   1823.000   1824.171     -1.171    495.075   1817.610    495.075    501.576    495.075
 56.670   2138.687   2208.082    -69.395    495.143   2201.027    495.143    502.165    495.143
 56.770   2474.000   2525.823    -51.823    495.212   2518.236    495.212    502.823    495.212
 56.870   2703.888   2684.148     19.740    495.282   2675.973    495.282    503.564    495.282
 56.970   2718.000   2626.717     91.283    495.353   2617.860    495.353    504.402    495.353
 57.070   2415.000   2376.588     38.412    495.424   2366.902    495.424    505.358    495.424
 57.170   1987.000   2016.544    -29.544    495.497   2005.841    495.497    506.457    495.497
 57.270   1667.000   1636.432     30.568    495.571   1624.498    495.571    507.734    495.571
 57.370   1244.949   1300.684    -55.735    495.645   1287.269    495.645    509.243    495.645
 57.470   1128.000   1041.035     86.965    495.721   1025.821    495.721    511.065    495.721
 57.570    846.237    861.841    -15.604    495.797    844.385    495.797    513.339    495.797
 57.670    745.000    750.672     -5.672    495.874    730.303    495.874    516.294    495.874
 57.770    702.000    689.357     12.643    495.952    665.029    495.952    520.309    495.952
 57.870    678.995    661.925     17.070    496.031    631.992    496.031    525.977    496.031
 57.970    641.296    658.235    -16.939    496.111    620.180    496.111    534.168    496.111
 58.070    623.537    674.236    -50.699    496.191    624.383    496.191    546.036    496.191
 58.170    701.000    710.367     -9.367    496.273    643.672    496.273    562.949    496.273
 58.270    750.217    769.212    -18.995    496.355    679.269    496.355    586.268    496.355
 58.370    878.839    852.992     25.846    496.438    732.400    496.438    616.990    496.438
 58.470    922.000    961.199    -39.199    496.522    802.406    496.522    655.265    496.522
 58.570   1019.349   1088.586    -69.237    496.606    885.296    496.606    699.843    496.606
 58.670   1195.000   1224.135    -29.135    496.692    973.335    496.692    747.443    496.692
 58.770   1320.000   1352.243    -32.243    496.778   1056.862    496.778    792.120    496.778
 58.870   1431.040   1456.084    -25.044    496.865   1127.628    496.865    825.299    496.865
 58.970   1543.186   1520.388     22.798    496.952   1179.183    496.952    838.156    496.952
 59.070   1609.000   1534.292     74.708    497.041   1204.725    497.041    826.627    497.041
 59.170   1554.307   1496.590     57.717    497.130   1199.303    497.130    794.452    497.130
 59.270   1431.915   1419.284     12.631    497.220   1166.206    497.220    750.336    497.220
 59.370   1322.834   1323.457     -0.623    497.310   1117.868    497.310    702.925    497.310
 59.470   1285.000   1230.648     54.352    497.401   1069.750    497.401    658.299    497.401
 59.570   1180.707   1158.537     22.170    497.493   1036.134    497.493    619.860    497.493
 59.670   1188.499   1121.841     66.657    497.586   1030.401    497.586    588.945    497.586
 59.770   1076.849   1131.831    -54.982    497.679   1063.914    497.679    565.462    497.679
 59.870   1283.000   1191.727     91.273    497.773   1140.862    497.773    548.445    497.773
 59.970   1321.000   1291.986     29.014    497.868   1253.062    497.868    536.544    497.868
 60.070   1422.918   1408.719     14.200    497.963   1378.006    497.963    528.388    497.963
 60.170   1575.000   1506.022     68.978    498.059   1480.973    498.059    522.807    498.059
 60.270   1482.185   1545.296    -63.111    498.155   1524.251    498.155    518.921    498.155
 60.370   1515.000   1503.854     11.146    498.252   1485.756    498.252    516.124    498.252
 60.470   1374.388   1389.129    -14.741    498.350   1373.288    498.350    514.032    498.350
 60.570   1256.000   1231.169     24.831    498.448   1217.106    498.448    512.412    498.448
 60.670   1000.217   1064.065    -63.848    498.547   1051.430    498.547    511.128    498.547
 60.770    848.000    913.855    -65.855    498.646    902.372    498.646    510.104    498.646
 60.870    794.000    794.888     -0.888    498.746    784.325    498.746    509.298    498.746
 60.970    723.000    710.971     12.029    498.846    701.122    498.846    508.688    498.846
 61.070    670.000    659.011     10.989    498.947    649.687    498.947    508.263    498.947
 61.170    586.158    633.455    -47.297    499.049    624.474    499.049    508.017    499.049
 61.270    663.782    629.954     33.828    499.151    621.141    499.151    507.942    499.151
 61.370    655.000    647.375      7.625    499.253    638.572    499.253    508.023    499.253
 61.470    633.000    687.970    -54.970    499.356    679.042    499.356    508.233    499.356
 61.570    708.027    755.825    -47.798    499.460    746.688    499.460    508.522    499.460
 61.670    878.830    853.968     24.862    499.564    844.611    499.564    508.815    499.564
 61.770    987.000    980.763      6.237    499.668    971.283    499.668    509.011    499.668
 61.870   1191.863   1126.675     65.188    499.773   1117.274    499.773    509.006    499.773
 61.970   1180.000   1272.494    -92.494    499.878   1263.440    499.878    508.746    499.878
 62.070   1312.000   1390.314    -78.314    499.984   1381.859    499.984    508.253    499.984
 62.170   1434.289   1450.044    -15.755    500.090   1442.360    500.090    507.613    500.090
 62.270   1350.000   1433.264    -83.264    500.196   1426.420    500.196    506.922    500.196
 62.370   1286.000   1345.034    -59.034    500.303   1339.008    500.303    506.257    500.303
 62.470   1160.831   1210.172    -49.341    500.411   1204.885    500.411    505.665    500.411
 62.570   1074.811   1058.972     15.839    500.518   1054.314    500.518    505.170    500.518
 62.670    913.262    916.187     -2.925    500.626    912.044    500.626    504.777    500.626
 62.770    802.000    796.974      5.026    500.735    793.241    500.735    504.480    500.735
 62.870    678.000    707.060    -29.060    500.843    703.649    500.843    504.266    500.843
 62.970    640.000    645.039     -5.039    500.952    641.880    500.952    504.118    500.952
 63.070    611.000    605.535      5.465    501.062    602.578    501.062    504.021    501.062
 63.170    607.337    582.118     25.219    501.171    579.326    501.171    503.962    501.171
 63.270    581.767    569.230     12.537    501.281    566.577    501.281    503.931    501.281
 63.370    571.000    563.018      7.982    501.392    560.485    501.392    503.919    501.392
 63.470    556.512    561.419     -4.907    501.502    558.991    501.502    503.923    501.502
 63.570    624.000    563.929     60.071    501.613    561.594    501.613    503.938    501.613
 63.670    565.000    571.324     -6.324    501.724    569.070    501.724    503.963    501.724
 63.770    618.000    585.395     32.605    501.835    583.213    501.835    503.996    501.835
 63.870    606.000    608.588     -2.588    501.947    606.468    501.947    504.036    501.947
 63.970    658.000    643.390     14.610    502.059    641.323    502.059    504.082    502.059
 64.070    652.458    691.414    -38.956    502.171    689.389    502.171    504.133    502.171
 64.170    788.000    752.271     35.729    502.283    750.282    502.283    504.189    502.283
 64.270    849.000    822.514     26.486    502.395    820.555    502.395    504.250    502.395
 64.370    880.000    894.943    -14.943    502.508    893.014    502.508    504.315    502.508
 64.470   1017.000    958.828     58.172    502.620    956.933    502.620    504.383    502.620
 64.570    956.754   1002.168    -45.414    502.733   1000.315    502.733    504.456    502.733
 64.670   1024.000   1016.445      7.555    502.846   1014.644    502.846    504.531    502.846
 64.770    962.000   1000.495    -38.495    502.959    998.753    502.959    504.610    502.959
 64.870   1004.081    959.967     44.114    503.073    958.285    503.073    504.691    503.073
 64.970    913.000    904.248      8.752    503.186    902.624    503.186    504.775    503.186
 65.070    817.000    843.353    -26.353    503.299    841.781    503.299    504.861    503.299
 65.170    807.000    785.199     21.801    503.413    783.672    503.413    504.949    503.413
 65.270    689.755    734.148    -44.393    503.527    732.656    503.527    505.039    503.527
 65.370    726.094    691.358     34.736    503.640    689.892    503.640    505.133    503.640
 65.470    635.925    656.293    -20.368    503.754    654.846    503.754    505.228    503.754
 65.570    613.000    628.060    -15.060    503.868    626.626    503.868    505.325    503.868
 65.670    598.000    605.840     -7.840    503.982    604.416    503.982    505.424    503.982
 65.770    573.000    588.860    -15.860    504.096    587.443    504.096    505.525    504.096
 65.870    563.000    576.373    -13.373    504.210    574.962    504.210    505.628    504.210
 65.970    562.000    567.670     -5.670    504.324    566.265    504.324    505.732    504.324
 66.070    518.000    562.087    -44.087    504.438    560.688    504.438    505.838    504.438
 66.170    535.000    559.020    -24.020    504.551    557.626    504.551    505.945    504.551
 66.270    512.000    557.952    -45.952    504.665    556.563    504.665    506.054    504.665
 66.370    538.470    558.499    -20.029    504.779    557.113    504.779    506.165    504.779
 66.470    578.000    560.451     17.549    504.893    559.066    504.893    506.277    504.893
 66.570    551.000    563.832    -12.832    505.007    562.449    505.007    506.391    505.007
 66.670    572.000    569.007      2.993    505.120    567.622    505.120    506.506    505.120
 66.770    609.220    576.868     32.352    505.234    575.480    505.234    506.623    505.234
 66.870    612.000    589.178     22.822    505.348    587.784    505.348    506.741    505.348
 66.970    642.546    609.033     33.513    505.461    607.631    505.461    506.861    505.461
 67.070    616.702    641.388    -24.686    505.574    639.975    505.574    506.983    505.574
 67.170    662.000    693.379    -31.379    505.687    691.952    505.687    507.106    505.687
 67.270    741.000    774.076    -33.076    505.800    772.632    505.800    507.230    505.800
 67.370    907.538    893.225     14.313    505.913    891.763    505.913    507.357    505.913
 67.470   1065.000   1058.733      6.267    506.026   1057.254    506.026    507.485    506.026
 67.570   1238.000   1273.106    -35.106    506.139   1271.615    506.139    507.616    506.139
 67.670   1571.000   1529.630     41.370    506.251   1528.135    506.251    507.748    506.251
 67.770   1820.935   1809.386     11.550    506.363   1807.900    506.363    507.882    506.363
 67.870   2117.533   2080.166     37.367    506.475   2078.704    506.475    508.019    506.475
 67.970   2203.177   2298.822    -95.645    506.587   2297.397    506.587    508.157    506.587
 68.070   2461.000   2420.289     40.711    506.699   2418.907    506.699    508.299    506.699
 68.170   2439.000   2414.862     24.138    506.810   2413.512    506.810    508.442    506.810
 68.270   2298.000   2284.059     13.941    506.921   2282.713    506.921    508.589    506.921
 68.370   2133.000   2059.662     73.338    507.032   2058.283    507.032    508.739    507.032
 68.470   1705.088   1787.071    -81.983    507.143   1785.627    507.143    508.892    507.143
 68.570   1495.000   1508.692    -13.692    507.253   1507.160    507.253    509.048    507.253
 68.670   1320.497   1255.627     64.870    507.363   1253.993    507.363    509.209    507.363
 68.770   1056.441   1045.692     10.749    507.473   1043.952    507.473    509.373    507.473
 68.870    911.688    884.693     26.995    507.582    882.848    507.582    509.542    507.582
 68.970    803.812    769.525     34.287    507.692    767.578    507.692    509.716    507.692
 69.070    662.000    692.007    -30.007    507.801    689.963    507.801    509.896    507.801
 69.170    619.185    642.379    -23.194    507.909    640.240    507.909    510.082    507.909
 69.270    638.281    611.702     26.579    508.017    609.467    508.017    510.274    508.017
 69.370    596.516    593.018      3.498    508.125    590.683    508.125    510.474    508.125
 69.470    532.237    581.529    -49.292    508.232    579.089    508.232    510.682    508.232
 69.570    590.000    574.238     15.762    508.340    571.685    508.340    510.900    508.340
 69.670    584.000    569.420     14.580    508.446    566.744    508.446    511.128    508.446
 69.770    565.689    566.143     -0.454    508.553    563.333    508.553    511.367    508.553
 69.870    587.000    563.928     23.072    508.658    560.969    508.658    511.620    508.658
 69.970    589.278    562.536     26.743    508.764    559.414    508.764    511.888    508.764
 70.070    588.000    561.854     26.146    508.869    558.552    508.869    512.173    508.869
 70.170    558.290    561.847     -3.557    508.974    558.344    508.974    512.477    508.974
 70.270    520.000    562.542    -42.542    509.078    558.816    509.078    512.803    509.078
 70.370    548.647    564.049    -15.401    509.182    560.073    509.182    513.155    509.182
 70.470    555.000    566.611    -11.611    509.285    562.355    509.285    513.537    509.285
 70.570    557.000    570.711    -13.711    509.388    566.140    509.388    513.953    509.388
 70.670    571.000    577.231     -6.231    509.490    572.303    509.490    514.411    509.490
 70.770    561.000    587.681    -26.681    509.592    582.344    509.592    514.917    509.592
 70.870    623.000    604.477     18.523    509.693    598.669    509.693    515.484    509.693
 70.970    600.023    631.159    -31.136    509.794    624.799    509.794    516.127    509.794
 71.070    650.000    672.436    -22.436    509.894    665.417    509.894    516.871    509.894
 71.170    707.000    733.856    -26.856    509.994    726.031    509.994    517.758    509.994
 71.270    845.000    820.928     24.072    510.093    812.083    510.093    518.853    510.093
 71.370    889.000    937.657    -48.657    510.192    927.472    510.192    520.263    510.192
 71.470   1021.367   1084.682    -63.315    510.290   1072.672    510.290    522.153    510.290
 71.570   1283.000   1257.420     25.580    510.387   1242.854    510.387    524.776    510.387
 71.670   1383.000   1444.719    -61.719    510.484   1426.514    510.484    528.488    510.484
 71.770   1706.141   1628.464     77.677    510.581   1605.073    510.581    533.758    510.581
 71.870   1784.323   1784.743     -0.420    510.676   1754.050    510.676    541.160    510.676
 71.970   1927.000   1887.935     39.065    510.771   1847.205    510.771    551.313    510.771
 72.070   1895.000   1918.829    -23.829    510.866   1864.752    510.866    564.791    510.866
 72.170   1795.523   1873.639    -78.116    510.960   1802.509    510.960    581.979    510.960
 72.270   1766.265   1766.206      0.059    511.053   1674.283    511.053    602.904    511.053
 72.370   1569.542   1620.808    -51.266    511.145   1504.844    511.145    627.068    511.145
 72.470   1532.966   1462.367     70.599    511.237   1320.296    511.237    653.289    511.237
 72.570   1281.000   1310.327    -29.327    511.329   1142.062    511.329    679.587    511.329
 72.670   1230.000   1176.437     53.563    511.419    984.696    511.419    703.160    511.419
 72.770   1020.106   1064.866    -44.760    511.509    855.754    511.509    720.624    511.509
 72.870    945.000    974.027    -29.027    511.598    756.816    511.598    728.811    511.598
 72.970    858.000    899.552    -41.552    511.687    685.212    511.687    726.028    511.687
 73.070    835.024    837.096     -2.072    511.774    635.961    511.774    712.910    511.774
 73.170    738.000    783.667    -45.667    511.861    603.456    511.861    692.073    511.861
 73.270    643.000    737.579    -94.579    511.948    582.617    511.948    666.910    511.948
 73.370    696.000    697.968     -1.968    512.033    569.450    512.033    640.552    512.033
 73.470    618.000    664.411    -46.411    512.118    561.149    512.118    615.382    512.118
 73.570    556.000    636.681    -80.681    512.202    555.927    512.202    592.959    512.202
 73.670    609.000    614.555     -5.555    512.285    552.745    512.285    574.100    512.285
 73.770    610.000    597.694     12.306    512.368    551.055    512.368    559.014    512.368
 73.870    593.386    585.585      7.801    512.449    550.575    512.449    547.470    512.449
 73.970    577.000    577.564     -0.564    512.530    551.140    512.530    538.968    512.530
 74.070    599.180    572.861     26.319    512.610    552.593    512.610    532.898    512.610
 74.170    584.902    570.652     14.250    512.690    554.711    512.690    528.655    512.690
 74.270    590.406    570.094     20.312    512.768    557.176    512.768    525.717    512.768
 74.370    625.000    570.351     54.649    512.846    559.562    512.846    523.672    512.846
 74.470    608.000    570.625     37.375    512.922    561.370    512.922    522.220    512.922
 74.570    546.014    570.232    -24.218    512.998    562.119    512.998    521.156    512.998
 74.670    515.290    568.735    -53.445    513.073    561.508    513.073    520.346    513.073
 74.770    519.399    566.064    -46.665    513.147    559.548    513.147    519.707    513.147
 74.870    523.357    562.493    -39.136    513.221    556.566    513.221    519.186    513.221
 74.970    628.000    558.499     69.501    513.293    553.072    513.293    518.753    513.293
 75.070    601.000    554.620     46.380    513.365    549.623    513.365    518.387    513.365
 75.170    537.629    551.369    -13.740    513.435    546.749    513.435    518.075    513.435
 75.270    516.342    549.231    -32.889    513.505    544.943    513.505    517.807    513.505
 75.370    566.826    548.681     18.145    513.574    544.686    513.574    517.576    513.574
 75.470    543.148    550.207     -7.059    513.642    546.474    513.642    517.376    513.642
 75.570    590.092    554.330     35.763    513.709    550.831    513.709    517.203    513.709
 75.670    546.531    561.573    -15.042    513.775    558.284    513.775    517.054    513.775
 75.770    584.000    572.387     11.613    513.840    569.285    513.840    516.924    513.840
 75.870    622.000    587.006     34.994    513.904    584.072    513.904    516.813    513.904
 75.970    637.021    605.284     31.736    513.967    602.502    513.967    516.716    513.967
 76.070    636.000    626.527      9.473    514.029    623.882    514.029    516.633    514.029
 76.170    656.158    649.376      6.781    514.090    646.855    514.090    516.561    514.090
 76.270    621.000    671.778    -50.778    514.150    669.370    514.150    516.500    514.150
 76.370    650.000    691.081    -41.081    514.209    688.779    514.209    516.448    514.209
 76.470    729.000    704.366     24.634    514.268    702.165    514.268    516.403    514.268
 76.570    656.224    709.179    -52.954    514.325    707.074    514.325    516.366    514.325
 76.670    712.000    704.491      7.509    514.381    702.479    514.381    516.335    514.381
 76.770    715.832    691.207     24.625    514.436    689.285    514.436    516.310    514.436
 76.870    706.269    671.710     34.559    514.490    669.871    514.490    516.290    514.490
 76.970    618.164    648.895    -30.731    514.543    647.135    514.543    516.273    514.543
 77.070    658.598    625.425     33.173    514.595    623.737    514.595    516.261    514.595
 77.170    546.000    603.366    -57.366    514.646    601.744    514.646    516.252    514.646
 77.270    630.998    584.078     46.921    514.696    582.517    514.696    516.247    514.696
 77.370    589.080    568.233     20.847    514.744    566.727    514.744    516.243    514.744
 77.470    503.000    555.925    -52.925    514.792    554.470    514.792    516.243    514.792
 77.570    509.000    546.834    -37.834    514.839    545.426    514.839    516.244    514.839
 77.670    523.000    540.412    -17.412    514.884    539.047    514.884    516.247    514.884
 77.770    520.000    536.041    -16.041    514.929    534.716    514.929    516.252    514.929
 77.870    559.000    533.146     25.854    514.972    531.859    514.972    516.258    514.972
 77.970    503.000    531.258    -28.258    515.014    530.006    515.014    516.266    515.014
 78.070    484.000    530.027    -46.027    515.055    528.807    515.055    516.274    515.055
 78.170    549.000    529.214     19.786    515.095    528.025    515.095    516.284    515.095
 78.270    511.022    528.667    -17.645    515.134    527.506    515.134    516.294    515.134
 78.370    517.000    528.294    -11.294    515.171    527.159    515.171    516.305    515.171
 78.470    534.000    528.050      5.950    515.208    526.940    515.208    516.317    515.208
 78.570    570.000    527.912     42.088    515.243    526.825    515.243    516.329    515.243
 78.670    548.000    527.876     20.124    515.277    526.811    515.277    516.342    515.277
 78.770    522.484    527.951     -5.466    515.310    526.905    515.310    516.355    515.310
 78.870    521.000    528.156     -7.156    515.342    527.127    515.342    516.370    515.342
 78.970    564.016    528.517     35.499    515.373    527.504    515.373    516.385    515.373
 79.070    500.000    529.067    -29.067    515.402    528.066    515.402    516.402    515.402
 79.170    559.000    529.836     29.164    515.431    528.844    515.431    516.420    515.431
 79.270    562.000    530.838     31.162    515.458    529.852    515.458    516.442    515.458
 79.370    531.000    532.116     -1.116    515.484    531.131    515.484    516.466    515.484
 79.470    540.610    533.732      6.878    515.508    532.741    515.508    516.495    515.508
 79.570    541.000    535.689      5.311    515.532    534.687    515.532    516.529    515.532
 79.670    526.831    538.031    -11.200    515.554    537.010    515.554    516.570    515.554
 79.770    502.000    540.836    -38.836    515.575    539.787    515.575    516.618    515.575
 79.870    541.000    544.236     -3.236    515.594    543.151    515.594    516.674    515.594
 79.970    528.000    548.449    -20.449    515.613    547.319    515.613    516.737    515.613
 80.070    544.000    553.800     -9.800    515.630    552.619    515.630    516.807    515.630
 80.170    570.076    560.730      9.347    515.646    559.491    515.646    516.881    515.646
 80.270    581.403    569.737     11.666    515.661    568.440    515.661    516.957    515.661
 80.370    581.000    581.287     -0.287    515.674    579.934    515.674    517.029    515.674
 80.470    590.000    595.687     -5.687    515.687    594.286    515.687    517.093    515.687
 80.570    584.000    612.972    -28.972    515.697    611.538    515.697    517.141    515.697
 80.670    634.000    632.814      1.186    515.707    631.368    515.707    517.167    515.707
 80.770    641.000    654.474    -13.474    515.716    653.041    515.716    517.168    515.716
 80.870    715.567    676.819     38.748    515.723    675.424    515.723    517.143    515.723
 80.970    690.000    698.444     -8.444    515.728    697.109    515.728    517.096    515.728
 81.070    709.261    717.886     -8.625    515.733    716.625    515.733    517.033    515.733
 81.170    697.000    733.822    -36.822    515.736    732.643    515.736    516.961    515.736
 81.270    754.000    745.189      8.811    515.738    744.094    515.738    516.885    515.738
 81.370    702.429    751.265    -48.836    515.738    750.250    515.738    516.811    515.738
 81.470    756.000    751.756      4.244    515.738    750.815    515.738    516.741    515.738
 81.570    745.000    746.816     -1.816    515.736    745.941    515.736    516.676    515.736
 81.670    780.000    736.983     43.017    515.732    736.164    515.732    516.619    515.732
 81.770    719.000    723.141     -4.141    515.727    722.367    515.727    516.569    515.727
 81.870    666.484    706.482    -39.998    515.721    705.744    515.721    516.526    515.721
 81.970    701.000    688.346     12.654    515.714    687.636    515.714    516.489    515.714
 82.070    641.647    669.940    -28.293    515.705    669.250    515.705    516.457    515.705
 82.170    651.000    652.117     -1.117    515.695    651.442    515.695    516.428    515.695
 82.270    646.000    635.333     10.667    515.684    634.669    515.684    516.402    515.684
 82.370    594.986    619.763    -24.777    515.671    619.106    515.671    516.377    515.671
 82.470    578.177    605.482    -27.304    515.657    604.829    515.657    516.354    515.657
 82.570    588.000    592.599     -4.599    515.641    591.948    515.641    516.331    515.641
 82.670    571.000    581.282    -10.282    515.624    580.630    515.624    516.308    515.624
 82.770    572.000    571.709      0.291    515.606    571.056    515.606    516.285    515.606
 82.870    544.000    564.036    -20.036    515.586    563.380    515.586    516.261    515.586
 82.970    548.000    558.375    -10.375    515.565    557.716    515.565    516.236    515.565
 83.070    509.000    554.786    -45.786    515.543    554.122    515.543    516.210    515.543
 83.170    540.000    553.261    -13.261    515.519    552.593    515.519    516.184    515.519
 83.270    533.000    553.702    -20.702    515.494    553.029    515.494    516.156    515.494
 83.370    541.483    555.906    -14.423    515.467    555.227    515.467    516.128    515.467
 83.470    539.015    559.543    -20.528    515.439    558.859    515.439    516.098    515.439
 83.570    518.000    564.165    -46.165    515.410    563.476    515.410    516.067    515.410
 83.670    558.000    569.208    -11.208    515.379    568.514    515.379    516.035    515.379
 83.770    571.000    574.020     -3.020    515.347    573.321    515.347    516.003    515.347
 83.870    612.000    577.908     34.092    515.314    577.207    515.314    515.969    515.314
 83.970    564.000    580.235    -16.235    515.279    579.533    515.279    515.933    515.279
 84.070    583.000    580.548      2.452    515.242    579.847    515.242    515.897    515.242
 84.170    563.000    578.712    -15.712    515.204    578.013    515.204    515.860    515.204
 84.270    607.873    574.944     32.929    515.165    574.249    515.165    515.821    515.165
 84.370    569.000    569.722     -0.722    515.125    569.032    515.125    515.781    515.125
 84.470    559.000    563.634     -4.634    515.083    562.948    515.083    515.740    515.083
 84.570    544.278    557.250    -12.972    515.039    556.567    515.039    515.698    515.039
 84.670    521.886    551.051    -29.165    514.994    550.371    514.994    515.655    514.994
 84.770    543.000    545.396     -2.396    514.948    544.718    514.948    515.610    514.948
 84.870    515.593    540.510    -24.917    514.900    539.834    514.900    515.565    514.900
 84.970    552.900    536.496     16.404    514.851    535.820    514.851    515.518    514.851
 85.070    532.000    533.356     -1.356    514.801    532.679    514.801    515.470    514.801
 85.170    527.000    531.018     -4.018    514.749    530.340    514.749    515.421    514.749
 85.270    555.000    529.372     25.628    514.695    528.692    514.695    515.370    514.695
 85.370    509.024    528.299    -19.274    514.640    527.616    514.640    515.319    514.640
 85.470    566.241    527.688     38.553    514.584    527.002    514.584    515.266    514.584
 85.570    518.000    527.459     -9.459    514.526    526.769    514.526    515.212    514.526
 85.670    483.590    527.566    -43.976    514.467    526.871    514.467    515.157    514.467
 85.770    526.956    528.006     -1.050    514.406    527.306    514.406    515.100    514.406
 85.870    522.000    528.818     -6.818    514.344    528.112    514.344    515.043    514.344
 85.970    535.000    530.086      4.914    514.281    529.374    514.281    514.984    514.281
 86.070    543.000    531.938     11.062    514.216    531.218    514.216    514.924    514.216
 86.170    550.000    534.538     15.462    514.149    533.808    514.149    514.863    514.149
 86.270    572.000    538.075     33.925    514.082    537.335    514.082    514.801    514.082
 86.370    564.897    542.746     22.152    514.012    541.994    514.012    514.738    514.012
 86.470    551.634    548.723      2.911    513.942    547.957    513.942    514.674    513.942
 86.570    540.000    556.119    -16.119    513.870    555.338    513.870    514.608    513.870
 86.670    567.000    564.944      2.056    513.796    564.145    513.796    514.542    513.796
 86.770    576.000    575.052      0.948    513.721    574.234    513.721    514.474    513.721
 86.870    589.712    586.147      3.565    513.645    585.309    513.645    514.406    513.645
 86.970    557.957    597.728    -39.771    513.567    596.870    513.567    514.336    513.567
 87.070    631.000    609.086     21.914    513.487    608.209    513.487    514.265    513.487
 87.170    669.314    619.361     49.953    513.406    618.465    513.406    514.193    513.406
 87.270    621.000    627.608     -6.608    513.324    626.697    513.324    514.121    513.324
 87.370    629.000    632.947     -3.947    513.241    632.024    513.241    514.047    513.241
 87.470    649.350    634.768     14.582    513.155    633.838    513.155    513.972    513.155
 87.570    669.993    632.911     37.082    513.069    631.977    513.069    513.897    513.069
 87.670    589.039    627.714    -38.675    512.981    626.779    512.981    513.820    512.981
 87.770    651.000    619.905     31.095    512.892    618.970    512.892    513.743    512.892
 87.870    616.779    610.420      6.360    512.801    609.486    512.801    513.665    512.801
 87.970    638.000    600.247     37.753    512.708    599.313    512.708    513.586    512.708
 88.070    567.055    590.319    -23.264    512.615    589.384    512.615    513.506    512.615
 88.170    597.000    581.441     15.559    512.520    580.504    512.520    513.426    512.520
 88.270    576.000    574.249      1.751    512.423    573.308    512.423    513.344    512.423
 88.370    549.468    569.180    -19.712    512.325    568.233    512.325    513.261    512.325
 88.470    536.082    566.469    -30.387    512.226    565.513    512.226    513.179    512.226
 88.570    576.000    566.149      9.851    512.125    565.182    512.125    513.097    512.125
 88.670    584.000    568.067     15.933    512.022    567.089    512.022    513.014    512.022
 88.770    609.000    571.903     37.097    511.919    570.912    511.919    512.930    511.919
 88.870    531.466    577.186    -45.721    511.814    576.182    511.814    512.847    511.814
 88.970    567.899    583.324    -15.424    511.707    582.304    511.707    512.763    511.707
 89.070    569.244    589.624    -20.380    511.599    588.588    511.599    512.679    511.599
 89.170    587.000    595.340     -8.340    511.490    594.285    511.490    512.595    511.490
 89.270    587.000    599.728    -12.728    511.379    598.652    511.379    512.512    511.379
 89.370    639.729    602.149     37.580    511.267    601.048    511.267    512.428    511.267
 89.470    611.000    602.191      8.809    511.153    601.062    511.153    512.346    511.153
 89.570    552.163    599.770    -47.607    511.038    598.609    511.038    512.264    511.038
 89.670    546.000    595.137    -49.137    510.922    593.938    510.922    512.182    510.922
 89.770    621.996    588.789     33.207    510.804    587.548    510.804    512.102    510.804
 89.870    565.000    581.335    -16.335    510.685    580.048    510.685    512.023    510.685
 89.970    555.000    573.383    -18.383    510.564    572.047    510.564    511.946    510.564
 90.070    524.677    565.471    -40.794    510.443    564.081    510.443    511.871    510.443
 90.170    563.000    558.024      4.976    510.319    556.578    510.319    511.798    510.319
 90.270    571.957    551.348     20.609    510.195    549.841    510.195    511.727    510.195
 90.370    539.773    545.624     -5.852    510.068    544.052    510.068    511.661    510.068
 90.470    555.000    540.922     14.078    509.941    539.280    509.941    511.598    509.941
 90.570    540.000    537.224      2.776    509.812    535.507    509.812    511.540    509.812
 90.670    553.000    534.450     18.550    509.682    532.650    509.682    511.489    509.682
 90.770    547.954    532.483     15.470    509.551    530.593    509.551    511.446    509.551
 90.870    550.619    531.201     19.418    509.418    529.209    509.418    511.413    509.418
 90.970    527.000    530.489     -3.489    509.284    528.380    509.284    511.394    509.284
 91.070    569.807    530.259     39.548    509.148    528.015    509.148    511.393    509.148
 91.170    532.000    530.459      1.541    509.011    528.053    509.011    511.417    509.011
 91.270    488.000    531.076    -43.076    508.873    528.474    508.873    511.474    508.873
 91.370    513.000    532.146    -19.146    508.734    529.302    508.734    511.575    508.734
 91.470    488.430    533.744    -45.314    508.593    530.597    508.593    511.735    508.593
 91.570    584.146    535.961     48.185    508.450    532.433    508.450    511.974    508.450
 91.670    500.000    539.044    -39.044    508.307    535.032    508.307    512.312    508.307
 91.770    532.000    543.198    -11.198    508.162    538.574    508.162    512.776    508.162
 91.870    555.000    548.654      6.346    508.016    543.260    508.016    513.397    508.016
 91.970    576.000    555.672     20.328    507.869    549.317    507.869    514.207    507.869
 92.070    571.687    564.507      7.180    507.720    556.969    507.720    515.237    507.720
 92.170    613.261    575.379     37.881    507.570    566.405    507.570    516.518    507.570
 92.270    584.000    588.441     -4.441    507.419    577.753    507.419    518.075    507.419
 92.370    583.000    603.744    -20.744    507.266    591.051    507.266    519.921    507.266
 92.470    679.000    621.214     57.786    507.113    606.222    507.113    522.058    507.113
 92.570    650.000    640.626      9.374    506.958    623.060    506.958    524.470    506.958
 92.670    689.000    661.577     27.423    506.801    641.201    506.801    527.118    506.801
 92.770    641.792    683.496    -41.703    506.644    660.131    506.644    529.941    506.644
 92.870    686.000    705.648    -19.648    506.485    679.208    506.485    532.852    506.485
 92.970    761.672    727.196     34.476    506.325    697.715    506.325    535.729    506.325
 93.070    785.692    747.303     38.389    506.164    714.963    506.164    538.424    506.164
 93.170    779.000    765.274     13.726    506.002    730.434    506.002    540.761    506.002
 93.270    842.000    780.679     61.321    505.838    743.884    505.838    542.553    505.838
 93.370    814.185    793.398     20.787    505.673    755.366    505.673    543.626    505.673
 93.470    825.000    803.578     21.422    505.507    765.151    505.507    543.858    505.507
 93.570    830.000    811.548     18.452    505.340    773.607    505.340    543.207    505.340
 93.670    827.000    817.753      9.247    505.172    781.126    505.172    541.727    505.172
 93.770    825.000    822.747      2.253    505.002    788.129    505.002    539.551    505.002
 93.870    806.000    827.193    -21.193    504.831    795.102    504.831    536.857    504.831
 93.970    800.000    831.836    -31.836    504.659    802.601    504.659    533.830    504.659
 94.070    882.000    837.411     44.589    504.486    811.189    504.486    530.645    504.486
 94.170    839.000    844.464     -5.464    504.312    821.269    504.312    527.446    504.312
 94.270    832.000    853.174    -21.174    504.137    832.903    504.137    524.349    504.137
 94.370    901.000    863.227     37.773    503.961    845.693    503.961    521.438    503.961
 94.470    894.000    873.787     20.213    503.783    858.744    503.783    518.771    503.783
 94.570    950.000    883.554     66.446    503.604    870.724    503.604    516.385    503.604
 94.670    931.000    890.905     40.095    503.425    879.995    503.425    514.291    503.425
 94.770    921.000    894.128     26.872    503.244    884.849    503.244    512.486    503.244
 94.870    915.997    891.750     24.247    503.062    883.828    503.062    510.956    503.062
 94.970    923.000    882.892     40.108    502.879    876.078    502.879    509.673    502.879
 95.070    809.354    867.513    -58.160    502.695    861.590    502.695    508.608    502.695
 95.170    843.000    846.433     -3.433    502.510    841.212    502.510    507.729    502.510
 95.270    888.000    821.132     66.868    502.324    816.456    502.324    507.003    502.324
 95.370    844.621    793.466     51.155    502.137    789.209    502.137    506.402    502.137
 95.470    799.612    765.422     34.190    501.949    761.482    501.949    505.899    501.949
 95.570    695.924    738.944    -43.021    501.760    735.242    501.760    505.472    501.760
 95.670    710.000    715.837     -5.837    501.570    712.310    501.570    505.105    501.570
 95.770    668.019    697.715    -29.696    501.379    694.315    501.379    504.783    501.379
 95.870    734.000    685.983     48.017    501.187    682.673    501.187    504.496    501.187
 95.970    728.997    681.838     47.159    500.994    678.590    500.994    504.235    500.994
 96.070    669.000    686.277    -17.277    500.800    683.067    500.800    503.995    500.800
 96.170    714.000    700.092     13.908    500.605    696.901    500.605    503.771    500.605
 96.270    663.000    723.918    -60.918    500.409    720.731    500.409    503.561    500.409
 96.370    701.000    758.115    -57.115    500.213    754.918    500.213    503.363    500.213
 96.470    810.000    802.713      7.287    500.015    799.495    500.015    503.175    500.015
 96.570    861.622    857.329      4.293    499.817    854.079    499.817    502.996    499.817
 96.670    937.000    921.048     15.952    499.617    917.756    499.617    502.827    499.617
 96.770   1018.000    992.323     25.677    499.417    988.982    499.417    502.666    499.417
 96.870   1005.356   1068.912    -63.556    499.216   1065.514    499.216    502.514    499.216
 96.970   1209.582   1147.848     61.734    499.014   1144.387    499.014    502.371    499.014
 97.070   1271.000   1225.480     45.520    498.811   1221.950    498.811    502.236    498.811
 97.170   1248.000   1297.589    -49.589    498.608   1293.984    498.608    502.111    498.608
 97.270   1374.143   1359.636     14.507    498.403   1355.952    498.403    501.996    498.403
 97.370   1460.000   1407.197     52.803    498.198   1403.426    498.198    501.890    498.198
 97.470   1438.000   1436.586      1.414    497.992   1432.722    497.992    501.796    497.992
 97.570   1454.674   1445.541      9.133    497.785   1441.574    497.785    501.714    497.785
 97.670   1372.941   1433.685    -60.745    497.578   1429.602    497.578    501.645    497.578
 97.770   1351.168   1402.550    -51.381    497.370   1398.332    497.370    501.592    497.370
 97.870   1344.000   1355.157    -11.157    497.161   1350.786    497.161    501.555    497.161
 97.970   1353.108   1295.418     57.690    496.951   1290.870    496.951    501.538    496.951
 98.070   1171.875   1227.581    -55.706    496.741   1222.826    496.741    501.544    496.741
 98.170   1189.000   1155.839     33.161    496.530   1150.844    496.530    501.580    496.530
 98.270   1059.089   1084.086    -24.997    496.318   1078.810    496.318    501.651    496.318
 98.370   1063.000   1015.766     47.234    496.106   1010.159    496.106    501.767    496.106
 98.470   1022.000    953.799     68.201    495.893    947.800    495.893    501.942    495.893
 98.570    871.576    900.569    -28.993    495.679    894.099    495.679    502.192    495.679
 98.670    820.000    857.946    -37.946    495.465    850.905    495.465    502.541    495.465
 98.770    810.000    827.351    -17.351    495.250    819.609    495.250    503.017    495.250
 98.870    808.000    809.828     -1.828    495.035    801.218    495.035    503.659    495.035
 98.970    801.000    806.131     -5.131    494.819    796.440    494.819    504.515    494.819
 99.070    871.433    816.786     54.648    494.602    805.744    494.602    505.640    494.602
 99.170    835.075    842.127     -7.053    494.385    829.396    494.385    507.104    494.385
 99.270    895.000    882.292     12.708    494.168    867.456    494.168    508.984    494.168
 99.370    883.883    937.172    -53.289    493.950    919.729    493.950    511.367    493.950
 99.470    970.399   1006.335    -35.936    493.731    985.693    493.731    514.345    493.731
 99.570   1113.275   1088.924     24.351    493.512   1064.398    493.512    518.010    493.512
 99.670   1220.000   1183.538     36.462    493.293   1154.356    493.293    522.449    493.293
 99.770   1321.000   1288.182     32.818    493.073   1253.498    493.073    527.738    493.073
 99.870   1434.000   1400.138     33.862    492.853   1359.054    492.853    533.929    492.853
 99.970   1483.469   1515.955    -32.486    492.632   1467.550    492.632    541.044    492.632
100.070   1686.000   1631.533     54.467    492.411   1574.905    492.411    549.065    492.411
100.170   1767.000   1742.329     24.671    492.189   1676.642    492.189    557.926    492.189
100.270   1777.039   1843.700    -66.661    491.968   1768.242    491.968    567.502    491.968
100.370   2016.363   1931.347     85.016    491.745   1845.588    491.745    577.608    491.745
100.470   2057.000   2001.684     55.316    491.523   1905.349    491.523    587.989    491.523
100.570   2050.000   2052.013     -2.013    491.300   1945.150    491.300    598.319    491.300
100.670   2109.000   2080.489     28.511    491.077   1963.541    491.077    608.204    491.077
100.770   2089.000   2086.056      2.944    490.854   1959.922    490.854    617.186    490.854
100.870   2151.378   2068.514     82.864    490.630   1934.591    490.630    624.765    490.630
100.970   1998.264   2028.773    -30.508    490.407   1888.955    490.407    630.445    490.407
101.070   2047.311   1969.103     78.208    490.183   1825.710    490.183    633.799    490.183
101.170   1946.977   1893.152     53.825    489.959   1748.791    489.959    634.541    489.959
101.270   1864.047   1805.628     58.419    489.734   1662.985    489.734    632.591    489.734
101.370   1648.288   1711.739    -63.451    489.510   1573.359    489.510    628.092    489.510
101.470   1576.000   1616.590    -40.590    489.285   1484.686    489.285    621.377    489.285
101.570   1544.375   1524.702     19.673    489.061   1401.031    489.061    612.903    489.061
101.670   1462.000   1439.694     22.306    488.836   1325.511    488.836    603.173    488.836
101.770   1353.000   1364.123    -11.123    488.611   1260.194    488.611    592.677    488.611
101.870   1307.000   1299.441      7.559    488.386   1206.090    488.386    581.859    488.386
101.970   1266.000   1246.027     19.973    488.161   1163.204    488.161    571.093    488.161
102.070   1155.000   1203.279    -48.279    487.937   1130.629    487.937    560.685    487.937
102.170   1235.576   1169.757     65.819    487.712   1106.692    487.712    550.867    487.712
102.270   1111.000   1143.362    -32.362    487.487   1089.125    487.487    541.808    487.487
102.370   1077.833   1121.564    -43.731    487.262   1075.294    487.262    533.613    487.262
102.470   1075.000   1101.687    -26.687    487.037   1062.470    487.037    526.336    487.037
102.570   1056.000   1081.234    -25.234    486.813   1048.147    486.813    519.981    486.813
102.670   1019.000   1058.205    -39.205    486.588   1030.361    486.588    514.516    486.588
102.770    969.000   1031.348    -62.348    486.364   1007.915    486.364    509.882    486.364
102.870   1042.474   1000.232     42.241    486.140    980.459    486.140    505.998    486.140
102.970    960.000    965.158     -5.158    485.916    948.383    485.916    502.775    485.916
103.070    909.216    926.952    -17.736    485.692    912.604    485.692    500.121    485.692
103.170    915.520    886.733     28.788    485.468    874.334    485.468    497.944    485.468
103.270    863.000    845.724     17.276    485.245    834.881    485.245    496.160    485.245
103.370    777.504    805.118    -27.613    485.022    795.511    485.022    494.695    485.022
103.470    795.000    765.982     29.018    484.799    757.357    484.799    493.483    484.799
103.570    769.000    729.206     39.794    484.577    721.365    484.577    492.470    484.577
103.670    686.000    695.469     -9.469    484.354    688.258    484.354    491.611    484.354
103.770    713.000    665.224     47.776    484.133    658.524    484.133    490.871    484.133
103.870    605.141    638.701    -33.560    483.911    632.422    483.911    490.224    483.911
103.970    607.000    615.935     -8.935    483.690    610.005    483.690    489.646    483.690
104.070    601.886    596.790      5.096    483.470    591.157    483.470    489.124    483.470
104.170    566.756    581.008    -14.252    483.250    575.630    483.250    488.645    483.250
104.270    579.000    568.245     10.755    483.030    563.089    483.030    488.199    483.030
104.370    603.087    558.113     44.973    482.811    553.152    482.811    487.782    482.811
104.470    566.386    550.239     16.146    482.593    545.451    482.593    487.387    482.593
104.570    517.412    544.245    -26.833    482.375    539.611    482.375    487.013    482.375
104.670    505.160    539.795    -34.636    482.157    535.300    482.157    486.655    482.157
104.770    523.917    536.607    -12.690    481.940    532.236    481.940    486.312    481.940
104.870    544.473    534.453     10.020    481.724    530.194    481.724    485.982    481.724
104.970    555.000    533.161     21.839    481.509    529.003    481.509    485.665    481.509
105.070    520.376    532.616    -12.240    481.294    528.548    481.294    485.358    481.294
105.170    549.000    532.750     16.250    481.080    528.763    481.080    485.061    481.080
105.270    529.000    533.539     -4.539    480.867    529.629    480.867    484.770    480.867
105.370    536.000    535.013      0.987    480.654    531.167    480.654    484.492    480.654
105.470    535.356    537.223     -1.867    480.442    533.433    480.442    484.222    480.442
105.570    541.000    540.253      0.747    480.231    536.512    480.231    483.960    480.231
105.670    532.017    544.205    -12.188    480.021    540.506    480.021    483.706    480.021
105.770    519.476    549.186    -29.711    479.812    545.522    479.812    483.459    479.812
105.870    591.988    555.295     36.693    479.603    551.661    479.603    483.219    479.603
105.970    587.000    562.606     24.394    479.396    558.995    479.396    482.985    479.396
106.070    613.366    571.154     42.212    479.189    567.561    479.189    482.756    479.189
106.170    548.000    580.913    -32.913    478.984    577.342    478.984    482.526    478.984
106.270    632.319    591.819     40.500    478.779    588.256    478.779    482.309    478.779
106.370    599.000    603.715     -4.715    478.576    600.155    478.576    482.100    478.576
106.470    603.000    616.378    -13.378    478.373    612.816    478.373    481.896    478.373
106.570    614.000    629.514    -15.514    478.172    625.946    478.172    481.697    478.172
106.670    643.000    642.764      0.236    477.972    639.187    477.972    481.505    477.972
106.770    663.000    655.720      7.280    477.772    652.129    477.772    481.317    477.772
106.870    644.000    667.934    -23.934    477.574    664.326    477.574    481.135    477.574
106.970    639.909    678.957    -39.048    477.378    675.328    477.378    480.959    477.378
107.070    643.000    688.369    -45.369    477.182    684.716    477.182    480.788    477.182
107.170    680.574    695.837    -15.263    476.988    692.158    476.988    480.623    476.988
107.270    648.913    701.174    -52.260    476.795    697.464    476.795    480.463    476.795
107.370    664.000    704.372    -40.372    476.603    700.628    476.603    480.309    476.603
107.470    680.868    705.621    -24.753    476.413    701.840    476.413    480.161    476.413
107.570    712.248    705.275      6.973    476.224    701.452    476.224    480.018    476.224
107.670    681.000    703.792    -22.792    476.037    699.922    476.037    479.881    476.037
107.770    709.000    701.664      7.336    475.851    697.744    475.851    479.751    475.851
107.870    662.000    699.356    -37.356    475.666    695.380    475.666    479.627    475.666
107.970    648.000    697.254    -49.254    475.483    693.217    475.483    479.509    475.483
108.070    662.144    695.639    -33.494    475.302    691.536    475.302    479.397    475.302
108.170    668.000    694.662    -26.662    475.122    690.488    475.122    479.293    475.122
108.270    694.000    694.345     -0.345    474.943    690.093    474.943    479.195    474.943
108.370    648.000    694.572    -46.572    474.767    690.237    474.767    479.105    474.767
108.470    709.000    695.106     13.894    474.592    690.682    474.592    479.023    474.592
108.570    700.000    695.605      4.395    474.418    691.087    474.418    478.948    474.418
108.670    705.000    695.661      9.339    474.247    691.040    474.247    478.882    474.247
108.770    696.000    694.837      1.163    474.077    690.107    474.077    478.824    474.077
108.870    732.981    692.735     40.246    473.909    687.888    473.909    478.775    473.909
108.970    717.000    689.048     27.952    473.742    684.076    473.742    478.736    473.742
109.070    669.000    683.612    -14.612    473.578    678.507    473.578    478.707    473.578
109.170    632.421    676.425    -44.004    473.416    671.177    473.416    478.688    473.416
109.270    665.000    667.636     -2.636    473.255    662.236    473.255    478.680    473.255
109.370    661.889    657.512      4.377    473.096    651.948    473.096    478.684    473.096
109.470    665.000    646.390     18.610    472.940    640.652    472.940    478.700    472.940
109.570    632.000    634.639     -2.639    472.785    628.716    472.785    478.730    472.785
109.670    629.000    622.628      6.372    472.633    616.507    472.633    478.774    472.633
109.770    643.154    610.702     32.452    472.482    604.370    472.482    478.833    472.482
109.870    596.000    599.166     -3.166    472.334    592.608    472.334    478.908    472.334
109.970    614.989    588.257     26.732    472.188    581.458    472.188    479.001    472.188
110.070    567.014    578.211    -11.197    472.044    571.155    472.044    479.113    472.044
110.170    568.018    569.198     -1.180    471.902    561.865    471.902    479.246    471.902
110.270    589.923    561.293     28.630    471.763    553.662    471.763    479.402    471.763
110.370    569.733    554.539     15.193    471.626    546.586    471.626    479.585    471.626
110.470    527.144    548.936    -21.792    471.491    540.634    471.491    479.797    471.491
110.570    578.000    544.446     33.554    471.359    535.763    471.359    480.044    471.359
110.670    559.000    541.006     17.994    471.229    531.904    471.229    480.331    471.229
110.770    551.000    538.531     12.469    471.101    528.967    471.101    480.664    471.101
110.870    547.000    536.930     10.070    470.976    526.850    470.976    481.054    470.976
110.970    584.390    536.108     48.282    470.854    525.447    470.854    481.511    470.854
111.070    579.622    535.976     43.646    470.734    524.654    470.734    482.051    470.734
111.170    517.055    536.451    -19.396    470.616    524.372    470.616    482.690    470.616
111.270    517.589    537.466    -19.877    470.502    524.509    470.502    483.453    470.502
111.370    571.140    538.970     32.171    470.390    524.986    470.390    484.366    470.390
111.470    560.000    540.927     19.073    470.280    525.735    470.280    485.464    470.280
111.570    507.000    543.320    -36.320    470.174    526.697    470.174    486.789    470.174
111.670    584.346    546.151     38.195    470.070    527.825    470.070    488.388    470.070
111.770    537.008    549.443    -12.435    469.969    529.084    469.969    490.319    469.969
111.870    529.969    553.237    -23.268    469.871    530.450    469.871    492.649    469.871
111.970    529.165    557.594    -28.429    469.776    531.909    469.776    495.451    469.776
112.070    634.000    562.594     71.406    469.684    533.457    469.684    498.811    469.684
112.170    561.280    568.335     -7.055    469.595    535.103    469.595    502.817    469.595
112.270    551.000    574.931    -23.931    469.509    536.862    469.509    507.567    469.509
112.370    546.274    582.503    -36.229    469.425    538.759    469.425    513.160    469.425
112.470    570.000    591.184    -21.184    469.346    540.824    469.346    519.696    469.346
112.570    638.000    601.110     36.890    469.269    543.097    469.269    527.270    469.269
112.670    612.000    612.414     -0.414    469.195    545.629    469.195    535.969    469.195
112.770    595.000    625.232    -30.232    469.125    548.478    469.125    545.866    469.125
112.870    612.280    639.692    -27.412    469.057    551.724    469.057    557.012    469.057
112.970    660.000    655.919      4.081    468.994    555.467    468.994    569.433    468.994
113.070    709.713    674.037     35.675    468.933    559.835    468.933    583.122    468.933
113.170    699.000    694.173      4.827    468.876    565.002    468.876    598.032    468.876
113.270    715.000    716.462     -1.462    468.822    571.193    468.822    614.075    468.822
113.370    692.000    741.064    -49.064    468.772    578.705    468.772    631.114    468.772
113.470    785.706    768.177     17.529    468.726    587.925    468.726    648.957    468.726
113.570    776.000    798.059    -22.059    468.683    599.357    468.683    667.361    468.683
113.670    781.549    831.051    -49.502    468.643    613.643    468.643    686.024    468.643
113.770    872.000    867.604      4.396    468.607    631.595    468.607    704.584    468.607
113.870    915.000    908.310      6.690    468.575    654.222    468.575    722.624    468.575
113.970    963.000    953.935      9.065    468.547    682.758    468.547    739.676    468.547
114.070    984.300   1005.453    -21.153    468.522    718.689    468.522    755.228    468.522
114.170   1059.000   1064.081     -5.081    468.501    763.761    468.501    768.749    468.501
114.270   1138.186   1131.313      6.872    468.484    819.994    468.484    779.715    468.484
114.370   1179.000   1208.955    -29.955    468.471    889.661    468.471    787.656    468.471
114.470   1355.000   1299.134     55.866    468.462    975.260    468.462    792.202    468.462
114.570   1367.000   1404.290    -37.290    468.457   1079.456    468.457    793.127    468.457
114.670   1542.089   1527.118     14.971    468.456   1204.990    468.456    790.385    468.456
114.770   1675.000   1670.461      4.539    468.459   1354.568    468.459    784.113    468.459
114.870   1817.000   1837.138    -20.138    468.467   1530.709    468.467    774.612    468.467
114.970   2146.000   2029.739    116.261    468.478   1735.576    468.478    762.308    468.478
115.070   2300.481   2250.378     50.103    468.494   1970.782    468.494    747.703    468.494
115.170   2576.000   2500.447     75.553    468.514   2237.187    468.514    731.331    468.514
115.270   2801.000   2780.374     20.626    468.538   2534.696    468.538    713.716    468.538
115.370   3175.000   3089.414     85.586    468.567   2862.073    468.567    695.351    468.567
115.470   3505.846   3425.477     80.369    468.600   3216.785    468.600    676.680    468.600
115.570   3774.000   3785.006    -11.006    468.637   3594.889    468.637    658.094    468.637
115.670   4079.000   4162.921    -83.921    468.679   3990.973    468.679    639.923    468.679
115.770   4309.000   4552.614   -243.614    468.726   4398.161    468.726    622.443    468.726
115.870   4848.000   4946.030    -98.030    468.777   4808.180    468.777    605.869    468.777
115.970   5191.000   5333.805   -142.805    468.833   5211.507    468.833    590.366    468.833
116.070   5545.000   5705.489   -160.489    468.893   5597.580    468.893    576.048    468.893
116.170   6184.629   6049.868    134.761    468.958   5955.119    468.958    562.981    468.958
116.270   6343.000   6355.390    -12.390    469.029   6272.547    469.029    551.191    469.029
116.370   6714.000   6610.748    103.252    469.103   6538.567    469.103    540.668    469.103
116.470   6785.000   6805.620    -20.620    469.183   6742.895    469.183    531.374    469.183
116.570   7029.000   6931.514     97.486    469.268   6877.100    469.268    523.245    469.268
116.670   6991.000   6982.624      8.376    469.358   6935.450    469.358    516.202    469.358
116.770   7013.000   6956.481     56.519    469.453   6915.565    469.453    510.153    469.453
116.870   6877.135   6854.243     22.892    469.553   6818.695    469.553    505.000    469.553
116.970   6699.000   6680.544     18.456    469.658   6649.567    469.658    500.643    469.658
117.070   6418.000   6442.950    -24.950    469.768   6415.842    469.768    496.983    469.768
117.170   6106.000   6151.061    -45.061    469.883   6127.211    469.883    493.928    469.883
117.270   5743.000   5815.724    -72.724    470.004   5794.606    470.004    491.388    470.004
117.370   5311.000   5448.254   -137.254    470.130   5429.420    470.130    489.286    470.130
117.470   4920.000   5059.815   -139.815    470.262   5042.887    470.262    487.552    470.262
117.570   4619.000   4660.955    -41.955    470.399   4645.617    470.399    486.122    470.399
117.670   4310.000   4261.271     48.729    470.541   4247.262    470.541    484.945    470.541
117.770   4005.000   3869.166    135.834    470.689   3856.272    470.689    483.975    470.689
117.870   3590.464   3491.702     98.762    470.843   3479.747    470.843    483.176    470.843
117.970   3258.000   3134.519    123.481    471.002   3123.362    471.002    482.515    471.002
118.070   2853.355   2801.829     51.527    471.167   2791.354    471.167    481.969    471.167
118.170   2474.859   2496.474    -21.615    471.338   2486.589    471.338    481.517    471.338
118.270   2149.468   2220.038    -70.570    471.515   2210.670    471.515    481.143    471.515
118.370   2000.000   1972.997     27.003    471.697   1964.085    471.697    480.834    471.697
118.470   1743.292   1754.889    -11.597    471.886   1746.385    471.886    480.580    471.886
118.570   1642.956   1564.501     78.455    472.080   1556.366    472.080    480.372    472.080
118.670   1357.000   1400.053    -43.053    472.280   1392.255    472.280    480.205    472.280
118.770   1251.000   1259.378     -8.378    472.487   1251.891    472.487    480.075    472.487
118.870   1124.000   1140.082    -16.082    472.700   1132.883    472.700    479.976    472.700
118.970   1027.953   1039.686    -11.734    472.919   1032.756    472.919    479.907    472.919
119.070    966.789    955.746     11.044    473.144    949.067    473.144    479.865    473.144
119.170    939.168    885.935     53.234    473.375    879.493    473.375    479.847    473.375
119.270    796.000    828.110    -32.110    473.613    821.890    473.613    479.854    473.613
119.370    792.000    780.349     11.651    473.857    774.337    473.857    479.882    473.857
119.470    691.000    740.964    -49.964    474.108    735.148    474.108    479.933    474.108
119.570    675.000    708.507    -33.507    474.365    702.873    474.365    480.004    474.365
119.670    687.000    681.752      5.248    474.629    676.288    474.629    480.096    474.629
119.770    635.000    659.682    -24.682    474.899    654.373    474.899    480.209    474.899
119.870    644.429    641.458      2.970    475.177    636.294    475.177    480.342    475.177
119.970    636.000    626.404      9.596    475.461    621.370    475.461    480.495    475.461
120.070    617.000    613.974      3.026    475.751    609.057    475.751    480.669    475.751
120.170    594.000    603.733     -9.733    476.049    598.920    476.049    480.863    476.049
120.270    597.943    595.338      2.605    476.354    590.613    476.354    481.080    476.354
120.370    640.000    588.517     51.483    476.665    583.866    476.665    481.318    476.665
120.470    532.000    583.060    -51.060    476.984    578.467    476.984    481.579    476.984
120.570    615.000    578.799     36.201    477.310    574.248    477.310    481.864    477.310
120.670    558.797    575.607    -16.810    477.643    571.080    477.643    482.173    477.643
120.770    537.000    573.383    -36.383    477.983    568.862    477.983    482.508    477.983
120.870    545.000    572.048    -27.048    478.330    567.514    478.330    482.869    478.330
120.970    599.472    571.538     27.934    478.685    566.972    478.685    483.257    478.685
121.070    586.000    571.801     14.199    479.047    567.183    479.047    483.672    479.047
121.170    562.000    572.791    -10.791    479.417    568.100    479.417    484.116    479.417
121.270    582.000    574.462      7.538    479.794    569.677    479.794    484.588    479.794
121.370    562.000    576.770    -14.770    480.179    571.870    480.179    485.090    480.179
121.470    603.000    579.665     23.335    480.572    574.631    480.572    485.619    480.572
121.570    538.569    583.093    -44.524    480.972    577.904    480.972    486.177    480.972
121.670    558.000    586.991    -28.991    481.380    581.627    481.380    486.761    481.380
121.770    570.981    591.287    -20.305    481.796    585.730    481.796    487.372    481.796
121.870    553.297    595.899    -42.602    482.220    590.135    482.220    488.006    482.220
121.970    580.000    600.736    -20.736    482.651    594.750    482.651    488.662    482.651
122.070    609.000    605.698      3.302    483.091    599.479    483.091    489.337    483.091
122.170    609.000    610.673     -1.673    483.539    604.216    483.539    490.027    483.539
122.270    612.000    615.547     -3.547    483.995    608.846    483.995    490.728    483.995
122.370    630.000    620.198      9.802    484.459    613.255    484.459    491.437    484.459
122.470    620.000    624.504     -4.504    484.932    617.326    484.932    492.148    484.932
122.570    666.000    628.345     37.655    485.413    620.945    485.413    492.853    485.413
122.670    659.000    631.617     27.383    485.902    624.011    485.902    493.551    485.902
122.770    627.127    634.227     -7.099    486.400    626.436    486.400    494.234    486.400
122.870    590.294    636.102    -45.808    486.906    628.157    486.906    494.896    486.906
122.970    628.000    637.199     -9.199    487.421    629.135    487.421    495.531    487.421
123.070    634.000    637.506     -3.506    487.944    629.363    487.944    496.134    487.944
123.170    665.000    637.036     27.964    488.477    628.858    488.477    496.701    488.477
123.270    638.000    635.832      2.168    489.018    627.667    489.018    497.229    489.018
123.370    666.000    633.955     32.045    489.568    625.851    489.568    497.717    489.568
123.470    656.000    631.485     24.515    490.127    623.490    490.127    498.165    490.127
123.570    610.000    628.509    -18.509    490.695    620.668    490.695    498.577    490.695
123.670    633.000    625.120      7.880    491.272    617.474    491.272    498.957    491.272
123.770    612.000    621.411     -9.411    491.858    613.996    491.858    499.308    491.858
123.870    567.528    617.471    -49.943    492.453    610.319    492.453    499.638    492.453
123.970    599.389    613.385    -13.996    493.058    606.521    493.058    499.952    493.058
124.070    625.000    609.228     15.772    493.672    602.671    493.672    500.255    493.672
124.170    585.726    605.065    -19.339    494.295    598.829    494.295    500.555    494.295
124.270    577.483    600.949    -23.466    494.928    595.042    494.928    500.856    494.928
124.370    609.000    596.922     12.078    495.570    591.346    495.570    501.164    495.570
124.470    548.355    593.013    -44.657    496.222    587.768    496.222    501.482    496.222
124.570    583.000    589.239     -6.239    496.884    584.320    496.884    501.816    496.884
124.670    571.649    585.611    -13.962    497.555    581.010    497.555    502.167    497.555
124.770    577.000    582.129     -5.129    498.237    577.834    498.237    502.540    498.237
124.870    570.369    578.789     -8.420    498.928    574.787    498.928    502.937    498.928
124.970    628.000    575.584     52.416    499.629    571.860    499.629    503.358    499.629
