neutron_powder_diffraction_0214
R_wp: 4.050
Temperature (K): 1074.000
Counts: 84055.00
Wavelength (Ã…): 2.52098
COMMENTS
Test file for demonstrating the .xyy file format in Reel1.0
END OF HEADER
   tth       Y_obs     Y_calc      Y_res    Background    Phase_1_Nuc    Phase_1_Mag    Phase_2_Nuc    Phase_2_Mag
  9.970    563.000    569.614     -6.614    568.930    569.550    568.930    568.994    568.930
 10.070    560.633    569.775     -9.142    569.037    569.711    569.037    569.102    569.037
 10.170    637.000    569.938     67.062    569.139    569.873    569.139    569.204    569.139
 10.270    532.182    570.104    -37.922    569.235    570.039    569.235    569.300    569.235
 10.370    595.000    570.276     24.724    569.325    570.211    569.325    569.390    569.325
 10.470    574.000    570.456      3.544    569.409    570.390    569.409    569.475    569.409
 10.570    579.000    570.648      8.352    569.488    570.582    569.488    569.554    569.488
 10.670    549.692    570.856    -21.164    569.561    570.789    569.561    569.627    569.561
 10.770    558.000    571.086    -13.086    569.628    571.019    569.628    569.694    569.628
 10.870    522.669    571.347    -48.678    569.689    571.280    569.689    569.756    569.689
 10.970    573.000    571.650      1.350    569.745    571.582    569.745    569.812    569.745
 11.070    587.000    572.012     14.988    569.796    571.943    569.796    569.863    569.796
 11.170    525.372    572.456    -47.084    569.841    572.387    569.841    569.908    569.841
 11.270    569.000    573.021     -4.021    569.881    572.951    569.881    569.948    569.881
 11.370    575.000    573.769      1.231    569.915    573.699    569.915    569.983    569.915
 11.470    574.000    574.838     -0.838    569.944    574.767    569.944    570.012    569.944
 11.570    611.076    576.615     34.461    569.968    576.543    569.968    570.036    569.968
 11.670    559.841    580.228    -20.388    569.986    580.153    569.986    570.055    569.986
 11.770    638.000    588.381     49.619    570.000    588.302    570.000    570.069    570.000
 11.870    639.905    605.571     34.334    570.008    605.481    570.008    570.078    570.008
 11.970    644.000    635.447      8.553    570.012    635.340    570.012    570.082    570.012
 12.070    691.855    674.290     17.565    570.010    674.160    570.010    570.081    570.010
 12.170    692.281    705.010    -12.728    570.003    704.861    570.003    570.076    570.003
 12.270    701.978    706.004     -4.026    569.992    705.854    569.992    570.065    569.992
 12.370    656.822    676.361    -19.539    569.976    676.227    569.976    570.049    569.976
 12.470    645.000    637.307      7.693    569.955    637.195    569.955    570.028    569.955
 12.570    608.705    606.708      1.997    569.929    606.613    569.929    570.003    569.929
 12.670    604.000    588.892     15.108    569.898    588.807    569.898    569.973    569.898
 12.770    588.000    580.383      7.617    569.863    580.303    569.863    569.938    569.863
 12.870    586.000    576.611      9.389    569.824    576.532    569.824    569.899    569.824
 12.970    622.963    574.763     48.200    569.779    574.685    569.779    569.855    569.779
 13.070    558.000    573.655    -15.655    569.731    573.577    569.731    569.806    569.731
 13.170    612.522    572.879     39.644    569.678    572.801    569.678    569.754    569.678
 13.270    568.000    572.291     -4.291    569.620    572.213    569.620    569.696    569.620
 13.370    522.528    571.827    -49.299    569.558    571.749    569.558    569.635    569.558
 13.470    553.803    571.448    -17.645    569.492    571.370    569.492    569.569    569.492
 13.570    570.271    571.131     -0.860    569.421    571.052    569.421    569.499    569.421
 13.670    533.751    570.857    -37.107    569.347    570.779    569.347    569.425    569.347
 13.770    538.000    570.617    -32.617    569.268    570.538    569.268    569.346    569.268
 13.870    557.000    570.400    -13.400    569.185    570.321    569.185    569.264    569.185
 13.970    532.730    570.202    -37.471    569.098    570.122    569.098    569.177    569.098
 14.070    552.000    570.017    -18.017    569.007    569.937    569.007    569.086    569.007
 14.170    575.000    569.842      5.158    568.912    569.762    568.912    568.992    568.912
 14.270    541.000    569.675    -28.675    568.813    569.594    568.813    568.893    568.813
 14.370    563.000    569.514     -6.514    568.710    569.432    568.710    568.791    568.710
 14.470    578.921    569.356      9.565    568.603    569.275    568.603    568.684    568.603
 14.570    530.000    569.202    -39.202    568.493    569.120    568.493    568.574    568.493
 14.670    532.000    569.052    -37.052    568.378    568.969    568.378    568.460    568.378
 14.770    554.000    568.901    -14.901    568.260    568.818    568.260    568.343    568.260
 14.870    569.630    568.750      0.880    568.139    568.667    568.139    568.222    568.139
 14.970    548.000    568.598    -20.598    568.013    568.514    568.013    568.097    568.013
 15.070    603.022    568.446     34.576    567.885    568.362    567.885    567.968    567.885
 15.170    577.767    568.293      9.474    567.752    568.208    567.752    567.837    567.752
 15.270    549.000    568.143    -19.143    567.616    568.053    567.616    567.706    567.616
 15.370    563.651    567.989     -4.338    567.477    567.896    567.477    567.569    567.477
 15.470    526.003    567.831    -41.828    567.334    567.738    567.334    567.427    567.334
 15.570    605.631    567.672     37.959    567.188    567.578    567.188    567.282    567.188
 15.670    603.000    567.511     35.489    567.039    567.417    567.039    567.133    567.039
 15.770    547.000    567.347    -20.347    566.886    567.253    566.886    566.980    566.886
 15.870    589.000    567.182     21.818    566.730    567.087    566.730    566.825    566.730
 15.970    566.956    567.014     -0.058    566.571    566.918    566.571    566.666    566.571
 16.070    565.000    566.844     -1.844    566.408    566.748    566.408    566.505    566.408
 16.170    609.308    566.672     42.636    566.243    566.575    566.243    566.340    566.243
 16.270    555.000    566.498    -11.498    566.074    566.400    566.074    566.172    566.074
 16.370    548.000    566.321    -18.321    565.903    566.223    565.903    566.001    565.903
 16.470    595.129    566.142     28.988    565.728    566.043    565.728    565.827    565.728
 16.570    567.446    565.960      1.486    565.551    565.861    565.551    565.650    565.551
 16.670    582.000    565.776     16.224    565.370    565.676    565.370    565.470    565.370
 16.770    586.000    565.590     20.410    565.187    565.490    565.187    565.287    565.187
 16.870    565.000    565.402     -0.402    565.001    565.301    565.001    565.102    565.001
 16.970    582.000    565.213     16.787    564.812    565.111    564.812    564.913    564.812
 17.070    591.474    565.020     26.454    564.620    564.918    564.620    564.722    564.620
 17.170    597.694    564.824     32.870    564.426    564.721    564.426    564.528    564.426
 17.270    530.083    564.627    -34.543    564.228    564.523    564.228    564.332    564.228
 17.370    523.504    564.426    -40.922    564.029    564.322    564.029    564.133    564.029
 17.470    517.000    564.224    -47.224    563.826    564.119    563.826    563.931    563.826
 17.570    583.461    564.022     19.439    563.621    563.916    563.621    563.727    563.621
 17.670    536.000    563.815    -27.815    563.414    563.709    563.414    563.520    563.414
 17.770    585.488    563.606     21.882    563.204    563.499    563.204    563.311    563.204
 17.870    528.000    563.395    -35.395    562.992    563.287    562.992    563.099    562.992
 17.970    539.000    563.182    -24.182    562.777    563.073    562.777    562.885    562.777
 18.070    546.000    562.966    -16.966    562.560    562.857    562.560    562.669    562.560
 18.170    549.000    562.749    -13.749    562.340    562.639    562.340    562.450    562.340
 18.270    501.000    562.529    -61.529    562.118    562.418    562.118    562.229    562.118
 18.370    523.000    562.308    -39.308    561.894    562.196    561.894    562.006    561.894
 18.470    565.000    562.084      2.916    561.668    561.972    561.668    561.780    561.668
 18.570    549.000    561.859    -12.859    561.439    561.745    561.439    561.552    561.439
 18.670    521.177    561.631    -40.455    561.208    561.517    561.208    561.323    561.208
 18.770    565.000    561.403      3.597    560.976    561.288    560.976    561.091    560.976
 18.870    602.383    561.172     41.211    560.741    561.056    560.741    560.857    560.741
 18.970    603.260    560.939     42.320    560.504    560.823    560.504    560.620    560.504
 19.070    600.000    560.705     39.295    560.265    560.588    560.265    560.382    560.265
 19.170    590.348    560.469     29.878    560.024    560.351    560.024    560.142    560.024
 19.270    535.000    560.231    -25.231    559.781    560.112    559.781    559.900    559.781
 19.370    522.896    559.992    -37.096    559.536    559.871    559.536    559.656    559.536
 19.470    556.000    559.751     -3.751    559.289    559.630    559.289    559.411    559.289
 19.570    573.000    559.509     13.491    559.041    559.386    559.041    559.163    559.041
 19.670    576.000    559.265     16.735    558.790    559.141    558.790    558.914    558.790
 19.770    532.000    559.020    -27.020    558.538    558.895    558.538    558.663    558.538
 19.870    583.998    558.773     25.225    558.284    558.647    558.284    558.410    558.284
 19.970    534.000    558.526    -24.526    558.029    558.399    558.029    558.156    558.029
 20.070    560.000    558.280      1.720    557.771    558.150    557.771    557.902    557.771
 20.170    564.714    558.032      6.682    557.512    557.900    557.512    557.645    557.512
 20.270    605.000    557.794     47.206    557.252    557.660    557.252    557.386    557.252
 20.370    552.000    557.552     -5.552    556.990    557.417    556.990    557.125    556.990
 20.470    513.000    557.299    -44.299    556.726    557.163    556.726    556.862    556.726
 20.570    576.000    557.045     18.955    556.461    556.907    556.461    556.598    556.461
 20.670    573.000    556.789     16.211    556.194    556.651    556.194    556.333    556.194
 20.770    528.000    556.534    -28.534    555.926    556.393    555.926    556.066    555.926
 20.870    534.700    556.277    -21.577    555.656    556.135    555.656    555.798    555.656
 20.970    567.000    556.019     10.981    555.385    555.876    555.385    555.528    555.385
 21.070    542.000    555.762    -13.762    555.113    555.617    555.113    555.257    555.113
 21.170    577.371    555.503     21.867    554.839    555.357    554.839    554.985    554.839
 21.270    560.000    555.245      4.755    554.564    555.097    554.564    554.712    554.564
 21.370    593.000    554.986     38.014    554.288    554.837    554.288    554.437    554.288
 21.470    562.075    554.727      7.347    554.011    554.577    554.011    554.161    554.011
 21.570    537.000    554.469    -17.469    553.732    554.316    553.732    553.884    553.732
 21.670    532.000    554.219    -22.219    553.452    554.064    553.452    553.606    553.452
 21.770    569.083    554.048     15.035    553.171    553.892    553.171    553.327    553.171
 21.870    512.401    553.835    -41.435    552.889    553.677    552.889    553.047    552.889
 21.970    555.000    553.609      1.391    552.606    553.450    552.606    552.766    552.606
 22.070    559.000    553.358      5.642    552.321    553.196    552.321    552.483    552.321
 22.170    590.861    553.105     37.756    552.036    552.941    552.036    552.200    552.036
 22.270    530.069    552.854    -22.785    551.750    552.688    551.750    551.916    551.750
 22.370    534.026    552.610    -18.584    551.463    552.442    551.463    551.631    551.463
 22.470    521.925    552.410    -30.485    551.174    552.240    551.174    551.345    551.174
 22.570    571.561    552.187     19.375    550.885    552.014    550.885    551.058    550.885
 22.670    525.915    551.951    -26.036    550.595    551.776    550.595    550.770    550.595
 22.770    592.801    551.719     41.082    550.304    551.542    550.304    550.482    550.304
 22.870    568.000    551.494     16.506    550.013    551.315    550.013    550.193    550.013
 22.970    589.234    551.280     37.954    549.720    551.097    549.720    549.903    549.720
 23.070    558.000    551.077      6.923    549.427    550.892    549.427    549.612    549.427
 23.170    541.179    550.884     -9.704    549.133    550.696    549.133    549.321    549.133
 23.270    531.000    550.706    -19.706    548.838    550.515    548.838    549.029    548.838
 23.370    536.063    550.549    -14.486    548.543    550.355    548.543    548.737    548.543
 23.470    530.577    550.419    -19.842    548.246    550.222    548.246    548.444    548.246
 23.570    573.457    550.325     23.132    547.950    550.125    547.950    548.151    547.950
 23.670    538.000    550.279    -12.279    547.652    550.075    547.652    547.857    547.652
 23.770    575.000    550.299     24.701    547.354    550.091    547.354    547.563    547.354
 23.870    516.229    550.413    -34.184    547.056    550.202    547.056    547.268    547.056
 23.970    601.000    550.672     50.328    546.757    550.458    546.757    546.973    546.757
 24.070    508.298    551.198    -42.901    546.457    550.980    546.457    546.678    546.457
 24.170    601.000    552.337     48.663    546.157    552.116    546.157    546.382    546.157
 24.270    554.000    555.040     -1.040    545.856    554.816    545.856    546.086    545.856
 24.370    581.738    561.386     20.352    545.555    561.161    545.555    545.790    545.555
 24.470    568.291    574.358     -6.067    545.254    574.138    545.254    545.494    545.254
 24.570    645.000    595.572     49.428    544.952    595.361    544.952    545.197    544.952
 24.670    605.910    620.928    -15.018    544.650    620.730    544.650    544.901    544.650
 24.770    654.000    637.819     16.181    544.347    637.627    544.347    544.605    544.347
 24.870    596.139    633.701    -37.562    544.045    633.500    544.045    544.308    544.045
 24.970    652.000    611.975     40.025    543.742    611.753    543.742    544.012    543.742
 25.070    629.439    586.728     42.711    543.438    586.480    543.438    543.716    543.438
 25.170    520.783    567.699    -46.916    543.135    567.430    543.135    543.420    543.135
 25.270    551.000    556.663     -5.663    542.831    556.378    542.831    543.124    542.831
 25.370    581.418    551.241     30.177    542.527    550.943    542.527    542.829    542.527
 25.470    519.772    548.675    -28.903    542.222    548.366    542.222    542.534    542.222
 25.570    586.000    547.300     38.700    541.918    546.981    541.918    542.239    541.918
 25.670    567.985    546.407     21.578    541.614    546.076    541.614    541.945    541.614
 25.770    534.000    545.739    -11.739    541.309    545.397    541.309    541.652    541.309
 25.870    588.000    545.205     42.795    541.004    544.851    541.004    541.360    541.004
 25.970    561.000    544.769     16.231    540.699    544.401    540.699    541.068    540.699
 26.070    561.000    544.408     16.592    540.395    544.026    540.395    540.777    540.395
 26.170    545.000    544.108      0.892    540.090    543.710    540.090    540.488    540.090
 26.270    534.000    543.864     -9.864    539.785    543.449    539.785    540.200    539.785
 26.370    505.476    543.696    -38.220    539.480    543.263    539.480    539.913    539.480
 26.470    554.000    543.575     10.425    539.175    543.123    539.175    539.628    539.175
 26.570    571.000    543.486     27.514    538.871    543.012    538.871    539.345    538.871
 26.670    575.000    543.454     31.546    538.566    542.956    538.566    539.064    538.566
 26.770    522.000    543.490    -21.490    538.262    542.966    538.262    538.786    538.262
 26.870    532.000    543.611    -11.611    537.957    543.058    537.957    538.510    537.957
 26.970    555.000    543.836     11.164    537.653    543.251    537.653    538.238    537.653
 27.070    562.000    544.185     17.815    537.349    543.564    537.349    537.969    537.349
 27.170    494.000    544.713    -50.713    537.045    544.053    537.045    537.705    537.045
 27.270    501.462    545.482    -44.019    536.742    544.777    536.742    537.446    536.742
 27.370    540.000    546.550     -6.550    536.438    545.794    536.438    537.192    536.438
 27.470    527.819    548.109    -20.290    536.135    547.297    536.135    536.945    536.135
 27.570    574.983    550.597     24.385    535.832    549.720    535.832    536.707    535.832
 27.670    584.553    555.478     29.075    535.530    554.526    535.530    536.478    535.530
 27.770    576.000    567.592      8.408    535.227    566.551    535.227    536.260    535.227
 27.870    629.000    598.699     30.301    534.926    597.549    534.926    536.057    534.926
 27.970    618.000    666.394    -48.394    534.624    665.108    534.624    535.870    534.624
 28.070    796.000    777.712     18.288    534.323    776.259    534.323    535.704    534.323
 28.170    942.000    901.309     40.691    534.022    899.669    534.022    535.565    534.022
 28.270    936.000    962.338    -26.338    533.721    960.506    533.721    535.458    533.721
 28.370    872.886    911.239    -38.354    533.421    909.207    533.421    535.394    533.421
 28.470    744.828    800.957    -56.129    533.122    798.666    533.122    535.388    533.122
 28.570    747.000    715.402     31.598    532.823    712.750    532.823    535.463    532.823
 28.670    754.000    697.832     56.168    532.524    694.683    532.524    535.658    532.524
 28.770    713.000    743.711    -30.711    532.226    739.878    532.226    536.040    532.226
 28.870    772.000    813.066    -41.066    531.928    808.269    531.928    536.713    531.928
 28.970    821.000    845.919    -24.919    531.631    839.722    531.631    537.831    531.631
 29.070    754.000    806.602    -52.602    531.335    798.357    531.335    539.592    531.335
 29.170    671.000    726.118    -55.118    531.039    714.962    531.039    542.207    531.039
 29.270    650.687    652.213     -1.525    530.743    637.131    530.743    545.833    530.743
 29.370    605.954    606.403     -0.448    530.448    586.418    530.448    550.436    530.448
 29.470    622.000    586.039     35.961    530.154    560.645    530.154    555.549    530.154
 29.570    608.000    579.401     28.599    529.860    549.319    529.860    559.942    529.860
 29.670    598.819    576.447     22.372    529.568    544.239    529.568    561.775    529.568
 29.770    552.021    572.172    -20.151    529.275    541.493    529.275    559.953    529.275
 29.870    585.000    566.025     18.975    528.984    539.703    528.984    555.304    528.984
 29.970    587.051    559.392     27.659    528.693    538.441    528.693    549.643    528.693
 30.070    584.000    553.490     30.510    528.402    537.566    528.402    544.325    528.402
 30.170    540.000    548.873     -8.873    528.113    537.051    528.113    539.933    528.113
 30.270    559.000    545.743     13.257    527.824    537.004    527.824    536.561    527.824
 30.370    571.000    544.406     26.594    527.536    537.861    527.536    534.077    527.536
 30.470    574.947    545.804     29.143    527.249    540.773    527.249    532.274    527.249
 30.570    534.519    551.852    -17.333    526.963    547.854    526.963    530.949    526.963
 30.670    599.000    564.686     34.314    526.677    561.400    526.677    529.940    526.677
 30.770    588.000    584.096      3.904    526.392    581.317    526.392    529.134    526.392
 30.870    619.000    604.264     14.736    526.108    601.863    526.108    528.458    526.108
 30.970    603.000    613.434    -10.434    525.825    611.333    525.825    527.871    525.825
 31.070    584.000    603.807    -19.807    525.543    601.960    525.543    527.345    525.543
 31.170    583.000    582.608      0.392    525.261    580.975    525.261    526.865    525.261
 31.270    609.000    561.578     47.422    524.981    560.124    524.981    526.419    524.981
 31.370    569.000    546.764     22.236    524.701    545.455    524.701    526.002    524.701
 31.470    550.000    538.466     11.534    524.422    537.278    524.422    525.607    524.422
 31.570    514.000    534.435    -20.435    524.144    533.347    524.144    525.229    524.144
 31.670    547.911    532.500     15.411    523.867    531.498    523.867    524.867    523.867
 31.770    546.724    531.440     15.284    523.592    530.512    523.592    524.518    523.592
 31.870    581.000    530.755     50.245    523.317    529.891    523.317    524.179    523.317
 31.970    575.224    530.272     44.952    523.043    529.465    523.043    523.849    523.043
 32.070    534.000    529.930      4.070    522.770    529.172    522.770    523.527    522.770
 32.170    573.655    529.705     43.950    522.498    528.990    522.498    523.212    522.498
 32.270    512.254    529.589    -17.336    522.227    528.913    522.227    522.902    522.227
 32.370    550.000    529.585     20.415    521.957    528.942    521.957    522.598    521.957
 32.470    580.000    529.699     50.301    521.688    529.087    521.688    522.299    521.688
 32.570    521.885    529.948     -8.063    521.420    529.363    521.420    522.003    521.420
 32.670    499.020    530.358    -31.338    521.153    529.798    521.153    521.712    521.153
 32.770    491.316    530.968    -39.651    520.887    530.430    520.887    521.424    520.887
 32.870    547.000    531.832     15.168    520.623    531.314    520.623    521.140    520.623
 32.970    501.707    533.034    -31.327    520.359    532.534    520.359    520.858    520.359
 33.070    540.000    534.703      5.297    520.097    534.219    520.097    520.579    520.097
 33.170    578.323    537.071     41.252    519.835    536.601    519.835    520.303    519.835
 33.270    515.286    540.673    -25.387    519.575    540.216    519.575    520.029    519.575
 33.370    586.000    546.963     39.037    519.316    546.517    519.316    519.758    519.316
 33.470    586.000    559.750     26.250    519.058    559.313    519.058    519.489    519.058
 33.570    574.844    587.270    -12.425    518.801    586.838    518.801    519.221    518.801
 33.670    617.000    642.519    -25.519    518.546    642.087    518.546    518.956    518.546
 33.770    707.523    737.254    -29.731    518.291    736.814    518.291    518.693    518.291
 33.870    899.000    867.729     31.271    518.038    867.280    518.038    518.432    518.038
 33.970    984.101    998.577    -14.476    517.786    998.125    517.786    518.173    517.786
 34.070   1061.000   1062.705     -1.705    517.535   1062.269    517.535    517.916    517.535
 34.170   1009.000   1014.507     -5.507    517.286   1014.103    517.286    517.660    517.286
 34.270    885.000    889.725     -4.725    517.037    889.351    517.037    517.406    517.037
 34.370    808.674    755.890     52.784    516.790    755.533    516.790    517.154    516.790
 34.470    647.000    654.003     -7.003    516.544    653.652    516.544    516.904    516.544
 34.570    604.000    592.156     11.844    516.300    591.807    516.300    516.655    516.300
 34.670    604.936    560.220     44.717    516.057    559.871    516.057    516.408    516.057
 34.770    503.000    544.937    -41.937    515.815    544.589    515.815    516.162    515.815
 34.870    571.127    537.251     33.876    515.574    536.906    515.574    515.918    515.574
 34.970    502.000    532.734    -30.734    515.334    532.392    515.334    515.676    515.334
 35.070    507.000    529.630    -22.630    515.096    529.290    515.096    515.435    515.096
 35.170    492.578    527.288    -34.711    514.859    526.951    514.859    515.196    514.859
 35.270    525.000    525.439     -0.439    514.624    525.104    514.624    514.958    514.624
 35.370    543.000    523.937     19.063    514.390    523.604    514.390    514.722    514.390
 35.470    499.388    522.691    -23.303    514.157    522.360    514.157    514.488    514.157
 35.570    554.101    521.640     32.461    513.925    521.310    513.925    514.255    513.925
 35.670    500.576    520.738    -20.163    513.695    520.410    513.695    514.024    513.695
 35.770    551.774    519.954     31.819    513.466    519.627    513.466    513.794    513.466
 35.870    553.000    519.265     33.735    513.239    518.938    513.239    513.566    513.239
 35.970    520.000    518.652      1.348    513.013    518.326    513.013    513.339    513.013
 36.070    550.750    518.103     32.647    512.788    517.777    512.788    513.114    512.788
 36.170    529.000    517.607     11.393    512.565    517.282    512.565    512.890    512.565
 36.270    551.000    517.157     33.843    512.343    516.832    512.343    512.668    512.343
 36.370    491.000    516.748    -25.748    512.123    516.424    512.123    512.447    512.123
 36.470    528.963    516.377     12.586    511.904    516.052    511.904    512.228    511.904
 36.570    517.000    516.042      0.958    511.686    515.717    511.686    512.011    511.686
 36.670    497.614    515.743    -18.130    511.470    515.418    511.470    511.795    511.470
 36.770    502.000    515.486    -13.486    511.255    515.161    511.255    511.581    511.255
 36.870    517.000    515.288      1.712    511.042    514.962    511.042    511.368    511.042
 36.970    510.000    515.195     -5.195    510.830    514.868    510.830    511.157    510.830
 37.070    553.842    515.325     38.516    510.619    514.998    510.619    510.947    510.619
 37.170    517.000    515.918      1.082    510.410    515.590    510.410    510.739    510.410
 37.270    560.493    517.331     43.162    510.203    517.002    510.203    510.533    510.203
 37.370    565.848    519.882     45.966    509.997    519.552    509.997    510.328    509.997
 37.470    558.000    523.506     34.494    509.792    523.175    509.792    510.124    509.792
 37.570    505.000    527.362    -22.362    509.589    527.031    509.589    509.923    509.589
 37.670    517.000    529.794    -12.794    509.387    529.463    509.387    509.722    509.387
 37.770    510.000    529.408    -19.408    509.187    529.077    509.187    509.524    509.187
 37.870    574.000    526.563     47.437    508.989    526.233    508.989    509.327    508.989
 37.970    543.473    522.787     20.686    508.791    522.457    508.791    509.131    508.791
 38.070    490.000    519.261    -29.261    508.596    518.929    508.596    508.938    508.596
 38.170    513.000    516.432     -3.432    508.402    516.097    508.402    508.745    508.402
 38.270    496.000    514.367    -18.367    508.209    514.028    508.209    508.555    508.209
 38.370    507.000    512.956     -5.956    508.018    512.612    508.018    508.366    508.018
 38.470    528.000    512.019     15.981    507.828    511.672    507.828    508.179    507.828
 38.570    546.503    511.396     35.108    507.640    511.044    507.640    507.993    507.640
 38.670    520.000    510.962      9.038    507.454    510.607    507.454    507.809    507.454
 38.770    528.000    510.634     17.366    507.269    510.277    507.269    507.626    507.269
 38.870    522.238    510.364     11.873    507.085    510.004    507.085    507.446    507.085
 38.970    509.000    510.126     -1.126    506.903    509.763    506.903    507.266    506.903
 39.070    543.572    509.908     33.664    506.723    509.542    506.723    507.089    506.723
 39.170    525.000    509.704     15.296    506.544    509.336    506.544    506.913    506.544
 39.270    493.000    509.513    -16.513    506.367    509.141    506.367    506.739    506.367
 39.370    527.000    509.332     17.668    506.191    508.957    506.191    506.566    506.191
 39.470    469.000    509.160    -40.160    506.017    508.782    506.017    506.396    506.017
 39.570    483.000    508.997    -25.997    505.844    508.615    505.844    506.226    505.844
 39.670    469.000    508.842    -39.842    505.673    508.456    505.673    506.059    505.673
 39.770    486.000    508.694    -22.694    505.504    508.305    505.504    505.893    505.504
 39.870    514.000    508.554      5.446    505.336    508.161    505.336    505.729    505.336
 39.970    525.000    508.422     16.578    505.169    508.025    505.169    505.567    505.169
 40.070    472.914    508.298    -35.384    505.005    507.897    505.005    505.406    505.005
 40.170    523.000    508.183     14.817    504.842    507.778    504.842    505.247    504.842
 40.270    509.000    508.077      0.923    504.680    507.667    504.680    505.090    504.680
 40.370    524.067    507.980     16.086    504.520    507.566    504.520    504.934    504.520
 40.470    463.000    507.895    -44.895    504.362    507.476    504.362    504.780    504.362
 40.570    529.076    507.821     21.255    504.205    507.398    504.205    504.628    504.205
 40.670    468.377    507.762    -39.385    504.049    507.334    504.049    504.478    504.049
 40.770    546.000    507.718     38.282    503.896    507.285    503.896    504.330    503.896
 40.870    484.000    507.693    -23.693    503.744    507.255    503.744    504.183    503.744
 40.970    497.000    507.690    -10.690    503.593    507.247    503.593    504.038    503.593
 41.070    516.449    507.714      8.735    503.444    507.265    503.444    503.894    503.444
 41.170    459.000    507.771    -48.771    503.297    507.316    503.297    503.753    503.297
 41.270    534.005    507.868     26.137    503.152    507.407    503.152    503.613    503.152
 41.370    495.153    508.017    -12.863    503.007    507.550    503.007    503.475    503.007
 41.470    530.000    508.233     21.767    502.865    507.760    502.865    503.339    502.865
 41.570    487.000    508.541    -21.541    502.724    508.062    502.724    503.205    502.724
 41.670    523.000    508.985     14.015    502.585    508.499    502.585    503.073    502.585
 41.770    569.000    509.661     59.339    502.447    509.169    502.447    502.942    502.447
 41.870    467.581    510.807    -43.226    502.311    510.308    502.311    502.813    502.311
 41.970    500.000    512.970    -12.970    502.177    512.464    502.177    502.686    502.177
 42.070    516.000    517.250     -1.250    502.044    516.738    502.044    502.561    502.044
 42.170    504.000    525.420    -21.420    501.913    524.904    501.913    502.438    501.913
 42.270    513.872    539.526    -25.655    501.783    539.008    501.783    502.317    501.783
 42.370    588.190    560.657     27.534    501.655    560.140    501.655    502.198    501.655
 42.470    585.718    587.083     -1.366    501.529    586.571    501.529    502.080    501.529
 42.570    657.000    612.642     44.358    501.404    612.135    501.404    501.965    501.404
 42.670    558.000    627.274    -69.274    501.281    626.767    501.281    501.851    501.281
 42.770    603.985    623.289    -19.304    501.159    622.774    501.159    501.740    501.159
 42.870    627.000    603.031     23.969    501.039    602.497    501.039    501.630    501.039
 42.970    564.000    576.086    -12.086    500.921    575.528    500.921    501.523    500.921
 43.070    555.000    551.200      3.800    500.804    550.615    500.804    501.417    500.804
 43.170    565.879    532.673     33.206    500.689    532.066    500.689    501.314    500.689
 43.270    525.000    520.926      4.074    500.575    520.299    500.575    501.212    500.575
 43.370    524.000    514.325      9.675    500.463    513.682    500.463    501.113    500.463
 43.470    500.000    510.859    -10.859    500.353    510.200    500.353    501.016    500.353
 43.570    504.000    509.017     -5.017    500.244    508.343    500.244    500.921    500.244
 43.670    488.000    507.941    -19.941    500.137    507.252    500.137    500.829    500.137
 43.770    528.000    507.226     20.774    500.032    506.521    500.032    500.738    500.032
 43.870    486.000    506.701    -20.701    499.928    505.980    499.928    500.650    499.928
 43.970    550.000    506.293     43.707    499.826    505.556    499.826    500.564    499.826
 44.070    461.000    505.970    -44.970    499.725    505.215    499.725    500.481    499.725
 44.170    505.000    505.710     -0.710    499.626    504.936    499.626    500.400    499.626
 44.270    466.342    505.500    -39.158    499.528    504.707    499.528    500.321    499.528
 44.370    512.000    505.330      6.670    499.432    504.518    499.432    500.246    499.432
 44.470    488.000    505.195    -17.195    499.338    504.361    499.338    500.172    499.338
 44.570    481.675    505.088    -23.413    499.245    504.232    499.245    500.102    499.245
 44.670    475.825    505.006    -29.181    499.154    504.127    499.154    500.034    499.154
 44.770    513.000    504.947      8.053    499.064    504.042    499.064    499.969    499.064
 44.870    492.000    504.908    -12.908    498.976    503.977    498.976    499.907    498.976
 44.970    524.584    504.888     19.696    498.890    503.929    498.890    499.848    498.890
 45.070    481.000    504.886    -23.886    498.805    503.898    498.805    499.793    498.805
 45.170    466.783    504.901    -38.118    498.722    503.882    498.722    499.740    498.722
 45.270    519.000    504.934     14.066    498.640    503.882    498.640    499.692    498.640
 45.370    504.000    504.984     -0.984    498.560    503.897    498.560    499.647    498.560
 45.470    542.000    505.052     36.948    498.481    503.928    498.481    499.606    498.481
 45.570    520.692    505.139     15.552    498.405    503.975    498.405    499.569    498.405
 45.670    472.693    505.246    -32.553    498.329    504.039    498.329    499.536    498.329
 45.770    521.047    505.374     15.673    498.255    504.121    498.255    499.508    498.255
 45.870    459.405    505.525    -46.120    498.183    504.223    498.183    499.485    498.183
 45.970    507.000    505.701      1.299    498.112    504.346    498.112    499.467    498.112
 46.070    485.000    505.906    -20.906    498.043    504.494    498.043    499.455    498.043
 46.170    498.000    506.142     -8.142    497.975    504.668    497.975    499.449    497.975
 46.270    520.000    506.416     13.584    497.909    504.875    497.909    499.450    497.909
 46.370    511.000    506.732      4.268    497.845    505.118    497.845    499.458    497.845
 46.470    502.303    507.098     -4.795    497.782    505.405    497.782    499.474    497.782
 46.570    523.000    507.525     15.475    497.720    505.745    497.720    499.499    497.720
 46.670    514.999    508.028      6.971    497.660    506.153    497.660    499.534    497.660
 46.770    476.000    508.633    -32.633    497.602    506.654    497.602    499.579    497.602
 46.870    514.000    509.393      4.607    497.545    507.299    497.545    499.637    497.545
 46.970    480.941    510.430    -29.489    497.490    508.208    497.490    499.709    497.490
 47.070    495.000    512.006    -17.006    497.436    509.643    497.436    499.796    497.436
 47.170    486.000    514.635    -28.635    497.384    512.112    497.384    499.902    497.384
 47.270    549.000    519.155     29.845    497.333    516.452    497.333    500.028    497.333
 47.370    486.000    526.640    -40.640    497.283    523.732    497.283    500.178    497.283
 47.470    509.536    537.969    -28.433    497.236    534.827    497.236    500.355    497.236
 47.570    556.000    553.084      2.916    497.189    549.674    497.189    500.566    497.189
 47.670    562.000    570.177     -8.177    497.145    566.462    497.145    500.815    497.145
 47.770    632.746    585.236     47.510    497.101    581.171    497.101    501.111    497.101
 47.870    645.000    592.881     52.119    497.059    588.419    497.059    501.464    497.059
 47.970    546.358    589.928    -43.569    497.019    585.007    497.019    501.887    497.019
 48.070    584.848    578.555      6.294    496.980    573.092    496.980    502.400    496.980
 48.170    532.000    564.016    -32.016    496.943    557.896    496.943    503.032    496.943
 48.270    557.000    550.876      6.124    496.907    543.932    496.907    503.830    496.907
 48.370    550.000    541.571      8.429    496.872    533.561    496.872    504.870    496.872
 48.470    536.000    536.698     -0.698    496.839    527.256    496.839    506.273    496.839
 48.570    552.701    535.788     16.913    496.808    524.360    496.808    508.230    496.808
 48.670    552.399    538.121     14.279    496.778    523.877    496.778    511.017    496.778
 48.770    553.339    543.249     10.090    496.749    524.989    496.749    515.006    496.749
 48.870    541.806    551.147     -9.341    496.722    527.233    496.722    520.632    496.722
 48.970    586.000    562.116     23.884    496.696    530.479    496.696    528.329    496.696
 49.070    615.330    576.643     38.687    496.671    534.909    496.671    538.401    496.671
 49.170    545.000    595.379    -50.379    496.648    541.190    496.648    550.832    496.648
 49.270    590.000    619.536    -29.536    496.627    551.119    496.627    565.036    496.627
 49.370    666.000    652.097     13.903    496.607    569.185    496.607    579.505    496.607
 49.470    717.450    700.316     17.135    496.588    605.313    496.588    591.567    496.588
 49.570    801.000    779.366     21.634    496.571    678.004    496.571    597.890    496.571
 49.670    874.000    914.557    -40.557    496.555    814.757    496.555    596.279    496.555
 49.770   1070.870   1135.603    -64.733    496.540   1044.669    496.540    587.356    496.540
 49.870   1447.000   1457.839    -10.839    496.527   1380.199    496.527    574.011    496.527
 49.970   1892.000   1856.241     35.759    496.515   1793.164    496.515    559.422    496.515
 50.070   2314.000   2248.571     65.429    496.505   2199.146    496.505    545.795    496.505
 50.170   2577.832   2507.685     70.147    496.496   2469.899    496.496    534.242    496.496
 50.270   2526.708   2522.603      4.105    496.488   2494.074    496.488    525.099    496.488
 50.370   2360.000   2282.312     77.688    496.481   2260.731    496.481    518.236    496.481
 50.470   1856.681   1886.940    -30.259    496.476   1870.337    496.476    513.283    496.476
 50.570   1368.000   1468.743   -100.743    496.473   1455.605    496.473    509.795    496.473
 50.670   1183.418   1121.855     61.563    496.470   1111.109    496.470    507.356    496.470
 50.770    910.082    882.959     27.123    496.469    873.894    496.469    505.632    496.469
 50.870    749.000    743.394      5.606    496.470    735.550    496.470    504.379    496.470
 50.970    671.000    672.690     -1.690    496.471    665.771    496.471    503.439    496.471
 51.070    631.000    638.802     -7.802    496.474    632.610    496.474    502.707    496.474
 51.170    615.933    618.831     -2.898    496.478    613.224    496.478    502.121    496.478
 51.270    611.851    601.566     10.285    496.484    596.436    496.484    501.643    496.484
 51.370    563.028    584.498    -21.469    496.491    579.765    496.491    501.246    496.491
 51.470    521.742    568.800    -47.059    496.499    564.401    496.499    500.915    496.499
 51.570    575.000    555.940     19.060    496.508    551.822    496.508    500.638    496.508
 51.670    578.000    546.535     31.465    496.519    542.657    496.519    500.404    496.519
 51.770    534.000    540.346     -6.346    496.530    536.675    496.530    500.207    496.530
 51.870    512.892    536.676    -23.784    496.544    533.181    496.544    500.042    496.544
 51.970    542.768    534.775      7.993    496.558    531.432    496.558    499.904    496.558
 52.070    567.543    534.088     33.455    496.574    530.875    496.574    499.789    496.574
 52.170    524.556    534.319     -9.763    496.590    531.217    496.590    499.695    496.590
 52.270    548.000    535.415     12.585    496.608    532.407    496.608    499.619    496.608
 52.370    539.591    537.582      2.009    496.628    534.652    496.628    499.558    496.628
 52.470    568.000    541.433     26.567    496.648    538.569    496.648    499.513    496.648
 52.570    545.000    548.346     -3.346    496.670    545.537    496.670    499.480    496.670
 52.670    600.000    561.022     38.978    496.693    558.255    496.693    499.459    496.693
 52.770    572.650    584.035    -11.385    496.717    581.302    496.717    499.449    496.717
 52.870    578.596    623.854    -45.257    496.742    621.144    496.742    499.449    496.742
 52.970    727.000    687.541     39.459    496.768    684.846    496.768    499.458    496.768
 53.070    794.000    779.662     14.338    496.796    776.974    496.796    499.476    496.796
 53.170    948.000    897.855     50.145    496.825    895.169    496.825    499.503    496.825
 53.270   1019.024   1028.595     -9.571    496.854   1025.907    496.854    499.539    496.854
 53.370   1114.000   1145.236    -31.236    496.886   1142.544    496.886    499.582    496.886
 53.470   1178.000   1212.824    -34.824    496.918   1210.125    496.918    499.633    496.918
 53.570   1131.000   1205.676    -74.676    496.951   1202.964    496.951    499.691    496.951
 53.670   1073.000   1127.031    -54.031    496.985   1124.295    496.985    499.757    496.985
 53.770   1002.349   1006.017     -3.669    497.021   1003.245    497.021    499.831    497.021
 53.870    834.000    876.722    -42.722    497.057    873.900    497.057    499.912    497.057
 53.970    795.000    763.377     31.623    497.095    760.496    497.095    500.001    497.095
 54.070    659.000    677.201    -18.201    497.134    674.254    497.134    500.098    497.134
 54.170    644.000    618.947     25.053    497.174    615.929    497.174    500.203    497.174
 54.270    556.000    583.313    -27.313    497.215    580.218    497.215    500.316    497.215
 54.370    572.453    563.197      9.256    497.257    560.020    497.257    500.438    497.257
 54.470    602.000    552.452     49.548    497.300    549.184    497.300    500.570    497.300
 54.570    553.000    546.876      6.124    497.344    543.511    497.344    500.711    497.344
 54.670    574.000    544.053     29.947    497.389    540.581    497.389    500.862    497.389
 54.770    586.696    542.768     43.927    497.435    539.180    497.435    501.025    497.435
 54.870    547.000    542.471      4.529    497.482    538.756    497.482    501.199    497.482
 54.970    528.000    542.933    -14.933    497.530    539.079    497.530    501.385    497.530
 55.070    532.385    544.074    -11.689    497.579    540.069    497.579    501.585    497.579
 55.170    571.000    545.887     25.113    497.629    541.717    497.629    501.800    497.629
 55.270    573.836    548.415     25.421    497.681    544.066    497.681    502.030    497.681
 55.370    549.000    551.752     -2.752    497.733    547.208    497.733    502.278    497.733
 55.470    543.781    556.069    -12.288    497.786    551.310    497.786    502.545    497.786
 55.570    594.000    561.686     32.314    497.840    556.693    497.840    502.834    497.840
 55.670    542.000    569.268    -27.268    497.895    564.018    497.895    503.145    497.895
 55.770    600.000    580.247     19.753    497.951    574.715    497.951    503.483    497.951
 55.870    614.154    597.654     16.500    498.007    591.810    498.007    503.849    498.007
 55.970    641.000    627.428     13.572    498.065    621.239    498.065    504.248    498.065
 56.070    649.000    679.949    -30.949    498.124    673.376    498.124    504.684    498.124
 56.170    745.161    770.843    -25.682    498.184    763.843    498.184    505.161    498.184
 56.270    913.590    919.380     -5.790    498.244    911.902    498.244    505.686    498.244
 56.370   1097.000   1142.822    -45.822    498.305   1134.812    498.305    506.264    498.305
 56.470   1406.000   1446.656    -40.656    498.368   1438.057    498.368    506.904    498.368
 56.570   1702.000   1813.350   -111.350    498.431   1804.106    498.431    507.615    498.431
 56.670   2143.000   2194.102    -51.102    498.495   2184.154    498.495    508.409    498.495
 56.770   2495.000   2508.856    -13.856    498.559   2498.137    498.559    509.301    498.559
 56.870   2654.000   2665.652    -11.652    498.625   2654.076    498.625    510.306    498.625
 56.970   2491.000   2609.152   -118.152    498.692   2596.586    498.692    511.447    498.692
 57.070   2297.202   2361.979    -64.777    498.759   2348.229    498.759    512.753    498.759
 57.170   2047.998   2005.614     42.383    498.827   1990.435    498.827    514.260    498.827
 57.270   1587.906   1629.010    -41.104    498.896   1612.108    498.896    516.025    498.896
 57.370   1331.335   1296.384     34.951    498.966   1277.403    498.966    518.128    498.966
 57.470   1028.000   1039.566    -11.566    499.036   1018.035    499.036    520.696    499.036
 57.570    905.000    863.037     41.963    499.107    838.296    499.107    523.933    499.107
 57.670    796.000    754.457     41.543    499.179    725.536    499.179    528.152    499.179
 57.770    776.000    695.762     80.238    499.252    661.213    499.252    533.828    499.252
 57.870    716.000    671.097     44.903    499.326    628.796    499.326    541.640    499.326
 57.970    673.476    670.437      3.039    499.400    617.352    499.400    552.486    499.400
 58.070    682.000    689.788     -7.788    499.475    621.795    499.475    567.459    499.475
 58.170    726.506    729.546     -3.040    499.551    641.351    499.551    587.728    499.551
 58.270    805.000    792.134     12.866    499.627    677.398    499.627    614.334    499.627
 58.370    867.420    879.507    -12.087    499.704    731.275    499.704    647.897    499.704
 58.470    972.000    990.836    -18.836    499.782    802.334    499.782    688.236    499.782
 58.570   1140.000   1120.671     19.329    499.860    886.570    499.860    733.912    499.860
 58.670   1263.610   1257.906      5.703    499.940    976.170    499.940    781.631    499.940
 58.770   1423.000   1386.999     36.001    500.019   1061.343    500.019    825.642    500.019
 58.870   1579.000   1491.260     87.740    500.100   1133.473    500.100    857.872    500.100
 58.970   1582.000   1555.742     26.258    500.181   1185.673    500.181    870.256    500.181
 59.070   1547.805   1569.767    -21.962    500.263   1210.902    500.263    859.155    500.263
 59.170   1570.650   1531.802     38.848    500.345   1204.276    500.345    827.914    500.345
 59.270   1400.000   1453.291    -53.291    500.428   1169.285    500.428    784.480    500.428
 59.370   1344.816   1355.048    -10.233    500.512   1118.607    500.512    736.984    500.512
 59.470   1272.589   1258.791     13.798    500.596   1068.091    500.596    691.301    500.596
 59.570   1186.799   1182.701      4.099    500.680   1032.517    500.680    650.832    500.680
 59.670   1097.513   1142.081    -44.568    500.766   1025.670    500.766    617.099    500.766
 59.770   1087.577   1148.671    -61.094    500.851   1059.058    500.851    590.334    500.851
 59.870   1202.944   1205.900     -2.956    500.938   1136.701    500.938    569.949    500.938
 59.970   1313.000   1304.117      8.883    501.025   1249.981    501.025    554.919    501.025
 60.070   1397.000   1419.128    -22.128    501.112   1375.885    501.112    544.075    501.112
 60.170   1545.000   1514.832     30.168    501.200   1479.418    501.200    536.320    501.200
 60.270   1558.000   1552.748      5.252    501.289   1523.019    501.289    530.747    501.289
 60.370   1559.000   1510.333     48.667    501.378   1484.826    501.378    526.667    501.378
 60.470   1430.864   1394.801     36.063    501.467   1372.516    501.467    523.600    501.467
 60.570   1182.556   1235.871    -53.315    501.557   1216.106    501.557    521.229    501.557
 60.670   1124.000   1067.614     56.386    501.648   1049.859    501.648    519.355    501.648
 60.770    861.218    916.317    -55.099    501.738    900.179    501.738    517.855    501.738
 60.870    767.977    796.557    -28.580    501.830    781.722    501.830    516.657    501.830
 60.970    710.000    712.193     -2.193    501.921    698.394    501.921    515.717    501.921
 61.070    700.000    660.039     39.961    502.014    647.038    502.014    515.009    502.014
 61.170    629.000    634.394     -5.394    502.106    621.975    502.106    514.513    502.106
 61.270    620.000    630.789    -10.789    502.199    618.757    502.199    514.211    502.199
 61.370    669.000    648.039     20.961    502.293    636.218    502.293    514.081    502.293
 61.470    659.174    688.391    -29.217    502.386    676.640    502.386    514.089    502.386
 61.570    790.436    755.964     34.472    502.481    744.188    502.481    514.184    502.481
 61.670    893.000    853.800     39.200    502.575    841.981    502.575    514.292    502.575
 61.770    910.000    980.233    -70.233    502.670    968.450    502.670    514.318    502.670
 61.870   1169.498   1125.639     43.859    502.765   1114.071    502.765    514.169    502.765
 61.970   1307.446   1270.748     36.698    502.861   1259.632    502.861    513.794    502.861
 62.070   1380.365   1387.779     -7.414    502.957   1377.342    502.957    513.213    502.957
 62.170   1489.946   1447.020     42.926    503.053   1437.419    503.053    512.497    503.053
 62.270   1366.000   1430.372    -64.372    503.149   1421.674    503.149    511.733    503.149
 62.370   1352.661   1342.789      9.873    503.246   1334.976    503.246    510.990    503.246
 62.470   1229.423   1208.683     20.741    503.343   1201.682    503.343    510.314    503.343
 62.570   1039.000   1058.060    -19.060    503.441   1051.770    503.441    509.727    503.441
 62.670    910.235    915.647     -5.413    503.538    909.958    503.538    509.238    503.538
 62.770    735.000    796.704    -61.704    503.636    791.512    503.636    508.842    503.636
 62.870    743.069    707.049     36.020    503.734    702.264    503.734    508.531    503.734
 62.970    608.000    645.303    -37.303    503.833    640.852    503.833    508.292    503.833
 63.070    604.000    606.077     -2.077    503.931    601.901    503.931    508.111    503.931
 63.170    570.000    582.914    -12.914    504.030    578.968    504.030    507.976    504.030
 63.270    603.327    570.235     33.093    504.129    566.484    504.129    507.876    504.129
 63.370    609.469    564.176     45.293    504.228    560.595    504.228    507.804    504.228
 63.470    576.000    562.674     13.326    504.327    559.242    504.327    507.752    504.327
 63.570    598.000    565.224     32.776    504.427    561.924    504.427    507.717    504.427
 63.670    579.000    572.597      6.403    504.526    569.415    504.526    507.695    504.526
 63.770    632.000    586.577     45.423    504.626    583.499    504.626    507.684    504.626
 63.870    646.446    609.591     36.855    504.726    606.604    504.726    507.683    504.726
 63.970    657.000    644.101     12.899    504.826    641.193    504.826    507.690    504.826
 64.070    755.000    691.688     63.312    504.926    688.848    504.926    507.705    504.926
 64.170    819.000    751.937     67.063    505.027    749.155    505.027    507.726    505.027
 64.270    900.000    821.392     78.608    505.127    818.661    505.127    507.754    505.127
 64.370    917.000    892.884     24.116    505.228    890.203    505.228    507.787    505.228
 64.470    982.000    955.780     26.220    505.328    953.152    505.328    507.826    505.328
 64.570   1020.000    998.240     21.760    505.429    995.671    505.429    507.869    505.429
 64.670   1016.000   1011.900      4.100    505.529   1009.397    505.529    507.916    505.529
 64.770    992.000    995.675     -3.675    505.630    993.245    505.630    507.968    505.630
 64.870    923.615    955.211    -31.595    505.731    952.854    505.731    508.024    505.731
 64.970    961.190    899.813     61.377    505.831    897.526    505.831    508.083    505.831
 65.070    815.000    839.378    -24.378    505.932    837.153    505.932    508.146    505.932
 65.170    796.000    781.734     14.266    506.033    779.563    506.033    508.211    506.033
 65.270    765.274    731.215     34.059    506.134    729.087    506.134    508.280    506.134
 65.370    705.000    688.997     16.003    506.234    686.904    506.234    508.352    506.234
 65.470    593.000    654.556    -61.556    506.335    652.491    506.335    508.426    506.335
 65.570    630.000    626.978      3.022    506.436    624.932    506.436    508.503    506.436
 65.670    570.000    605.396    -35.396    506.536    603.366    506.536    508.583    506.536
 65.770    591.093    588.981      2.113    506.637    586.964    506.637    508.665    506.637
 65.870    578.000    576.941      1.059    506.737    574.936    506.737    508.749    506.737
 65.970    548.000    568.550    -20.550    506.837    566.554    506.837    508.836    506.837
 66.070    587.630    563.145     24.485    506.938    561.159    506.938    508.925    506.938
 66.170    544.000    560.143    -16.143    507.038    558.165    507.038    509.016    507.038
 66.270    600.176    559.057     41.119    507.138    557.085    507.138    509.109    507.138
 66.370    574.000    559.523     14.477    507.238    557.557    507.238    509.204    507.238
 66.470    551.000    561.349    -10.349    507.338    559.385    507.338    509.301    507.338
 66.570    529.000    564.566    -35.566    507.437    562.603    507.437    509.401    507.437
 66.670    526.000    569.536    -43.536    507.537    567.571    507.537    509.502    507.537
 66.770    562.683    577.145    -14.462    507.636    575.176    507.636    509.606    507.636
 66.870    576.000    589.138    -13.138    507.735    587.161    507.735    509.712    507.735
 66.970    573.000    608.581    -35.581    507.834    606.594    507.834    509.820    507.834
 67.070    626.000    640.378    -14.378    507.933    638.377    507.933    509.930    507.933
 67.170    683.494    691.586     -8.092    508.031    689.566    508.031    510.043    508.031
 67.270    817.001    771.158     45.843    508.130    769.117    508.130    510.157    508.130
 67.370    881.000    888.695     -7.695    508.228    886.631    508.228    510.275    508.228
 67.470   1105.996   1051.945     54.051    508.326   1049.857    508.326    510.394    508.326
 67.570   1246.000   1263.286    -17.286    508.423   1261.178    508.423    510.517    508.423
 67.670   1562.955   1515.965     46.990    508.520   1513.845    508.520    510.642    508.520
 67.770   1863.346   1791.209     72.137    508.617   1789.089    508.617    510.770    508.617
 67.870   2072.000   2057.254     14.746    508.714   2055.147    508.714    510.901    508.714
 67.970   2253.000   2271.787    -18.787    508.811   2269.705    508.811    511.036    508.811
 68.070   2363.000   2390.838    -27.838    508.907   2388.786    508.907    511.173    508.907
 68.170   2410.000   2385.523     24.477    509.003   2383.489    509.003    511.315    509.003
 68.270   2218.000   2257.317    -39.317    509.098   2255.271    509.098    511.461    509.098
 68.370   2104.000   2037.127     66.873    509.194   2035.033    509.194    511.610    509.194
 68.470   1809.000   1769.271     39.729    509.288   1767.094    509.288    511.765    509.288
 68.570   1565.407   1495.353     70.054    509.383   1493.070    509.383    511.924    509.383
 68.670   1295.000   1246.061     48.939    509.477   1243.658    509.477    512.089    509.477
 68.770   1033.000   1039.087     -6.087    509.571   1036.556    509.571    512.260    509.571
 68.870    925.987    880.284     45.703    509.664    877.624    509.664    512.437    509.664
 68.970    768.958    766.680      2.278    509.757    763.892    509.757    512.622    509.757
 69.070    729.000    690.253     38.747    509.850    687.340    509.850    512.814    509.850
 69.170    651.000    641.387      9.613    509.942    638.347    509.942    513.015    509.942
 69.270    587.647    611.255    -23.608    510.034    608.085    510.034    513.225    510.034
 69.370    614.726    592.977     21.749    510.125    589.671    510.125    513.446    510.125
 69.470    608.744    581.805     26.939    510.216    578.352    510.216    513.678    510.216
 69.570    641.000    574.769     66.231    510.307    571.159    510.307    513.924    510.307
 69.670    555.000    570.162    -15.162    510.396    566.380    510.396    514.184    510.396
 69.770    602.309    567.061     35.248    510.486    563.092    510.486    514.459    510.486
 69.870    591.000    564.996     26.004    510.575    560.820    510.575    514.754    510.575
 69.970    560.000    563.732     -3.732    510.664    559.327    510.664    515.070    510.664
 70.070    572.000    563.160      8.840    510.752    558.502    510.752    515.410    510.752
 70.170    586.000    563.247     22.753    510.839    558.308    510.839    515.778    510.839
 70.270    547.000    564.021    -17.021    510.926    558.770    510.926    516.176    510.926
 70.370    554.000    565.593    -11.593    511.013    559.994    511.013    516.610    511.013
 70.470    571.054    568.209      2.846    511.098    562.218    511.098    517.086    511.098
 70.570    606.000    572.347     33.653    511.184    565.915    511.184    517.611    511.184
 70.670    584.186    578.886      5.300    511.269    571.954    511.269    518.193    511.269
 70.770    584.463    589.323     -4.860    511.353    581.820    511.353    518.845    511.353
 70.870    616.656    606.055     10.602    511.437    597.889    511.437    519.584    511.437
 70.970    623.000    632.582     -9.582    511.520    623.640    511.520    520.435    511.520
 71.070    582.000    673.560    -91.560    511.602    663.685    511.602    521.436    511.602
 71.170    700.000    734.464    -34.464    511.684    723.441    511.684    522.647    511.684
 71.270    789.000    820.720    -31.720    511.765    808.240    511.765    524.161    511.765
 71.370    951.000    936.264     14.736    511.846    921.878    511.846    526.118    511.846
 71.470   1091.000   1081.710      9.290    511.926   1064.762    511.926    528.729    511.926
 71.570   1231.000   1252.528    -21.528    512.005   1232.070    512.005    532.288    512.005
 71.670   1450.000   1437.740     12.260    512.084   1412.437    512.084    537.188    512.084
 71.770   1661.662   1619.557     42.105    512.162   1587.589    512.162    543.918    512.162
 71.870   1764.372   1774.562    -10.190    512.239   1733.556    512.239    553.037    512.239
 71.970   1959.639   1877.724     81.914    512.316   1824.740    512.316    565.112    512.316
 72.070   1894.901   1910.283    -15.382    512.392   1841.898    512.392    580.625    512.392
 72.170   1898.000   1868.457     29.543    512.467   1780.967    512.467    599.845    512.467
 72.270   1732.075   1765.584    -33.509    512.542   1655.369    512.542    622.684    512.542
 72.370   1685.000   1625.208     59.792    512.616   1489.229    512.616    648.552    512.616
 72.470   1427.745   1471.607    -43.862    512.689   1308.062    512.689    676.212    512.689
 72.570   1340.716   1323.803     16.913    512.761   1132.899    512.761    703.658    512.761
 72.670   1194.000   1193.322      0.678    512.833    978.088    512.833    728.065    512.833
 72.770   1111.000   1084.267     26.733    512.904    851.131    512.904    746.041    512.904
 72.870   1023.531    995.102     28.429    512.974    753.648    512.974    754.430    512.974
 72.970    864.482    921.569    -57.087    513.043    683.062    513.043    751.552    513.043
 73.070    813.262    859.425    -46.163    513.112    634.501    513.112    738.038    513.112
 73.170    860.480    805.763     54.718    513.180    602.460    513.180    716.483    513.180
 73.270    704.000    758.976    -54.976    513.247    581.939    513.247    690.285    513.247
 73.370    684.086    718.271    -34.185    513.313    568.998    513.313    662.588    513.313
 73.470    677.986    683.282     -5.296    513.378    560.865    513.378    635.797    513.378
 73.570    609.000    653.842    -44.842    513.443    555.774    513.443    611.514    513.443
 73.670    612.000    629.815    -17.815    513.506    552.699    513.506    590.627    513.506
 73.770    611.993    610.972      1.021    513.569    551.096    513.569    573.453    513.569
 73.870    590.000    596.927     -6.927    513.631    550.689    513.631    559.879    513.631
 73.970    603.191    587.122     16.069    513.692    551.317    513.692    549.511    513.692
 74.070    572.000    580.862     -8.862    513.753    552.822    513.753    541.812    513.753
 74.170    614.000    577.357     36.643    513.812    554.984    513.812    536.209    513.812
 74.270    601.000    575.760     25.240    513.870    557.485    513.870    532.176    513.870
 74.370    635.000    575.205     59.795    513.928    559.898    513.928    529.271    513.928
 74.470    636.000    574.852     61.148    513.985    561.726    513.985    527.152    513.985
 74.570    636.000    573.974     62.026    514.041    562.489    514.041    525.570    514.041
 74.670    555.183    572.099    -16.916    514.096    561.885    514.096    524.354    514.096
 74.770    604.668    569.123     35.545    514.149    559.928    514.149    523.388    514.149
 74.870    614.000    565.299     48.701    514.203    556.942    514.203    522.597    514.203
 74.970    600.000    561.089     38.911    514.255    553.441    514.255    521.936    514.255
 75.070    607.000    557.019     49.981    514.306    549.979    514.306    521.372    514.306
 75.170    611.000    553.598     57.402    514.356    547.089    514.356    520.885    514.356
 75.270    606.000    551.306     54.694    514.405    545.264    514.405    520.461    514.405
 75.370    605.000    550.612     54.388    514.453    544.984    514.453    520.089    514.453
 75.470    542.000    552.002    -10.002    514.501    546.743    514.501    519.761    514.501
 75.570    553.000    555.989     -2.989    514.547    551.060    514.547    519.472    514.547
 75.670    575.000    563.090     11.910    514.592    558.457    514.592    519.215    514.592
 75.770    542.000    573.744    -31.744    514.636    569.377    514.636    518.987    514.636
 75.870    576.000    588.180    -12.180    514.680    584.052    514.680    518.783    514.680
 75.970    573.509    606.244    -32.734    514.722    602.331    514.722    518.601    514.722
 76.070    630.000    627.238      2.762    514.763    623.521    514.763    518.438    514.763
 76.170    669.000    649.811     19.189    514.803    646.272    514.803    518.292    514.803
 76.270    694.000    671.925     22.075    514.843    668.549    514.843    518.160    514.843
 76.370    718.934    690.957     27.978    514.881    687.732    514.881    518.042    514.881
 76.470    713.000    704.030      8.970    514.918    700.948    514.918    517.935    514.918
 76.570    663.238    708.729    -45.491    514.954    705.782    514.954    517.838    514.954
 76.670    755.918    704.043     51.875    514.989    701.225    514.989    517.751    514.989
 76.770    728.587    690.862     37.725    515.022    688.165    515.022    517.671    515.022
 76.870    638.000    671.527    -33.527    515.055    668.944    515.055    517.599    515.055
 76.970    603.000    648.893    -45.893    515.087    646.417    515.087    517.533    515.087
 77.070    606.000    625.592    -19.592    515.117    623.213    515.117    517.473    515.117
 77.170    588.000    603.671    -15.671    515.147    601.383    515.147    517.419    515.147
 77.270    559.491    584.483    -24.993    515.175    582.279    515.175    517.369    515.175
 77.370    542.000    568.703    -26.703    515.202    566.575    515.202    517.323    515.202
 77.470    562.635    556.428      6.208    515.228    554.371    515.228    517.281    515.228
 77.570    559.000    547.346     11.654    515.253    545.355    515.253    517.242    515.253
 77.670    548.957    540.917      8.039    515.277    538.986    515.277    517.206    515.277
 77.770    497.000    536.529    -39.529    515.300    534.655    515.300    517.173    515.300
 77.870    525.000    533.612     -8.612    515.321    531.790    515.321    517.142    515.321
 77.970    521.000    531.699    -10.699    515.342    529.926    515.342    517.114    515.342
 78.070    570.768    530.441     40.327    515.361    528.713    515.361    517.087    515.361
 78.170    529.000    529.599     -0.599    515.379    527.915    515.379    517.062    515.379
 78.270    555.947    529.021     26.926    515.396    527.377    515.396    517.039    515.396
 78.370    532.875    528.620      4.255    515.411    527.013    515.411    517.017    515.411
 78.470    539.000    528.343     10.657    515.426    526.771    515.426    516.997    515.426
 78.570    520.000    528.150     -8.150    515.439    526.611    515.439    516.978    515.439
 78.670    487.000    528.050    -41.050    515.451    526.541    515.451    516.960    515.451
 78.770    529.094    528.085      1.009    515.462    526.603    515.462    516.943    515.462
 78.870    538.000    528.250      9.750    515.472    526.792    515.472    516.929    515.472
 78.970    544.000    528.566     15.434    515.480    527.130    515.480    516.916    515.480
 79.070    552.000    529.066     22.934    515.487    527.648    515.487    516.905    515.487
 79.170    482.000    529.784    -47.784    515.493    528.378    515.493    516.897    515.493
 79.270    483.000    530.751    -47.751    515.498    529.354    515.498    516.893    515.498
 79.370    513.000    531.997    -18.997    515.501    530.603    515.501    516.893    515.501
 79.470    505.000    533.551    -28.551    515.504    532.153    515.504    516.898    515.504
 79.570    556.000    535.445     20.555    515.505    534.036    515.505    516.909    515.505
 79.670    555.000    537.730     17.270    515.504    536.302    515.504    516.928    515.504
 79.770    549.000    540.491      8.509    515.503    539.035    515.503    516.954    515.503
 79.870    557.000    543.870     13.130    515.500    542.377    515.500    516.987    515.500
 79.970    586.963    548.093     38.870    515.496    546.555    515.496    517.028    515.496
 80.070    533.000    553.498    -20.498    515.491    551.908    515.491    517.075    515.491
 80.170    526.000    560.531    -34.531    515.484    558.886    515.484    517.126    515.484
 80.270    601.484    569.699     31.785    515.476    567.997    515.476    517.178    515.476
 80.370    597.000    581.467     15.533    515.467    579.710    515.467    517.226    515.467
 80.470    626.000    596.132     29.868    515.456    594.329    515.456    517.265    515.456
 80.570    619.000    613.712      5.288    515.445    611.879    515.445    517.287    515.445
 80.670    599.000    633.855    -34.855    515.431    632.013    515.431    517.287    515.431
 80.770    626.000    655.792    -29.792    515.417    653.967    515.417    517.262    515.417
 80.870    660.149    678.363    -18.214    515.401    676.580    515.401    517.211    515.401
 80.970    712.777    700.139     12.637    515.384    698.419    515.384    517.137    515.384
 81.070    702.077    719.640    -17.563    515.366    717.998    515.366    517.047    515.366
 81.170    748.000    735.529     12.471    515.346    733.974    515.346    516.948    515.346
 81.270    718.000    746.743    -28.743    515.325    745.278    515.325    516.844    515.325
 81.370    798.741    752.575     46.167    515.303    751.196    515.303    516.740    515.303
 81.470    777.164    752.755     24.408    515.279    751.458    515.279    516.640    515.279
 81.570    744.000    747.472     -3.472    515.254    746.247    515.254    516.545    515.254
 81.670    739.000    737.298      1.702    515.227    736.136    515.227    516.458    515.227
 81.770    760.396    723.148     37.248    515.199    722.039    515.199    516.377    515.199
 81.870    733.000    706.236     26.764    515.170    705.170    515.170    516.303    515.170
 81.970    662.831    687.906    -25.075    515.140    686.875    515.140    516.236    515.140
 82.070    676.000    669.363      6.637    515.108    668.359    515.108    516.173    515.108
 82.170    628.168    651.453    -23.284    515.075    650.470    515.075    516.116    515.075
 82.270    628.000    634.623     -6.623    515.040    633.656    515.040    516.061    515.040
 82.370    681.000    619.039     61.961    515.004    618.084    515.004    516.009    515.004
 82.470    613.000    604.770      8.230    514.967    603.823    514.967    515.959    514.967
 82.570    592.989    591.912      1.077    514.928    590.969    514.928    515.909    514.928
 82.670    534.000    580.620    -46.620    514.888    579.680    514.888    515.860    514.888
 82.770    562.187    571.069     -8.882    514.846    570.130    514.846    515.811    514.846
 82.870    534.000    563.416    -29.416    514.803    562.476    514.803    515.762    514.803
 82.970    573.000    557.779     15.221    514.759    556.837    514.759    515.712    514.759
 83.070    550.000    554.227     -4.227    514.713    553.282    514.713    515.662    514.713
 83.170    533.000    552.756    -19.756    514.666    551.807    514.666    515.611    514.666
 83.270    571.000    553.273     17.727    514.617    552.320    514.617    515.559    514.617
 83.370    531.434    555.570    -24.136    514.568    554.612    514.568    515.507    514.568
 83.470    531.303    559.315    -28.012    514.516    558.352    514.516    515.453    514.516
 83.570    547.103    564.047    -16.944    514.463    563.080    514.463    515.398    514.463
 83.670    596.000    569.192     26.808    514.409    568.221    514.409    515.343    514.409
 83.770    565.000    574.087     -9.087    514.354    573.111    514.354    515.286    514.354
 83.870    577.682    578.031     -0.350    514.297    577.053    514.297    515.229    514.297
 83.970    551.000    580.382    -29.382    514.238    579.403    514.238    515.170    514.238
 84.070    583.000    580.687      2.313    514.178    579.709    514.178    515.110    514.178
 84.170    542.000    578.811    -36.811    514.117    577.835    514.117    515.050    514.117
 84.270    547.947    574.969    -27.022    514.055    573.996    514.055    514.988    514.055
 84.370    571.000    569.641      1.359    513.990    568.672    513.990    514.925    513.990
 84.470    570.000    563.419      6.581    513.925    562.454    513.925    514.861    513.925
 84.570    549.000    556.882     -7.882    513.858    555.920    513.858    514.796    513.858
 84.670    556.000    550.520      5.480    513.790    549.561    513.790    514.730    513.790
 84.770    514.879    544.704    -29.825    513.720    543.746    513.720    514.663    513.720
 84.870    536.000    539.668     -3.668    513.649    538.711    513.649    514.595    513.649
 84.970    512.000    535.521    -23.521    513.576    534.563    513.576    514.525    513.576
 85.070    510.000    532.266    -22.266    513.502    531.306    513.502    514.455    513.502
 85.170    530.238    529.834      0.404    513.426    528.871    513.426    514.383    513.426
 85.270    540.297    528.112     12.184    513.349    527.146    513.349    514.311    513.349
 85.370    541.000    526.978     14.022    513.271    526.008    513.271    514.237    513.271
 85.470    511.000    526.320    -15.320    513.191    525.344    513.191    514.162    513.191
 85.570    468.000    526.051    -58.051    513.110    525.070    513.110    514.086    513.110
 85.670    493.340    526.124    -32.783    513.027    525.136    513.027    514.009    513.027
 85.770    554.000    526.530     27.470    512.943    525.535    512.943    513.931    512.943
 85.870    508.000    527.305    -19.305    512.857    526.303    512.857    513.852    512.857
 85.970    538.068    528.530      9.538    512.770    527.519    512.770    513.772    512.770
 86.070    529.010    530.326     -1.316    512.682    529.305    512.682    513.691    512.682
 86.170    537.000    532.853      4.147    512.592    531.821    512.592    513.609    512.592
 86.270    558.000    536.295     21.705    512.500    535.250    512.500    513.525    512.500
 86.370    508.000    540.842    -32.842    512.407    539.783    512.407    513.441    512.407
 86.470    587.000    546.664     40.336    512.313    545.588    512.313    513.356    512.313
 86.570    531.000    553.869    -22.869    512.218    552.775    512.218    513.270    512.218
 86.670    555.000    562.468     -7.468    512.120    561.353    512.120    513.183    512.120
 86.770    560.000    572.319    -12.319    512.022    571.182    512.022    513.095    512.022
 86.870    575.000    583.134     -8.134    511.922    581.974    511.922    513.006    511.922
 86.970    585.000    594.426     -9.426    511.820    593.242    511.820    512.916    511.820
 87.070    619.000    605.503     13.497    511.717    604.296    511.717    512.826    511.717
 87.170    648.000    615.526     32.474    511.613    614.297    511.613    512.734    511.613
 87.270    659.000    623.574     35.426    511.507    622.327    511.507    512.642    511.507
 87.370    655.526    628.792     26.734    511.400    627.529    511.400    512.549    511.400
 87.470    683.076    630.583     52.493    511.292    629.307    511.292    512.455    511.292
 87.570    662.129    628.789     33.340    511.182    627.505    511.182    512.361    511.182
 87.670    658.000    623.736     34.264    511.070    622.446    511.070    512.266    511.070
 87.770    691.000    616.133     74.867    510.957    614.838    510.957    512.170    510.957
 87.870    562.522    606.892    -44.370    510.843    605.592    510.843    512.074    510.843
 87.970    582.000    596.981    -14.981    510.727    595.675    510.727    511.977    510.727
 88.070    594.268    587.314      6.954    510.610    586.002    510.610    511.880    510.610
 88.170    597.000    578.689     18.311    510.491    577.367    510.491    511.783    510.491
 88.270    612.000    571.730     40.270    510.371    570.397    510.371    511.685    510.371
 88.370    523.361    566.873    -43.512    510.250    565.526    510.250    511.587    510.250
 88.470    606.000    564.349     41.651    510.127    562.986    510.127    511.488    510.127
 88.570    595.000    564.192     30.808    510.003    562.811    510.003    511.390    510.003
 88.670    623.000    566.250     56.750    509.877    564.849    509.877    511.292    509.877
 88.770    611.685    570.201     41.484    509.750    568.779    509.750    511.194    509.750
 88.870    618.386    575.576     42.810    509.622    574.131    509.622    511.096    509.622
 88.970    594.000    581.779     12.221    509.492    580.310    509.492    510.998    509.492
 89.070    664.000    588.123     75.877    509.361    586.627    509.361    510.901    509.361
 89.170    618.000    593.861     24.139    509.228    592.335    509.228    510.805    509.228
 89.270    603.000    598.256      4.744    509.094    596.698    509.094    510.709    509.094
 89.370    600.711    600.674      0.037    508.959    599.079    508.959    510.615    508.959
 89.470    597.562    600.710     -3.148    508.822    599.073    508.822    510.522    508.822
 89.570    584.842    598.279    -13.436    508.684    596.596    508.684    510.430    508.684
 89.670    598.000    593.630      4.370    508.544    591.895    508.544    510.341    508.544
 89.770    557.660    587.255    -29.595    508.403    585.463    508.403    510.253    508.403
 89.870    547.000    579.760    -32.760    508.261    577.905    508.261    510.168    508.261
 89.970    574.000    571.753      2.247    508.117    569.831    508.117    510.085    508.117
 90.070    541.000    563.773    -22.773    507.972    561.778    507.972    510.006    507.972
 90.170    531.775    556.251    -24.476    507.826    554.177    507.826    509.931    507.826
 90.270    567.623    549.495     18.128    507.678    547.338    507.678    509.861    507.678
 90.370    556.000    543.693     12.307    507.529    541.446    507.529    509.796    507.529
 90.470    491.000    538.919    -47.919    507.379    536.575    507.379    509.738    507.379
 90.570    518.022    535.158    -17.136    507.227    532.708    507.227    509.688    507.227
 90.670    525.000    532.333     -7.333    507.074    529.767    507.074    509.648    507.074
 90.770    544.150    530.331     13.819    506.919    527.634    506.919    509.621    506.919
 90.870    531.000    529.027      1.973    506.764    526.184    506.764    509.610    506.764
 90.970    497.000    528.310    -31.310    506.607    525.299    506.607    509.620    506.607
 91.070    508.000    528.093    -20.093    506.448    524.884    506.448    509.657    506.448
 91.170    536.914    528.322      8.592    506.288    524.879    506.288    509.731    506.288
 91.270    555.000    528.985     26.015    506.127    525.260    506.127    509.851    506.127
 91.370    541.000    530.081     10.919    505.965    526.012    505.965    510.032    505.965
 91.470    551.734    531.760     19.974    505.802    527.268    505.802    510.290    505.802
 91.570    555.000    534.143     20.857    505.637    529.128    505.637    510.646    505.637
 91.670    545.213    537.389      7.824    505.471    531.728    505.471    511.125    505.471
 91.770    509.000    541.711    -32.711    505.303    535.253    505.303    511.752    505.303
 91.870    539.000    547.353     -8.353    505.135    539.918    505.135    512.557    505.135
 91.970    509.092    554.575    -45.483    504.965    545.954    504.965    513.569    504.965
 92.070    562.000    563.622     -1.622    504.793    553.577    504.793    514.818    504.793
 92.170    534.000    574.704    -40.704    504.621    562.970    504.621    516.328    504.621
 92.270    561.000    587.960    -26.960    504.447    574.257    504.447    518.117    504.447
 92.370    628.671    603.432     25.238    504.272    587.473    504.272    520.193    504.272
 92.470    654.478    621.036     33.442    504.096    602.535    504.096    522.551    504.096
 92.570    595.000    640.536    -45.536    503.919    619.232    503.919    525.169    503.919
 92.670    707.000    661.529     45.471    503.740    637.203    503.740    528.005    503.740
 92.770    691.319    683.444      7.876    503.560    655.942    503.560    530.996    503.560
 92.870    693.000    705.557    -12.557    503.380    674.815    503.380    534.049    503.380
 92.970    720.000    727.043     -7.043    503.197    693.119    503.197    537.044    503.197
 93.070    788.000    747.079     40.921    503.014    710.182    503.014    539.833    503.014
 93.170    776.000    764.979     11.021    502.829    725.492    502.829    542.237    502.829
 93.270    777.116    780.324     -3.208    502.644    738.818    502.644    544.070    502.644
 93.370    790.000    793.000     -3.000    502.457    750.217    502.457    545.161    502.457
 93.470    859.542    803.146     56.395    502.269    759.951    502.269    545.388    502.269
 93.570    864.000    811.089     52.911    502.080    768.384    502.080    544.711    502.080
 93.670    870.000    817.271     52.729    501.889    775.907    501.889    543.183    501.889
 93.770    792.192    822.236    -30.045    501.698    782.932    501.698    540.934    501.698
 93.870    864.000    826.637     37.363    501.506    789.936    501.506    538.140    501.506
 93.970    796.158    831.212    -35.054    501.312    797.471    501.312    534.989    501.312
 94.070    809.140    836.685    -27.544    501.117    806.085    501.117    531.655    501.117
 94.170    854.000    843.589     10.411    500.921    816.167    500.921    528.283    500.921
 94.270    925.000    852.087     72.913    500.724    827.764    500.724    524.989    500.724
 94.370    878.000    861.857     16.143    500.526    840.466    500.526    521.862    500.526
 94.470    884.000    872.066     11.934    500.327    853.380    500.327    518.961    500.327
 94.570    926.685    881.429     45.255    500.127    865.184    500.127    516.326    500.127
 94.670    930.866    888.360     42.506    499.926    874.269    499.926    513.975    499.926
 94.770    951.000    891.192     59.808    499.724    878.969    499.724    511.913    499.724
 94.870    901.000    888.502     12.498    499.521    877.868    499.521    510.129    499.521
 94.970    893.000    879.444     13.556    499.317    870.140    499.317    508.605    499.317
 95.070    868.000    863.983      4.017    499.111    855.772    499.111    507.315    499.111
 95.170    888.000    842.911     45.089    498.905    835.586    498.905    506.231    498.905
 95.270    762.617    817.668    -55.051    498.698    811.049    498.698    505.322    498.698
 95.370    851.000    790.073     60.927    498.490    784.010    498.490    504.562    498.490
 95.470    815.323    762.084     53.239    498.281    756.454    498.281    503.922    498.281
 95.570    733.000    735.632     -2.632    498.071    730.333    498.071    503.380    498.071
 95.670    785.000    712.514     72.486    497.860    707.466    497.860    502.917    497.860
 95.770    720.000    694.331     25.669    497.648    689.469    497.648    502.515    497.648
 95.870    648.906    682.516    -33.609    497.435    677.790    497.435    502.161    497.435
 95.970    706.000    678.255     27.745    497.221    673.623    497.221    501.846    497.221
 96.070    667.182    682.532    -15.350    497.007    677.961    497.007    501.562    497.007
 96.170    676.855    696.138    -19.284    496.791    691.602    496.791    501.303    496.791
 96.270    725.000    719.664      5.336    496.575    715.138    496.575    501.065    496.575
 96.370    731.000    753.440    -22.440    496.358    748.907    496.358    500.844    496.358
 96.470    751.045    797.482    -46.437    496.140    792.924    496.140    500.639    496.140
 96.570    832.000    851.384    -19.384    495.921    846.786    495.921    500.448    495.921
 96.670    935.020    914.220     20.800    495.701    909.568    495.701    500.271    495.701
 96.770    952.000    984.443    -32.443    495.481    979.726    495.481    500.107    495.481
 96.870   1012.000   1059.830    -47.830    495.259   1055.035    495.259    499.955    495.259
 96.970   1117.807   1137.454    -19.646    495.037   1132.571    495.037    499.816    495.037
 97.070   1214.521   1213.726      0.795    494.814   1208.746    494.814    499.690    494.814
 97.170   1311.000   1284.515     26.485    494.591   1279.428    494.591    499.578    494.591
 97.270   1394.000   1345.389     48.611    494.366   1340.185    494.366    499.479    494.366
 97.370   1438.000   1392.038     45.962    494.141   1386.708    494.141    499.393    494.141
 97.470   1486.000   1420.882     65.118    493.915   1415.413    493.915    499.325    493.915
 97.570   1425.000   1429.726     -4.726    493.689   1424.101    493.689    499.276    493.689
 97.670   1428.000   1418.201      9.799    493.462   1412.401    493.462    499.246    493.462
 97.770   1453.000   1387.791     65.209    493.234   1381.791    493.234    499.238    493.234
 97.870   1326.000   1341.435    -15.435    493.006   1335.207    493.006    499.256    493.006
 97.970   1263.000   1282.941    -19.941    492.776   1276.451    492.776    499.303    492.776
 98.070   1242.000   1216.458     25.542    492.547   1209.666    492.547    499.386    492.547
 98.170   1138.000   1146.094     -8.094    492.316   1138.952    492.316    499.512    492.316
 98.270   1063.000   1075.673    -12.673    492.085   1068.122    492.085    499.692    492.085
 98.370   1034.769   1008.589     26.180    491.854   1000.558    491.854    499.939    491.854
 98.470    890.957    947.735    -56.778    491.622    939.136    491.622    500.270    491.622
 98.570    891.000    895.484     -4.484    491.389    886.206    491.389    500.709    491.389
 98.670    862.000    853.711      8.289    491.156    843.616    491.156    501.285    491.156
 98.770    876.941    823.847     53.094    490.922    812.759    490.922    502.034    490.922
 98.870    764.000    806.952    -42.952    490.688    794.652    490.688    503.002    490.688
 98.970    798.000    803.789     -5.789    490.453    790.004    490.453    504.243    490.453
 99.070    767.000    814.891    -47.891    490.218    799.284    490.218    505.820    490.218
 99.170    811.000    840.588    -29.588    489.982    822.752    489.982    507.807    489.982
 99.270    847.000    881.007    -34.007    489.746    860.451    489.746    510.283    489.746
 99.370    979.079    936.010     43.069    489.510    912.160    489.510    513.336    489.510
 99.470   1007.950   1005.171      2.779    489.273    977.364    489.273    517.052    489.273
 99.570   1129.520   1087.620     41.900    489.035   1055.110    489.035    521.518    489.035
 99.670   1214.468   1181.956     32.513    488.798   1143.919    488.798    526.810    488.798
 99.770   1286.000   1286.167     -0.167    488.560   1241.721    488.560    532.987    488.560
 99.870   1410.000   1397.558     12.442    488.321   1345.784    488.321    540.088    488.321
 99.970   1506.000   1512.735     -6.735    488.083   1452.708    488.083    548.118    488.083
100.070   1691.000   1627.670     63.330    487.844   1558.500    487.844    557.041    487.844
100.170   1685.024   1737.908    -52.884    487.604   1658.785    487.604    566.777    487.604
100.270   1926.218   1838.898     87.320    487.365   1749.147    487.365    577.190    487.365
100.370   1958.000   1926.413     31.587    487.125   1825.556    487.125    588.083    487.125
100.470   2157.000   1996.905    160.095    486.885   1884.723    486.885    599.194    486.885
100.570   2018.080   2047.668    -29.589    486.645   1924.275    486.645    610.190    486.645
100.670   2051.912   2076.820    -24.907    486.404   1942.734    486.404    620.664    486.404
100.770   2021.000   2083.244    -62.244    486.164   1939.455    486.164    630.145    486.164
100.870   2078.000   2066.682     11.318    485.923   1914.689    485.923    638.122    485.923
100.970   2124.000   2027.987     96.013    485.682   1869.797    485.682    644.086    485.682
101.070   2019.000   1969.371     49.629    485.441   1807.430    485.441    647.600    485.441
101.170   1933.000   1894.430     38.570    485.200   1731.472    485.200    648.374    485.200
101.270   1835.925   1807.820     28.104    484.959   1646.661    484.959    646.327    484.959
101.370   1657.000   1714.703    -57.703    484.718   1558.015    484.718    641.603    484.718
101.470   1568.000   1620.149    -52.149    484.476   1470.265    484.476    634.542    484.476
101.570   1545.848   1528.656     17.193    484.235   1387.446    484.235    625.611    484.235
101.670   1484.615   1443.834     40.781    483.994   1312.651    483.994    615.326    483.994
101.770   1378.000   1368.242      9.758    483.752   1247.937    483.752    604.191    483.752
101.870   1292.027   1303.339    -11.312    483.511   1194.309    483.511    592.660    483.511
101.970   1182.185   1249.520    -67.335    483.270   1151.778    483.270    581.118    483.270
102.070   1143.731   1206.205    -62.473    483.029   1119.450    483.029    569.879    483.029
102.170   1113.000   1171.982    -58.982    482.788   1095.673    482.788    559.184    482.788
102.270   1087.000   1144.792    -57.792    482.547   1078.209    482.547    549.213    482.547
102.370   1111.833   1122.154    -10.321    482.306   1064.456    482.306    540.084    482.306
102.470   1160.646   1101.443     59.203    482.066   1051.724    482.066    531.864    482.066
102.570   1063.000   1080.212    -17.212    481.825   1037.541    481.825    524.576    481.825
102.670   1074.471   1056.506     17.965    481.585   1019.969    481.585    518.204    481.585
102.770   1020.000   1029.096     -9.096    481.345    997.822    481.345    512.703    481.345
102.870    976.140    997.560    -21.420    481.106    970.742    481.106    508.007    481.106
102.970    941.000    962.188    -21.188    480.866    939.099    480.866    504.037    480.866
103.070    960.641    923.787     36.854    480.627    903.787    480.627    500.707    480.627
103.170    897.000    883.452     13.548    480.389    865.989    480.389    497.928    480.389
103.270    828.000    842.383    -14.383    480.150    826.990    480.150    495.615    480.150
103.370    832.969    801.748     31.221    479.912    788.036    479.912    493.690    479.912
103.470    741.000    762.597    -21.597    479.675    750.248    479.675    492.082    479.675
103.570    797.000    725.807     71.193    479.437    714.564    479.437    490.732    479.437
103.670    681.000    692.044    -11.044    479.201    681.704    479.201    489.586    479.201
103.770    692.000    661.756     30.244    478.964    652.156    478.964    488.603    478.964
103.870    585.187    635.173    -49.987    478.729    626.186    478.729    487.749    478.729
103.970    640.692    612.328     28.363    478.493    603.853    478.493    486.995    478.493
104.070    647.000    593.089     53.911    478.259    585.048    478.259    486.321    478.259
104.170    608.000    577.203     30.797    478.024    569.534    478.024    485.710    478.024
104.270    573.000    564.330      8.670    477.791    556.983    477.791    485.150    477.791
104.370    565.000    554.101     10.899    477.558    547.037    477.558    484.632    477.558
104.470    528.000    546.128    -18.128    477.325    539.314    477.325    484.147    477.325
104.570    533.000    540.040     -7.040    477.094    533.448    477.094    483.691    477.094
104.670    537.000    535.507      1.493    476.863    529.112    476.863    483.260    476.863
104.770    584.000    532.246     51.754    476.633    526.028    476.633    482.851    476.633
104.870    569.459    530.032     39.427    476.403    523.974    476.403    482.460    476.403
104.970    547.675    528.695     18.980    476.174    522.780    476.174    482.087    476.174
105.070    510.000    528.117    -18.117    475.946    522.330    475.946    481.729    475.946
105.170    543.000    528.231     14.769    475.719    522.560    475.719    481.386    475.719
105.270    532.000    529.019      2.981    475.493    523.449    475.493    481.056    475.493
105.370    559.949    530.499     29.450    475.267    525.020    475.267    480.738    475.267
105.470    556.000    532.726     23.274    475.043    527.327    475.043    480.432    475.043
105.570    563.000    535.784     27.216    474.819    530.454    474.819    480.137    474.819
105.670    542.000    539.770      2.230    474.596    534.501    474.596    479.852    474.596
105.770    497.000    544.791    -47.791    474.375    539.573    474.375    479.576    474.375
105.870    573.000    550.942     22.058    474.154    545.767    474.154    479.311    474.154
105.970    566.000    558.294      7.706    473.934    553.153    473.934    479.054    473.934
106.070    570.000    566.878      3.122    473.716    561.763    473.716    478.805    473.716
106.170    624.132    576.672     47.460    473.498    571.576    473.498    478.565    473.498
106.270    631.000    587.592     43.408    473.282    582.508    473.282    478.334    473.282
106.370    572.000    599.486    -27.486    473.067    594.408    473.067    478.110    473.067
106.470    601.000    612.129    -11.129    472.853    607.049    472.853    477.893    472.853
106.570    630.000    625.226      4.774    472.640    620.139    472.640    477.685    472.640
106.670    674.942    638.421     36.520    472.428    633.321    472.428    477.484    472.428
106.770    614.000    651.307    -37.307    472.218    646.188    472.218    477.290    472.218
106.870    653.000    663.442    -10.442    472.009    658.300    472.009    477.104    472.009
106.970    648.000    674.381    -26.381    471.801    669.210    471.801    476.925    471.801
107.070    680.000    683.715     -3.715    471.595    678.510    471.595    476.754    471.595
107.170    651.840    691.119    -39.278    471.390    685.875    471.390    476.590    471.390
107.270    675.000    696.408    -21.408    471.186    691.120    471.186    476.433    471.186
107.370    681.000    699.579    -18.579    470.984    694.242    470.984    476.284    470.984
107.470    752.261    700.819     51.442    470.783    695.427    470.783    476.142    470.783
107.570    680.000    700.476    -20.476    470.584    695.022    470.584    476.009    470.584
107.670    661.000    699.001    -38.001    470.387    693.480    470.387    475.883    470.387
107.770    647.000    696.879    -49.879    470.190    691.283    470.190    475.766    470.190
107.870    686.000    694.566     -8.566    469.996    688.889    469.996    475.656    469.996
107.970    697.000    692.446      4.554    469.803    686.682    469.803    475.556    469.803
108.070    645.000    690.797    -45.797    469.612    684.937    469.612    475.464    469.612
108.170    724.925    689.771     35.154    469.422    683.808    469.422    475.381    469.422
108.270    667.000    689.388    -22.388    469.235    683.315    469.235    475.308    469.235
108.370    677.000    689.539    -12.539    469.049    683.346    469.049    475.245    469.049
108.470    736.045    689.988     46.057    468.865    683.668    468.865    475.191    468.865
108.570    669.750    690.400    -20.650    468.682    683.944    468.682    475.149    468.682
108.670    663.000    690.370    -27.370    468.502    683.768    468.502    475.117    468.502
108.770    719.000    689.469     29.531    468.323    682.711    468.323    475.097    468.323
108.870    648.000    687.300    -39.300    468.146    680.376    468.146    475.089    468.146
108.970    691.738    683.563      8.175    467.972    676.461    467.972    475.094    467.972
109.070    715.000    678.096     36.904    467.799    670.804    467.799    475.112    467.799
109.170    660.000    670.897    -10.897    467.628    663.403    467.628    475.145    467.628
109.270    669.000    662.117      6.883    467.459    654.408    467.459    475.192    467.459
109.370    652.000    652.020     -0.020    467.293    644.081    467.293    475.255    467.293
109.470    678.000    640.945     37.055    467.128    632.760    467.128    475.336    467.128
109.570    616.000    629.256    -13.256    466.966    620.810    466.966    475.433    466.966
109.670    613.000    617.317     -4.317    466.806    608.597    466.806    475.546    466.806
109.770    645.902    605.477     40.424    466.648    596.460    466.648    475.684    466.648
109.870    612.000    594.017     17.983    466.492    584.681    466.492    475.845    466.492
109.970    581.000    583.223     -2.223    466.339    573.546    466.339    476.030    466.339
110.070    553.000    573.318    -20.318    466.188    563.275    466.188    476.243    466.188
110.170    558.000    564.433     -6.433    466.039    553.997    466.039    476.486    466.039
110.270    579.000    556.660     22.340    465.893    545.800    465.893    476.762    465.893
110.370    557.000    550.045      6.955    465.749    538.725    465.749    477.076    465.749
110.470    554.000    544.587      9.413    465.608    532.767    465.608    477.433    465.608
110.570    579.000    540.252     38.748    465.469    527.884    465.469    477.840    465.469
110.670    513.623    536.975    -23.352    465.333    524.005    465.333    478.304    465.333
110.770    535.267    534.668      0.599    465.200    521.040    465.200    478.828    465.200
110.870    575.000    533.262     41.738    465.069    518.887    465.069    479.442    465.069
110.970    549.000    532.657     16.343    464.940    517.440    464.940    480.155    464.940
111.070    561.860    532.769     29.091    464.815    516.594    464.815    480.986    464.815
111.170    542.000    533.522      8.478    464.692    516.252    464.692    481.958    464.692
111.270    522.565    534.856    -12.292    464.572    516.322    464.572    483.100    464.572
111.370    574.000    536.727     37.273    464.455    516.727    464.455    484.448    464.455
111.470    549.518    539.107     10.411    464.340    517.397    464.340    486.044    464.340
111.570    563.032    541.988     21.044    464.229    518.274    464.229    487.935    464.229
111.670    529.000    545.381    -16.381    464.120    519.314    464.120    490.179    464.120
111.770    508.675    549.315    -40.640    464.014    520.480    464.014    492.841    464.014
111.870    550.000    553.838     -3.838    463.912    521.750    463.912    495.992    463.912
111.970    587.817    559.018     28.799    463.812    523.108    463.812    499.714    463.812
112.070    577.000    564.937     12.063    463.716    524.552    463.716    504.092    463.716
112.170    580.000    571.696      8.304    463.623    526.090    463.623    509.220    463.623
112.270    626.047    579.403     46.644    463.532    527.735    463.532    515.191    463.532
112.370    541.240    588.179    -46.939    463.446    529.512    463.446    522.103    463.446
112.470    621.000    598.147     22.853    463.362    531.452    463.362    530.048    463.362
112.570    595.000    609.433    -14.433    463.282    533.595    463.282    539.110    463.282
112.670    585.238    622.159    -36.921    463.205    535.989    463.205    549.365    463.205
112.770    669.044    636.444     32.600    463.131    538.695    463.131    560.870    463.131
112.870    600.837    652.403    -51.565    463.061    541.793    463.061    573.660    463.061
112.970    680.000    670.145      9.855    462.994    545.385    462.994    587.743    462.994
113.070    689.000    689.780     -0.780    462.931    549.603    462.931    603.096    462.931
113.170    705.551    711.421     -5.870    462.871    554.624    462.871    619.656    462.871
113.270    749.587    735.196     14.391    462.815    560.678    462.815    637.319    462.815
113.370    714.000    761.257    -47.257    462.762    568.070    462.762    655.935    462.762
113.470    784.223    789.802     -5.579    462.714    577.197    462.714    675.301    462.714
113.570    838.000    821.086     16.914    462.668    588.572    462.668    695.163    462.668
113.670    890.000    855.453     34.547    462.627    602.849    462.627    715.207    462.627
113.770    890.009    893.356     -3.347    462.590    620.855    462.590    735.063    462.590
113.870    921.000    935.391    -14.391    462.556    643.613    462.556    754.299    462.556
113.970    957.000    982.321    -25.321    462.526    672.373    462.526    772.432    462.526
114.070   1056.957   1035.118     21.839    462.500    708.634    462.500    788.931    462.500
114.170   1167.000   1094.991     72.009    462.478    754.155    462.478    803.248    462.478
114.270   1150.000   1163.428    -13.428    462.460    810.964    462.460    814.841    462.460
114.370   1246.000   1242.220      3.780    462.447    881.338    462.447    823.226    462.447
114.470   1296.000   1333.480    -37.480    462.437    967.769    462.437    828.020    462.437
114.570   1379.779   1439.628    -59.849    462.432   1072.908    462.432    828.995    462.432
114.670   1555.818   1563.335     -7.517    462.430   1199.474    462.430    826.102    462.430
114.770   1740.000   1707.408     32.592    462.433   1350.133    462.433    819.481    462.433
114.870   1928.000   1874.628     53.372    462.440   1527.357    462.440    809.441    462.440
114.970   2105.000   2067.535     37.465    462.452   1733.248    462.452    796.421    462.452
115.070   2307.000   2288.189     18.811    462.468   1969.348    462.468    780.940    462.468
115.170   2509.630   2537.920    -28.290    462.488   2236.438    462.488    763.549    462.488
115.270   2877.564   2817.093     60.471    462.513   2534.340    462.513    744.791    462.513
115.370   3146.000   3124.896     21.104    462.543   2861.734    462.543    725.176    462.543
115.470   3478.009   3459.177     18.833    462.577   3216.013    462.577    705.163    462.577
115.570   3626.000   3816.329   -190.329    462.615   3593.169    462.615    685.152    462.615
115.670   4095.269   4191.237    -95.968    462.659   3987.747    462.659    665.488    462.659
115.770   4497.000   4577.291    -80.291    462.707   4392.856    462.707    646.454    462.707
115.870   4776.000   4966.466   -190.466    462.759   4800.244    462.759    628.277    462.759
115.970   5182.000   5349.477   -167.477    462.817   5200.454    462.817    611.135    462.817
116.070   5587.000   5716.011   -129.011    462.879   5583.044    462.879    595.155    462.879
116.170   6061.000   6055.044      5.956    462.947   5936.912    462.947    580.420    462.947
116.270   6311.000   6355.278    -44.278    463.019   6250.716    463.019    566.971    463.019
116.370   6650.000   6605.704     44.296    463.096   6513.441    463.096    554.817    463.096
116.470   6754.000   6796.315    -42.315    463.179   6715.097    463.179    543.936    463.179
116.570   6887.000   6918.907    -31.907    463.266   6847.530    463.266    534.281    463.266
116.670   6913.203   6967.887    -54.684    463.359   6905.205    463.359    525.785    463.359
116.770   7089.855   6940.883    148.972    463.457   6885.828    463.457    518.368    463.457
116.870   6968.000   6839.011    128.989    463.560   6790.598    463.560    511.941    463.560
116.970   6698.000   6666.736     31.264    463.669   6624.070    463.669    506.408    463.669
117.070   6492.000   6431.368     60.632    463.782   6393.644    463.782    501.675    463.782
117.170   6143.562   6142.209      1.354    463.902   6108.714    463.902    497.647    463.902
117.270   5728.000   5809.814    -81.814    464.026   5779.925    464.026    494.234    464.026
117.370   5281.000   5445.243   -164.243    464.157   5418.416    464.157    491.354    464.157
117.470   4972.000   5059.457    -87.457    464.292   5035.225    464.292    488.929    464.292
117.570   4716.000   4662.859     53.141    464.434   4640.827    464.434    486.891    464.434
117.670   4308.722   4264.957     43.765    464.581   4244.789    464.581    485.180    464.581
117.770   4093.000   3874.113    218.887    464.734   3855.529    464.734    483.742    464.734
117.870   3706.000   3497.386    208.614    464.892   3480.152    464.892    482.534    464.892
117.970   3327.000   3140.444    186.556    465.057   3124.368    465.057    481.515    465.057
118.070   2923.000   2807.553    115.447    465.227   2792.475    465.227    480.656    465.227
118.170   2600.008   2501.622     98.386    465.403   2487.412    465.403    479.928    465.403
118.270   2315.000   2224.313     90.687    465.585   2210.865    465.585    479.311    465.585
118.370   1938.000   1976.181    -38.181    465.774   1963.408    465.774    478.787    465.774
118.470   1772.000   1756.842     15.158    465.968   1744.673    465.968    478.341    465.968
118.570   1586.518   1565.155     21.363    466.169   1553.530    466.169    477.962    466.169
118.670   1413.000   1399.402     13.598    466.376   1388.273    466.376    477.641    466.376
118.770   1326.998   1257.467     69.532    466.589   1246.793    466.589    477.371    466.589
118.870   1184.447   1136.996     47.451    466.808   1126.742    466.808    477.146    466.808
118.970    957.000   1035.540    -78.540    467.034   1025.677    467.034    476.961    467.034
119.070    947.000    950.670     -3.670    467.266    941.170    467.266    476.813    467.266
119.170    863.000    880.068    -17.068    467.504    870.908    467.504    476.699    467.504
119.270    776.699    821.592    -44.893    467.750    812.750    467.750    476.616    467.750
119.370    797.000    773.313     23.687    468.001    764.768    468.001    476.562    468.001
119.470    661.000    733.534    -72.534    468.260    725.267    468.260    476.537    468.260
119.570    739.231    700.792     38.439    468.525    692.784    468.525    476.539    468.525
119.670    683.000    673.848      9.152    468.797    666.082    468.797    476.568    468.797
119.770    662.000    651.670     10.330    469.076    644.126    469.076    476.623    469.076
119.870    620.000    633.408    -13.408    469.361    626.068    469.361    476.703    469.361
119.970    589.000    618.369    -29.369    469.654    611.217    469.654    476.808    469.654
120.070    600.000    605.999     -5.999    469.954    599.014    469.954    476.940    469.954
120.170    614.146    595.852     18.294    470.260    589.017    470.260    477.096    470.260
120.270    609.177    587.576     21.601    470.574    580.873    470.574    477.279    470.574
120.370    557.000    580.894    -23.894    470.895    574.303    470.895    477.489    470.895
120.470    557.000    575.590    -18.590    471.223    569.091    471.223    477.725    471.223
120.570    590.000    571.492     18.508    471.559    565.065    471.559    477.990    471.559
120.670    553.000    568.469    -15.469    471.901    562.093    471.901    478.282    471.901
120.770    557.622    566.417     -8.795    472.252    560.070    472.252    478.604    472.252
120.870    598.780    565.256     33.524    472.609    558.916    472.609    478.955    472.609
120.970    567.000    564.920      2.080    472.975    558.565    472.975    479.336    472.975
121.070    561.342    565.354     -4.012    473.348    558.961    473.348    479.748    473.348
121.170    562.002    566.511     -4.509    473.728    560.057    473.728    480.191    473.728
121.270    618.000    568.345     49.655    474.116    561.807    474.116    480.665    474.116
121.370    579.000    570.810      8.190    474.512    564.164    474.512    481.170    474.512
121.470    581.000    573.855      7.145    474.916    567.079    474.916    481.705    474.916
121.570    582.000    577.424      4.576    475.328    570.497    475.328    482.270    475.328
121.670    572.906    581.454     -8.548    475.748    574.356    475.748    482.863    475.748
121.770    540.621    585.872    -45.252    476.176    578.585    476.176    483.483    476.176
121.870    566.347    590.598    -24.251    476.611    583.105    476.611    484.128    476.611
121.970    558.657    595.538    -36.881    477.055    587.825    477.055    484.795    477.055
122.070    582.092    600.593    -18.501    477.508    592.649    477.508    485.481    477.508
122.170    608.015    605.654      2.362    477.968    597.471    477.968    486.182    477.968
122.270    549.000    610.604    -61.604    478.437    602.179    478.437    486.896    478.437
122.370    623.000    615.325      7.675    478.914    606.660    478.914    487.616    478.914
122.470    555.000    619.697    -64.697    479.400    610.798    479.400    488.338    479.400
122.570    606.567    623.603    -17.036    479.894    614.483    479.894    489.056    479.894
122.670    647.000    626.937     20.063    480.397    617.614    480.397    489.765    480.397
122.770    631.000    629.609      1.391    480.909    620.106    480.909    490.456    480.909
122.870    595.452    631.548    -36.096    481.429    621.898    481.429    491.126    481.429
122.970    607.853    632.713    -24.860    481.958    622.953    481.958    491.766    481.958
123.070    656.000    633.090     22.910    482.496    623.262    482.496    492.372    482.496
123.170    654.000    632.693     21.307    483.043    622.844    483.043    492.940    483.043
123.270    641.000    631.564      9.436    483.599    621.744    483.599    493.466    483.599
123.370    658.853    629.764     29.089    484.164    620.023    484.164    493.951    484.164
123.470    597.000    627.369    -30.369    484.738    617.758    484.738    494.393    484.738
123.570    647.530    624.467     23.063    485.321    615.032    485.321    494.797    485.321
123.670    619.044    621.148     -2.104    485.913    611.935    485.913    495.166    485.913
123.770    656.227    617.505     38.722    486.515    608.551    486.515    495.505    486.515
123.870    577.793    613.626    -35.833    487.126    604.966    487.126    495.821    487.126
123.970    609.920    609.595      0.324    487.747    601.255    487.747    496.119    487.747
124.070    608.000    605.487      2.513    488.377    597.487    488.377    496.405    488.377
124.170    627.407    601.366     26.040    489.017    593.721    489.017    496.687    489.017
124.270    617.246    597.286     19.960    489.667    590.005    489.667    496.969    489.667
124.370    630.000    593.286     36.714    490.326    586.374    490.326    497.257    490.326
124.470    634.645    589.397     45.248    490.995    582.853    490.995    497.555    490.995
124.570    549.000    585.637    -36.637    491.674    579.457    491.674    497.868    491.674
124.670    617.130    582.015     35.115    492.363    576.190    492.363    498.199    492.363
124.770    581.000    578.533      2.467    493.062    573.053    493.062    498.551    493.062
124.870    608.333    575.186     33.148    493.771    570.038    493.771    498.926    493.771
124.970    575.810    571.967      3.843    494.490    567.136    494.490    499.327    494.490
