neutron_powder_diffraction_0204
R_wp: 3.972
Temperature (K): 1074.000
Counts: 84258.00
Wavelength (Ã…): 2.52098
COMMENTS
Test file for demonstrating the .xyy file format in Reel1.0
END OF HEADER
   tth       Y_obs     Y_calc      Y_res    Background    Phase_1_Nuc    Phase_1_Mag    Phase_2_Nuc    Phase_2_Mag
  9.970    585.000    573.865     11.135    573.239    573.839    573.239    573.265    573.239
 10.070    587.000    573.907     13.093    573.229    573.880    573.229    573.256    573.229
 10.170    529.602    573.951    -44.349    573.215    573.924    573.215    573.242    573.215
 10.270    558.000    574.000    -16.000    573.197    573.973    573.197    573.223    573.197
 10.370    551.479    574.056    -22.577    573.173    574.028    573.173    573.201    573.173
 10.470    550.442    574.121    -23.679    573.146    574.092    573.146    573.175    573.146
 10.570    538.000    574.198    -36.198    573.114    574.168    573.114    573.143    573.114
 10.670    608.000    574.292     33.708    573.077    574.262    573.077    573.107    573.077
 10.770    574.000    574.408     -0.408    573.036    574.377    573.036    573.067    573.036
 10.870    578.000    574.554      3.446    572.991    574.523    572.991    573.022    572.991
 10.970    599.000    574.743     24.257    572.942    574.711    572.942    572.974    572.942
 11.070    616.000    574.999     41.001    572.888    574.956    572.888    572.930    572.888
 11.170    551.000    575.327    -24.327    572.831    575.282    572.831    572.874    572.831
 11.270    534.000    575.770    -41.770    572.769    575.724    572.769    572.813    572.769
 11.370    577.000    576.390      0.610    572.703    576.344    572.703    572.747    572.703
 11.470    633.000    577.317     55.683    572.633    577.271    572.633    572.677    572.633
 11.570    598.000    578.921     19.079    572.559    578.874    572.559    572.604    572.559
 11.670    628.000    582.314     45.686    572.482    582.264    572.482    572.526    572.482
 11.770    551.394    590.255    -38.861    572.400    590.200    572.400    572.444    572.400
 11.870    624.444    607.494     16.950    572.314    607.430    572.314    572.359    572.314
 11.970    694.000    638.081     55.919    572.225    637.999    572.225    572.270    572.225
 12.070    742.000    678.344     63.656    572.132    678.235    572.132    572.182    572.132
 12.170    713.964    710.353      3.611    572.035    710.224    572.035    572.086    572.035
 12.270    699.908    711.306    -11.397    571.934    711.176    571.934    571.986    571.934
 12.370    670.000    680.238    -10.238    571.830    680.125    571.830    571.882    571.830
 12.470    658.000    639.562     18.438    571.722    639.472    571.722    571.774    571.722
 12.570    567.925    608.030    -40.105    571.610    607.957    571.610    571.663    571.610
 12.670    616.000    589.961     26.039    571.495    589.898    571.495    571.548    571.495
 12.770    580.351    581.483     -1.131    571.377    581.424    571.377    571.430    571.377
 12.870    547.000    577.755    -30.755    571.255    577.698    571.255    571.308    571.255
 12.970    618.794    575.903     42.891    571.129    575.847    571.129    571.183    571.129
 13.070    583.000    574.759      8.241    571.001    574.703    571.001    571.055    571.001
 13.170    587.000    573.932     13.068    570.868    573.876    570.868    570.923    570.868
 13.270    571.000    573.287     -2.287    570.733    573.231    570.733    570.788    570.733
 13.370    521.000    572.761    -51.761    570.594    572.705    570.594    570.649    570.594
 13.470    541.742    572.319    -30.578    570.452    572.263    570.452    570.508    570.452
 13.570    533.000    571.937    -38.937    570.307    571.880    570.307    570.363    570.307
 13.670    524.371    571.598    -47.227    570.159    571.541    570.159    570.215    570.159
 13.770    587.000    571.291     15.709    570.008    571.234    570.008    570.064    570.008
 13.870    574.000    571.008      2.992    569.853    570.951    569.853    569.910    569.853
 13.970    572.000    570.744      1.256    569.696    570.686    569.696    569.754    569.696
 14.070    591.000    570.496     20.504    569.536    570.436    569.536    569.596    569.536
 14.170    573.000    570.257      2.743    569.372    570.196    569.372    569.433    569.372
 14.270    614.428    570.026     44.402    569.206    569.964    569.206    569.268    569.206
 14.370    586.000    569.801     16.199    569.037    569.738    569.037    569.099    569.037
 14.470    586.446    569.580     16.866    568.865    569.517    568.865    568.928    568.865
 14.570    601.042    569.363     31.679    568.690    569.299    568.690    568.754    568.690
 14.670    572.000    569.149      2.851    568.512    569.085    568.512    568.577    568.512
 14.770    541.000    568.939    -27.939    568.332    568.874    568.332    568.397    568.332
 14.870    558.000    568.729    -10.729    568.149    568.664    568.149    568.214    568.149
 14.970    544.000    568.518    -24.518    567.963    568.452    567.963    568.028    567.963
 15.070    547.000    568.307    -21.307    567.775    568.241    567.775    567.841    567.775
 15.170    534.871    568.096    -33.225    567.584    568.030    567.584    567.650    567.584
 15.270    566.000    567.885     -1.885    567.390    567.818    567.390    567.457    567.390
 15.370    584.000    567.673     16.327    567.194    567.606    567.194    567.261    567.194
 15.470    553.000    567.460    -14.460    566.996    567.393    566.996    567.063    566.996
 15.570    549.000    567.247    -18.247    566.795    567.179    566.795    566.863    566.795
 15.670    489.000    567.032    -78.032    566.592    566.964    566.592    566.660    566.592
 15.770    583.592    566.816     16.776    566.386    566.747    566.386    566.454    566.386
 15.870    573.000    566.599      6.401    566.178    566.530    566.178    566.246    566.178
 15.970    542.436    566.380    -23.944    565.967    566.311    565.967    566.036    565.967
 16.070    545.440    566.160    -20.720    565.754    566.090    565.754    565.824    565.754
 16.170    572.421    565.939      6.483    565.540    565.869    565.540    565.610    565.540
 16.270    537.054    565.716    -28.662    565.322    565.645    565.322    565.393    565.322
 16.370    537.311    565.492    -28.181    565.103    565.421    565.103    565.174    565.103
 16.470    554.000    565.266    -11.266    564.881    565.194    564.881    564.953    564.881
 16.570    521.215    565.040    -43.824    564.658    564.966    564.658    564.731    564.658
 16.670    587.000    564.811     22.189    564.432    564.737    564.432    564.506    564.432
 16.770    543.965    564.580    -20.616    564.204    564.506    564.204    564.279    564.204
 16.870    572.000    564.348      7.652    563.975    564.273    563.975    564.049    563.975
 16.970    541.000    564.115    -23.115    563.743    564.039    563.743    563.818    563.743
 17.070    546.000    563.879    -17.879    563.509    563.803    563.509    563.585    563.509
 17.170    600.201    563.644     36.557    563.273    563.567    563.273    563.350    563.273
 17.270    548.895    563.407    -14.512    563.036    563.330    563.036    563.113    563.036
 17.370    551.000    563.168    -12.168    562.796    563.090    562.796    562.874    562.796
 17.470    536.000    562.927    -26.927    562.555    562.848    562.555    562.633    562.555
 17.570    586.378    562.684     23.694    562.312    562.605    562.312    562.391    562.312
 17.670    565.345    562.442      2.903    562.067    562.363    562.067    562.146    562.067
 17.770    545.742    562.197    -16.455    561.821    562.117    561.821    561.901    561.821
 17.870    549.000    561.950    -12.950    561.573    561.870    561.573    561.653    561.573
 17.970    516.540    561.701    -45.161    561.323    561.621    561.323    561.404    561.323
 18.070    565.000    561.452      3.548    561.071    561.370    561.071    561.153    561.071
 18.170    549.000    561.201    -12.201    560.818    561.119    560.818    560.900    560.818
 18.270    587.000    560.948     26.052    560.563    560.865    560.563    560.646    560.563
 18.370    547.000    560.694    -13.694    560.307    560.611    560.307    560.390    560.307
 18.470    529.163    560.439    -31.276    560.049    560.356    560.049    560.133    560.049
 18.570    530.624    560.184    -29.560    559.790    560.099    559.790    559.875    559.790
 18.670    602.000    559.930     42.070    559.529    559.841    559.529    559.619    559.529
 18.770    587.799    559.674     28.124    559.267    559.582    559.267    559.359    559.267
 18.870    558.000    559.415     -1.415    559.003    559.322    559.003    559.096    559.003
 18.970    570.000    559.154     10.846    558.738    559.060    558.738    558.832    558.738
 19.070    532.000    558.892    -26.892    558.472    558.798    558.472    558.566    558.472
 19.170    594.517    558.630     35.888    558.204    558.534    558.204    558.299    558.204
 19.270    562.239    558.366      3.873    557.935    558.270    557.935    558.031    557.935
 19.370    594.378    558.101     36.277    557.665    558.004    557.665    557.762    557.665
 19.470    591.000    557.835     33.165    557.393    557.738    557.393    557.491    557.393
 19.570    547.987    557.569     -9.582    557.121    557.470    557.121    557.219    557.121
 19.670    546.000    557.301    -11.301    556.847    557.202    556.847    556.946    556.847
 19.770    544.000    557.033    -13.033    556.572    556.933    556.572    556.672    556.572
 19.870    519.000    556.764    -37.764    556.295    556.663    556.295    556.396    556.295
 19.970    597.216    556.495     40.721    556.018    556.393    556.018    556.120    556.018
 20.070    528.000    556.224    -28.224    555.740    556.122    555.740    555.843    555.740
 20.170    566.971    555.953     11.018    555.460    555.850    555.460    555.564    555.460
 20.270    558.000    555.682      2.318    555.180    555.577    555.180    555.285    555.180
 20.370    558.000    555.411      2.589    554.899    555.306    554.899    555.004    554.899
 20.470    590.506    555.153     35.353    554.616    555.047    554.616    554.723    554.616
 20.570    560.000    554.891      5.109    554.333    554.784    554.333    554.441    554.333
 20.670    537.133    554.619    -17.487    554.049    554.511    554.049    554.157    554.049
 20.770    517.000    554.346    -37.346    553.764    554.237    553.764    553.873    553.764
 20.870    533.000    554.073    -21.073    553.478    553.962    553.478    553.588    553.478
 20.970    593.371    553.800     39.571    553.191    553.688    553.191    553.303    553.191
 21.070    531.000    553.526    -22.526    552.903    553.413    552.903    553.016    552.903
 21.170    545.000    553.253     -8.253    552.615    553.139    552.615    552.729    552.615
 21.270    608.000    552.980     55.020    552.325    552.864    552.325    552.441    552.325
 21.370    519.000    552.707    -33.707    552.036    552.590    552.036    552.152    552.036
 21.470    570.745    552.445     18.300    551.745    552.327    551.745    551.863    551.745
 21.570    550.000    552.284     -2.284    551.454    552.164    551.454    551.573    551.454
 21.670    551.000    552.065     -1.065    551.162    551.945    551.162    551.282    551.162
 21.770    565.000    551.800     13.200    550.869    551.678    550.869    550.991    550.869
 21.870    546.000    551.532     -5.532    550.576    551.408    550.576    550.699    550.576
 21.970    571.000    551.265     19.735    550.282    551.140    550.282    550.407    550.282
 22.070    552.000    551.000      1.000    549.987    550.873    549.987    550.114    549.987
 22.170    538.000    550.737    -12.737    549.692    550.608    549.692    549.821    549.692
 22.270    552.000    550.480      1.520    549.397    550.350    549.397    549.527    549.397
 22.370    523.000    550.268    -27.268    549.101    550.137    549.101    549.233    549.101
 22.470    588.000    550.032     37.968    548.804    549.899    548.804    548.938    548.804
 22.570    559.000    549.784      9.216    548.507    549.648    548.507    548.643    548.507
 22.670    535.000    549.540    -14.540    548.210    549.400    548.210    548.350    548.210
 22.770    528.919    549.301    -20.382    547.912    549.158    547.912    548.055    547.912
 22.870    550.000    549.067      0.933    547.614    548.923    547.614    547.759    547.614
 22.970    522.824    548.843    -26.019    547.315    548.696    547.315    547.462    547.315
 23.070    596.421    548.630     47.791    547.017    548.482    547.017    547.166    547.017
 23.170    585.614    548.432     37.182    546.717    548.281    546.717    546.869    546.717
 23.270    533.890    548.247    -14.357    546.418    548.093    546.418    546.572    546.418
 23.370    568.891    548.081     20.810    546.118    547.926    546.118    546.274    546.118
 23.470    523.000    547.942    -24.942    545.818    547.784    545.818    545.977    545.818
 23.570    574.000    547.838     26.162    545.518    547.677    545.518    545.679    545.518
 23.670    550.610    547.780      2.830    545.217    547.616    545.217    545.382    545.217
 23.770    587.885    547.786     40.099    544.917    547.620    544.917    545.084    544.917
 23.870    544.000    547.884     -3.884    544.616    547.714    544.616    544.786    544.616
 23.970    568.000    548.121     19.879    544.315    547.948    544.315    544.489    544.315
 24.070    513.000    548.610    -35.610    544.014    548.435    544.014    544.191    544.014
 24.170    555.000    549.685      5.315    543.712    549.508    543.712    543.893    543.712
 24.270    526.898    552.295    -25.396    543.411    552.115    543.411    543.596    543.411
 24.370    557.000    558.576     -1.576    543.110    558.398    543.110    543.298    543.110
 24.470    559.000    571.718    -12.718    542.808    571.545    542.808    543.001    542.808
 24.570    594.000    593.568      0.432    542.507    593.406    542.507    542.704    542.507
 24.670    618.000    619.951     -1.951    542.205    619.804    542.205    542.407    542.205
 24.770    603.754    637.632    -33.878    541.904    637.493    541.904    542.111    541.904
 24.870    651.000    633.329     17.671    541.602    633.182    541.602    541.814    541.602
 24.970    584.000    610.681    -26.681    541.301    610.513    541.301    541.518    541.301
 25.070    641.000    584.498     56.502    541.000    584.305    541.000    541.223    541.000
 25.170    558.000    564.997     -6.997    540.698    564.784    540.698    540.928    540.698
 25.270    589.000    553.896     35.104    540.397    553.668    540.397    540.633    540.397
 25.370    534.170    548.569    -14.399    540.096    548.330    540.096    540.339    540.096
 25.470    553.000    546.098      6.902    539.795    545.851    539.795    540.046    539.795
 25.570    534.900    544.782     -9.883    539.495    544.526    539.495    539.753    539.495
 25.670    545.077    543.922      1.155    539.194    543.656    539.194    539.461    539.194
 25.770    554.000    543.278     10.722    538.894    543.003    538.894    539.170    538.894
 25.870    547.211    542.768      4.444    538.594    542.482    538.594    538.880    538.594
 25.970    588.000    542.352     45.648    538.294    542.056    538.294    538.590    538.294
 26.070    544.000    542.009      1.991    537.994    541.702    537.994    538.302    537.994
 26.170    557.000    541.731     15.269    537.695    541.411    537.695    538.015    537.695
 26.270    533.345    541.532     -8.187    537.396    541.199    537.396    537.730    537.396
 26.370    549.000    541.382      7.618    537.097    541.033    537.097    537.446    537.097
 26.470    555.871    541.261     14.610    536.799    540.897    536.799    537.163    536.799
 26.570    559.507    541.195     18.312    536.501    540.813    536.501    536.882    536.501
 26.670    533.595    541.189     -7.594    536.203    540.788    536.203    536.604    536.203
 26.770    580.594    541.255     39.339    535.905    540.832    535.905    536.328    535.905
 26.870    536.035    541.407     -5.371    535.608    540.961    535.608    536.054    535.608
 26.970    556.000    541.669     14.331    535.312    541.197    535.312    535.783    535.312
 27.070    549.292    542.072      7.220    535.016    541.572    535.016    535.515    535.016
 27.170    569.000    542.660     26.340    534.720    542.127    534.720    535.252    534.720
 27.270    532.000    543.503    -11.503    534.425    542.933    534.425    534.992    534.425
 27.370    589.034    544.665     44.369    534.130    544.056    534.130    534.738    534.130
 27.470    545.950    546.350     -0.399    533.835    545.693    533.835    534.490    533.835
 27.570    562.000    549.026     12.974    533.541    548.317    533.541    534.248    533.541
 27.670    537.000    554.263    -17.263    533.248    553.492    533.248    534.015    533.248
 27.770    563.000    566.976     -3.976    532.955    566.132    532.955    533.791    532.955
 27.870    634.728    598.698     36.030    532.663    597.763    532.663    533.579    532.663
 27.970    682.000    666.146     15.854    532.371    665.095    532.371    533.381    532.371
 28.070    801.000    775.365     25.635    532.080    774.172    532.080    533.200    532.080
 28.170    917.227    895.768     21.459    531.790    894.416    531.790    533.042    531.790
 28.270    963.584    955.218      8.366    531.500    953.709    531.500    532.911    531.500
 28.370    943.200    905.869     37.331    531.210    904.201    531.210    532.815    531.210
 28.470    821.680    799.068     22.612    530.922    797.195    530.922    532.767    530.922
 28.570    689.000    715.853    -26.853    530.634    713.689    530.634    532.784    530.634
 28.670    730.912    698.222     32.690    530.346    695.656    530.346    532.897    530.346
 28.770    711.000    742.240    -31.240    530.060    739.118    530.060    533.162    530.060
 28.870    752.967    809.316    -56.349    529.774    805.397    529.774    533.679    529.774
 28.970    806.000    840.906    -34.906    529.488    835.781    529.488    534.614    529.488
 29.070    746.000    802.014    -56.014    529.204    795.019    529.204    536.210    529.204
 29.170    701.000    722.902    -21.902    528.920    713.076    528.920    538.758    528.920
 29.270    650.000    650.182     -0.182    528.637    636.311    528.637    542.516    528.637
 29.370    652.000    605.005     46.995    528.354    585.830    528.354    547.534    528.354
 29.470    608.000    585.084     22.916    528.073    559.806    528.073    553.350    528.073
 29.570    550.033    578.935    -28.902    527.792    548.177    527.792    558.548    527.792
 29.670    655.000    576.196     78.804    527.512    542.893    527.512    560.813    527.512
 29.770    611.624    571.492     40.132    527.233    540.030    527.233    558.693    527.233
 29.870    569.000    564.514      4.486    526.954    538.170    526.954    553.296    526.954
 29.970    539.769    557.112    -17.343    526.677    536.865    526.677    546.922    526.677
 30.070    528.407    550.730    -22.323    526.400    535.966    526.400    541.162    526.400
 30.170    530.760    545.938    -15.178    526.124    535.442    526.124    536.618    526.124
 30.270    576.000    542.868     33.132    525.849    535.404    525.849    533.310    525.849
 30.370    546.000    541.731      4.269    525.575    536.297    525.575    531.005    525.575
 30.470    578.000    543.387     34.613    525.302    539.271    525.302    529.410    525.302
 30.570    520.499    549.680    -29.181    525.030    546.425    525.030    528.273    525.030
 30.670    588.000    562.676     25.324    524.758    559.999    524.758    527.413    524.758
 30.770    607.000    582.129     24.871    524.488    579.859    524.488    526.720    524.488
 30.870    601.000    602.270     -1.270    524.218    600.305    524.218    526.132    524.218
 30.970    615.000    611.448      3.552    523.950    609.728    523.950    525.614    523.950
 31.070    624.312    601.923     22.389    523.682    600.413    523.682    525.147    523.682
 31.170    547.000    580.871    -33.871    523.415    579.540    523.415    524.717    523.415
 31.270    553.000    559.941     -6.941    523.150    558.758    523.150    524.316    523.150
 31.370    559.000    545.137     13.863    522.885    544.076    522.885    523.939    522.885
 31.470    538.000    536.798      1.202    522.621    535.835    522.621    523.580    522.621
 31.570    497.815    532.726    -34.911    522.359    531.846    522.359    523.236    522.359
 31.670    544.000    530.774     13.226    522.097    529.964    522.097    522.905    522.097
 31.770    532.000    529.718      2.282    521.836    528.968    521.836    522.585    521.836
 31.870    515.889    529.043    -13.154    521.577    528.345    521.577    522.273    521.577
 31.970    550.000    528.572     21.428    521.318    527.920    521.318    521.969    521.318
 32.070    584.000    528.245     55.755    521.061    527.633    521.061    521.672    521.061
 32.170    526.504    528.040     -1.535    520.805    527.463    520.805    521.380    520.805
 32.270    535.000    527.946      7.054    520.549    527.400    520.549    521.094    520.549
 32.370    574.000    527.964     46.036    520.295    527.446    520.295    520.812    520.295
 32.470    517.577    528.104    -10.527    520.042    527.610    520.042    520.534    520.042
 32.570    551.000    528.380     22.620    519.790    527.909    519.790    520.260    519.790
 32.670    492.054    528.821    -36.766    519.539    528.369    519.539    519.989    519.539
 32.770    514.699    529.463    -14.764    519.289    529.030    519.289    519.722    519.289
 32.870    552.927    530.365     22.562    519.041    529.948    519.041    519.457    519.041
 32.970    550.000    531.611     18.389    518.793    531.208    518.793    519.195    518.793
 33.070    587.000    533.330     53.670    518.547    532.940    518.547    518.935    518.547
 33.170    568.784    535.760     33.024    518.302    535.382    518.302    518.678    518.302
 33.270    557.000    539.443     17.557    518.058    539.075    518.058    518.423    518.058
 33.370    501.187    545.851    -44.664    517.815    545.492    517.815    518.170    517.815
 33.470    543.000    558.815    -15.815    517.573    558.463    517.573    517.920    517.573
 33.570    632.000    586.562     45.438    517.333    586.213    517.333    517.671    517.333
 33.670    607.632    642.004    -34.372    517.094    641.652    517.094    517.424    517.094
 33.770    746.743    736.745      9.998    516.856    736.386    516.856    517.179    516.856
 33.870    878.000    866.974     11.026    516.619    866.604    516.619    516.936    516.619
 33.970   1048.000    997.488     50.512    516.384    997.114    516.384    516.695    516.384
 34.070   1092.000   1061.457     30.543    516.149   1061.097    516.149    516.455    516.149
 34.170   1047.000   1013.407     33.593    515.916   1013.079    515.916    516.217    515.916
 34.270    896.000    888.981      7.019    515.684    888.681    515.684    515.981    515.684
 34.370    711.000    755.454    -44.454    515.454    755.169    515.454    515.746    515.454
 34.470    655.000    653.636      1.364    515.224    653.356    515.224    515.513    515.224
 34.570    600.000    591.655      8.345    514.996    591.375    514.996    515.282    514.996
 34.670    561.000    559.525      1.475    514.770    559.245    514.770    515.052    514.770
 34.770    571.258    544.088     27.170    514.544    543.809    514.544    514.824    514.544
 34.870    553.529    536.306     17.223    514.320    536.029    514.320    514.597    514.320
 34.970    531.000    531.733     -0.733    514.097    531.458    514.097    514.372    514.097
 35.070    518.000    528.597    -10.597    513.876    528.324    513.876    514.148    513.876
 35.170    540.000    526.236     13.764    513.655    525.965    513.655    513.926    513.655
 35.270    539.934    524.375     15.559    513.436    524.106    513.436    513.705    513.436
 35.370    492.306    522.868    -30.561    513.219    522.600    513.219    513.486    513.219
 35.470    546.000    521.621     24.379    513.002    521.355    513.002    513.268    513.002
 35.570    516.601    520.571     -3.970    512.787    520.306    512.787    513.052    512.787
 35.670    531.000    519.674     11.326    512.574    519.410    512.574    512.838    512.574
 35.770    533.000    518.897     14.103    512.361    518.634    512.361    512.625    512.361
 35.870    486.000    518.215    -32.215    512.150    517.952    512.150    512.413    512.150
 35.970    492.000    517.611    -25.611    511.941    517.349    511.941    512.203    511.941
 36.070    547.991    517.071     30.919    511.733    516.810    511.733    511.994    511.733
 36.170    542.212    516.586     25.626    511.526    516.325    511.526    511.787    511.526
 36.270    472.860    516.147    -43.287    511.320    515.886    511.320    511.581    511.320
 36.370    479.000    515.749    -36.749    511.116    515.488    511.116    511.377    511.116
 36.470    522.530    515.389      7.141    510.913    515.128    510.913    511.174    510.913
 36.570    522.000    515.065      6.935    510.712    514.804    510.712    510.973    510.712
 36.670    532.212    514.778     17.434    510.512    514.517    510.512    510.773    510.512
 36.770    494.000    514.532    -20.532    510.314    514.270    510.314    510.575    510.314
 36.870    514.000    514.342     -0.342    510.116    514.080    510.116    510.379    510.116
 36.970    509.000    514.254     -5.254    509.921    513.991    509.921    510.183    509.921
 37.070    522.000    514.386      7.614    509.726    514.122    509.726    509.990    509.726
 37.170    508.000    514.982     -6.982    509.533    514.718    509.533    509.797    509.533
 37.270    561.326    516.420     44.906    509.342    516.156    509.342    509.607    509.342
 37.370    525.034    519.048      5.986    509.152    518.784    509.152    509.418    509.152
 37.470    522.000    522.813     -0.813    508.963    522.548    508.963    509.230    508.963
 37.570    513.000    526.841    -13.841    508.776    526.576    508.776    509.044    508.776
 37.670    488.000    529.386    -41.386    508.590    529.122    508.590    508.859    508.590
 37.770    538.513    528.984      9.529    508.405    528.720    508.405    508.676    508.405
 37.870    500.606    526.015    -25.410    508.223    525.752    508.223    508.494    508.223
 37.970    498.000    522.097    -24.097    508.041    521.834    508.041    508.314    508.041
 38.070    475.000    518.481    -43.481    507.861    518.217    507.861    508.136    507.861
 38.170    547.622    515.629     31.993    507.682    515.362    507.682    507.958    507.682
 38.270    543.833    513.583     30.250    507.505    513.312    507.505    507.783    507.505
 38.370    515.000    512.203      2.797    507.329    511.928    507.329    507.609    507.329
 38.470    473.679    511.296    -37.617    507.155    511.018    507.155    507.437    507.155
 38.570    514.000    510.697      3.303    506.982    510.415    506.982    507.266    506.982
 38.670    487.000    510.283    -23.283    506.811    509.998    506.811    507.096    506.811
 38.770    516.000    509.973      6.027    506.641    509.686    506.641    506.928    506.641
 38.870    486.000    509.720    -23.720    506.473    509.431    506.473    506.762    506.473
 38.970    497.732    509.497    -11.766    506.306    509.206    506.306    506.598    506.306
 39.070    488.000    509.295    -21.295    506.140    509.001    506.140    506.434    506.140
 39.170    487.000    509.107    -22.107    505.976    508.811    505.976    506.273    505.976
 39.270    480.265    508.931    -28.666    505.814    508.632    505.814    506.113    505.814
 39.370    543.729    508.765     34.965    505.653    508.463    505.653    505.954    505.653
 39.470    467.904    508.608    -40.703    505.493    508.304    505.493    505.797    505.493
 39.570    543.000    508.459     34.541    505.335    508.152    505.335    505.642    505.335
 39.670    528.000    508.318     19.682    505.178    508.008    505.178    505.488    505.178
 39.770    525.000    508.185     16.815    505.023    507.872    505.023    505.336    505.023
 39.870    549.906    508.059     41.847    504.870    507.743    504.870    505.186    504.870
 39.970    543.269    507.941     35.328    504.718    507.622    504.718    505.037    504.718
 40.070    520.000    507.831     12.169    504.567    507.509    504.567    504.889    504.567
 40.170    509.000    507.729      1.271    504.418    507.404    504.418    504.744    504.418
 40.270    495.337    507.636    -12.300    504.270    507.307    504.270    504.599    504.270
 40.370    503.656    507.553     -3.897    504.124    507.221    504.124    504.457    504.124
 40.470    477.000    507.481    -30.481    503.979    507.145    503.979    504.316    503.979
 40.570    540.000    507.421     32.579    503.836    507.081    503.836    504.177    503.836
 40.670    486.000    507.375    -21.375    503.694    507.031    503.694    504.039    503.694
 40.770    472.000    507.344    -35.344    503.554    506.996    503.554    503.903    503.554
 40.870    517.000    507.332      9.668    503.416    506.980    503.416    503.768    503.416
 40.970    515.000    507.342      7.658    503.278    506.985    503.278    503.635    503.278
 41.070    494.000    507.378    -13.378    503.143    507.017    503.143    503.504    503.143
 41.170    465.000    507.447    -42.447    503.009    507.082    503.009    503.375    503.009
 41.270    497.493    507.557    -10.063    502.876    507.187    502.876    503.247    502.876
 41.370    499.844    507.718     -7.874    502.745    507.343    502.745    503.121    502.745
 41.470    484.000    507.947    -23.947    502.615    507.567    502.615    502.996    502.615
 41.570    489.000    508.266    -19.266    502.487    507.881    502.487    502.873    502.487
 41.670    481.000    508.721    -27.721    502.360    508.331    502.360    502.752    502.360
 41.770    505.000    509.409     -4.409    502.235    509.013    502.235    502.632    502.235
 41.870    486.000    510.563    -24.563    502.111    510.162    502.111    502.515    502.111
 41.970    482.721    512.732    -30.011    501.989    512.326    501.989    502.398    501.989
 42.070    501.000    517.018    -16.018    501.868    516.608    501.868    502.284    501.868
 42.170    524.000    525.199     -1.199    501.749    524.787    501.749    502.171    501.749
 42.270    561.000    539.339     21.661    501.631    538.926    501.631    502.060    501.631
 42.370    582.000    560.540     21.460    501.515    560.131    501.515    501.951    501.515
 42.470    579.000    587.080     -8.080    501.401    586.677    501.401    501.844    501.401
 42.570    623.000    612.768     10.232    501.287    612.372    501.287    501.738    501.287
 42.670    620.995    627.485     -6.490    501.176    627.092    501.176    501.634    501.176
 42.770    619.000    623.491     -4.491    501.066    623.090    501.066    501.532    501.066
 42.870    558.998    603.144    -44.146    500.957    602.727    500.957    501.432    500.957
 42.970    559.226    576.093    -16.867    500.850    575.653    500.850    501.333    500.850
 43.070    554.000    551.130      2.870    500.744    550.667    500.744    501.237    500.744
 43.170    567.158    532.570     34.588    500.640    532.086    500.640    501.142    500.640
 43.270    499.000    520.822    -21.822    500.537    520.320    500.537    501.049    500.537
 43.370    502.677    514.234    -11.557    500.436    513.718    500.436    500.958    500.436
 43.470    485.000    510.784    -25.784    500.336    510.255    500.336    500.869    500.336
 43.570    500.106    508.956     -8.850    500.238    508.415    500.238    500.782    500.238
 43.670    507.000    507.892     -0.892    500.141    507.338    500.141    500.696    500.141
 43.770    524.000    507.187     16.813    500.045    506.620    500.045    500.613    500.045
 43.870    504.000    506.671     -2.671    499.952    506.092    499.952    500.532    499.952
 43.970    514.116    506.273      7.843    499.859    505.680    499.859    500.453    499.859
 44.070    518.000    505.958     12.042    499.768    505.351    499.768    500.376    499.768
 44.170    522.000    505.707     16.293    499.679    505.085    499.679    500.301    499.679
 44.270    519.753    505.505     14.248    499.591    504.868    499.591    500.229    499.591
 44.370    456.000    505.344    -49.344    499.505    504.691    499.505    500.158    499.505
 44.470    479.000    505.217    -26.217    499.420    504.546    499.420    500.090    499.420
 44.570    493.000    505.118    -12.118    499.336    504.429    499.336    500.025    499.336
 44.670    500.000    505.044     -5.044    499.254    504.336    499.254    499.962    499.254
 44.770    513.000    504.992      8.008    499.173    504.264    499.173    499.901    499.173
 44.870    509.000    504.960      4.040    499.094    504.211    499.094    499.843    499.094
 44.970    518.000    504.947     13.053    499.016    504.176    499.016    499.787    499.016
 45.070    478.000    504.951    -26.951    498.940    504.157    498.940    499.735    498.940
 45.170    489.991    504.973    -14.982    498.865    504.154    498.865    499.685    498.865
 45.270    457.000    505.012    -48.012    498.792    504.166    498.792    499.638    498.792
 45.370    501.000    505.068     -4.068    498.720    504.194    498.720    499.594    498.720
 45.470    504.000    505.142     -1.142    498.650    504.237    498.650    499.554    498.650
 45.570    546.000    505.234     40.766    498.581    504.297    498.581    499.517    498.581
 45.670    532.000    505.345     26.655    498.513    504.374    498.513    499.484    498.513
 45.770    521.001    505.478     15.523    498.447    504.470    498.447    499.455    498.447
 45.870    519.496    505.633     13.863    498.382    504.585    498.382    499.430    498.382
 45.970    476.677    505.813    -29.136    498.319    504.722    498.319    499.409    498.319
 46.070    484.000    506.020    -22.020    498.257    504.883    498.257    499.394    498.257
 46.170    511.000    506.259      4.741    498.197    505.072    498.197    499.383    498.197
 46.270    557.000    506.534     50.466    498.138    505.293    498.138    499.378    498.138
 46.370    496.000    506.851    -10.851    498.080    505.551    498.080    499.379    498.080
 46.470    494.000    507.215    -13.215    498.024    505.851    498.024    499.387    498.024
 46.570    527.565    507.640     19.925    497.969    506.206    497.969    499.402    497.969
 46.670    512.556    508.141      4.415    497.916    506.630    497.916    499.425    497.916
 46.770    487.051    508.743    -21.692    497.864    507.148    497.864    499.457    497.864
 46.870    512.839    509.499      3.340    497.813    507.811    497.813    499.499    497.813
 46.970    500.000    510.529    -10.529    497.764    508.737    497.764    499.553    497.764
 47.070    535.836    512.092     23.744    497.716    510.185    497.716    499.620    497.716
 47.170    512.000    514.703     -2.703    497.669    512.666    497.669    499.701    497.669
 47.270    539.000    519.206     19.794    497.624    517.023    497.624    499.799    497.624
 47.370    532.000    526.685      5.315    497.581    524.334    497.581    499.917    497.581
 47.470    535.000    538.035     -3.035    497.538    535.493    497.538    500.058    497.538
 47.570    514.230    553.208    -38.978    497.497    550.447    497.497    500.226    497.497
 47.670    559.977    570.389    -10.412    497.458    567.376    497.458    500.426    497.458
 47.770    549.579    585.527    -35.948    497.420    582.228    497.420    500.664    497.420
 47.870    559.194    593.193    -34.000    497.383    589.569    497.383    500.949    497.383
 47.970    537.000    590.167    -53.167    497.347    586.170    497.347    501.291    497.347
 48.070    569.834    578.646     -8.813    497.313    574.211    497.313    501.706    497.313
 48.170    544.899    563.939    -19.040    497.280    558.974    497.280    502.215    497.280
 48.270    539.000    550.618    -11.618    497.249    544.992    497.249    502.854    497.249
 48.370    556.341    541.130     15.211    497.218    534.653    497.218    503.682    497.218
 48.470    542.000    536.046      5.954    497.189    528.424    497.189    504.803    497.189
 48.570    501.264    534.859    -33.595    497.162    525.625    497.162    506.391    497.162
 48.670    521.776    536.863    -15.086    497.136    525.272    497.136    508.722    497.136
 48.770    498.578    541.633    -43.055    497.111    526.538    497.111    512.202    497.111
 48.870    590.418    549.233     41.186    497.087    528.962    497.087    517.354    497.087
 48.970    548.000    560.113    -12.113    497.065    532.426    497.065    524.747    497.065
 49.070    561.480    574.936    -13.455    497.044    537.131    497.044    534.842    497.044
 49.170    595.028    594.511      0.517    497.024    543.777    497.024    547.751    497.024
 49.270    641.000    620.137     20.863    497.006    554.218    497.006    562.915    497.006
 49.370    701.000    654.748     46.252    496.988    573.013    496.988    578.707    496.988
 49.470    673.000    705.279    -32.279    496.973    610.122    496.973    592.103    496.973
 49.570    757.002    786.191    -29.189    496.958    683.898    496.958    599.204    496.958
 49.670    906.000    921.858    -15.858    496.945    821.337    496.945    597.385    496.945
 49.770   1117.000   1141.281    -24.281    496.932   1050.693    496.932    587.397    496.932
 49.870   1393.256   1459.620    -66.364    496.922   1383.704    496.922    572.672    496.922
 49.970   1854.000   1852.538      1.462    496.912   1792.389    496.912    556.878    496.912
 50.070   2154.000   2239.501    -85.501    496.904   2193.781    496.904    542.474    496.904
 50.170   2512.000   2495.313     16.687    496.896   2461.521    496.896    530.630    496.896
 50.270   2534.778   2510.078     24.700    496.891   2485.424    496.891    521.607    496.891
 50.370   2312.158   2272.728     39.430    496.886   2254.638    496.886    515.131    496.886
 50.470   1897.000   1882.258     14.742    496.882   1868.651    496.882    510.677    496.882
 50.570   1496.000   1469.020     26.980    496.880   1458.390    496.880    507.682    496.880
 50.670   1067.000   1125.501    -58.501    496.879   1116.847    496.879    505.667    496.879
 50.770    832.593    887.994    -55.400    496.879    880.691    496.879    504.276    496.879
 50.870    702.000    748.444    -46.444    496.881    742.114    496.881    503.276    496.881
 50.970    630.872    677.193    -46.321    496.883    671.602    496.883    502.524    496.883
 51.070    617.569    642.655    -25.086    496.887    637.648    496.887    501.935    496.887
 51.170    700.000    622.029     77.971    496.892    617.496    496.892    501.462    496.892
 51.270    593.000    604.096    -11.096    496.898    599.950    496.898    501.074    496.898
 51.370    602.000    586.386     15.614    496.905    582.563    496.905    500.752    496.905
 51.470    607.000    570.149     36.851    496.913    566.596    496.913    500.484    496.913
 51.570    591.037    556.906     34.131    496.923    553.582    496.923    500.259    496.923
 51.670    548.000    547.274      0.726    496.933    544.145    496.933    500.070    496.933
 51.770    549.000    540.970      8.030    496.945    538.008    496.945    499.912    496.945
 51.870    550.769    537.241     13.528    496.958    534.423    496.958    499.780    496.958
 51.970    554.460    535.298     19.162    496.972    532.603    496.972    499.670    496.972
 52.070    563.000    534.568     28.432    496.987    531.979    496.987    499.579    496.987
 52.170    562.817    534.750     28.067    497.004    532.250    497.004    499.505    497.004
 52.270    504.000    535.790    -31.790    497.021    533.367    497.021    499.446    497.021
 52.370    520.000    537.893    -17.893    497.039    535.535    497.039    499.400    497.039
 52.470    605.000    541.668     63.332    497.059    539.363    497.059    499.365    497.059
 52.570    575.676    548.485     27.191    497.080    546.224    497.080    499.342    497.080
 52.670    542.250    561.047    -18.796    497.101    558.820    497.101    499.328    497.101
 52.770    604.000    583.958     20.042    497.124    581.758    497.124    499.323    497.124
 52.870    655.000    623.766     31.234    497.148    621.585    497.148    499.326    497.148
 52.970    708.000    687.667     20.333    497.173    685.499    497.173    499.337    497.173
 53.070    821.000    780.367     40.633    497.199    778.206    497.199    499.355    497.199
 53.170    906.000    899.567      6.433    497.226    897.409    497.226    499.381    497.226
 53.270   1078.000   1031.616     46.384    497.254   1029.458    497.254    499.413    497.254
 53.370   1107.689   1149.530    -41.841    497.283   1147.372    497.283    499.451    497.283
 53.470   1151.000   1217.881    -66.881    497.313   1215.721    497.313    499.496    497.313
 53.570   1160.790   1210.634    -49.844    497.344   1208.466    497.344    499.548    497.344
 53.670   1063.000   1131.072    -68.072    497.376   1128.886    497.376    499.605    497.376
 53.770   1028.000   1008.725     19.275    497.409   1006.507    497.409    499.669    497.409
 53.870    857.111    878.138    -21.027    497.443    875.879    497.443    499.739    497.443
 53.970    746.000    763.840    -17.840    497.478    761.530    497.478    499.815    497.478
 54.070    665.230    677.133    -11.903    497.514    674.768    497.514    499.898    497.514
 54.170    634.000    618.691     15.309    497.551    616.267    497.551    499.987    497.551
 54.270    613.000    583.066     29.934    497.589    580.579    497.589    500.084    497.589
 54.370    602.000    563.030     38.970    497.628    560.476    497.628    500.187    497.628
 54.470    601.000    552.367     48.633    497.668    549.739    497.668    500.298    497.668
 54.570    562.000    546.851     15.149    497.709    544.145    497.709    500.417    497.709
 54.670    522.285    544.068    -21.783    497.750    541.276    497.750    500.544    497.750
 54.770    494.571    542.810    -48.239    497.793    539.924    497.793    500.680    497.793
 54.870    540.856    542.532     -1.677    497.836    539.544    497.836    500.826    497.836
 54.970    544.000    543.012      0.988    497.881    539.911    497.881    500.982    497.881
 55.070    551.000    544.170      6.830    497.926    540.948    497.926    501.149    497.926
 55.170    577.311    546.003     31.308    497.972    542.649    497.972    501.328    497.972
 55.270    587.000    548.556     38.444    498.019    545.057    498.019    501.520    498.019
 55.370    580.795    551.924     28.871    498.067    548.267    498.067    501.726    498.067
 55.470    567.000    556.280     10.720    498.116    552.450    498.116    501.947    498.116
 55.570    563.547    561.950      1.597    498.166    557.930    498.166    502.186    498.166
 55.670    597.000    569.600     27.400    498.217    565.373    498.217    502.444    498.217
 55.770    594.843    580.670     14.173    498.268    576.215    498.268    502.722    498.268
 55.870    600.000    598.194      1.806    498.320    593.487    498.320    503.025    498.320
 55.970    599.000    628.108    -29.108    498.373    623.122    498.373    503.354    498.373
 56.070    705.000    680.774     24.226    498.427    675.477    498.427    503.712    498.427
 56.170    768.802    771.777     -2.975    498.482    766.132    498.482    504.105    498.482
 56.270    855.000    920.324    -65.324    498.537    914.290    498.537    504.536    498.537
 56.370   1180.381   1143.621     36.760    498.594   1137.153    498.594    505.010    498.594
 56.470   1468.000   1447.158     20.842    498.651   1440.212    498.651    505.535    498.651
 56.570   1692.000   1813.515   -121.515    498.708   1806.047    498.708    506.119    498.708
 56.670   2147.000   2194.059    -47.059    498.767   2186.026    498.767    506.770    498.767
 56.770   2527.147   2508.791     18.357    498.826   2500.143    498.826    507.500    498.826
 56.870   2536.000   2665.558   -129.558    498.887   2656.229    498.887    508.324    498.887
 56.970   2642.000   2608.811     33.189    498.947   2598.693    498.947    509.259    498.947
 57.070   2436.000   2361.268     74.732    499.009   2350.198    499.009    510.326    499.009
 57.170   2105.000   2004.642    100.358    499.071   1992.414    499.071    511.557    499.071
 57.270   1627.000   1627.921     -0.921    499.134   1614.293    499.134    512.991    499.134
 57.370   1313.000   1295.157     17.843    499.198   1279.848    499.198    514.689    499.198
 57.470    975.269   1038.003    -62.735    499.263   1020.648    499.263    516.748    499.263
 57.570    863.000    860.848      2.152    499.328    840.934    499.328    519.326    499.328
 57.670    779.367    751.336     28.030    499.393    728.095    499.393    522.685    499.393
 57.770    732.000    691.417     40.583    499.460    663.655    499.460    527.250    499.460
 57.870    632.851    665.264    -32.413    499.527    631.127    499.527    533.676    499.527
 57.970    688.543    662.902     25.641    499.595    619.591    499.595    542.907    499.595
 58.070    721.000    680.447     40.553    499.663    623.925    499.663    556.176    499.663
 58.170    699.917    718.490    -18.574    499.733    643.284    499.733    574.919    499.733
 58.270    776.280    779.730     -3.449    499.802    678.963    499.802    600.538    499.802
 58.370    876.000    866.423      9.577    499.873    732.226    499.873    634.028    499.873
 58.470    976.121    977.997     -1.876    499.944    802.406    499.944    675.482    499.944
 58.570   1147.000   1109.033     37.967    500.015    885.471    500.015    723.520    500.015
 58.670   1233.000   1248.289    -15.289    500.087    973.703    500.087    774.620    500.087
 58.770   1427.000   1379.744     47.256    500.160   1057.423    500.160    822.438    500.160
 58.870   1423.185   1485.909    -62.724    500.234   1128.253    500.234    857.863    500.234
 58.970   1594.000   1550.882     43.118    500.307   1179.623    500.307    871.560    500.307
 59.070   1584.000   1563.589     20.411    500.382   1204.744    500.382    859.243    500.382
 59.170   1523.000   1523.172     -0.172    500.457   1198.807    500.457    824.855    500.457
 59.270   1490.000   1442.230     47.770    500.533   1165.195    500.533    777.603    500.533
 59.370   1345.000   1342.370      2.630    500.609   1116.328    500.609    726.675    500.609
 59.470   1194.787   1245.546    -50.758    500.685   1067.675    500.685    678.555    500.685
 59.570   1177.201   1169.786      7.416    500.762   1033.619    500.762    636.893    500.762
 59.670   1135.000   1130.077      4.923    500.840   1027.675    500.840    603.161    500.840
 59.770   1142.000   1137.837      4.163    500.918   1061.292    500.918    577.329    500.918
 59.870   1130.524   1196.254    -65.730    500.997   1138.625    500.997    558.434    500.997
 59.970   1348.000   1295.585     52.415    501.076   1251.328    501.076    545.087    501.076
 60.070   1506.000   1411.667     94.333    501.156   1376.688    501.156    535.849    501.156
 60.170   1508.634   1508.437      0.198    501.236   1479.899    501.236    529.473    501.236
 60.270   1590.000   1547.353     42.647    501.316   1523.388    501.316    525.004    501.316
 60.370   1554.690   1505.814     48.875    501.397   1485.213    501.397    521.775    501.397
 60.470   1443.000   1391.104     51.896    501.479   1373.073    501.479    519.352    501.479
 60.570   1289.754   1233.036     56.718    501.561   1217.027    501.561    517.472    501.561
 60.670   1117.000   1065.650     51.350    501.643   1051.263    501.643    515.978    501.643
 60.770    970.000    915.103     54.897    501.725    902.023    501.725    514.782    501.725
 60.870    754.000    795.875    -41.875    501.809    783.841    501.809    513.833    501.809
 60.970    693.000    711.820    -18.820    501.892    700.601    501.892    513.105    501.892
 61.070    647.000    659.814    -12.814    501.976    649.199    501.976    512.584    501.976
 61.170    640.000    634.235      5.765    502.060    624.022    502.060    512.260    502.060
 61.270    630.000    630.668     -0.668    502.145    620.666    502.145    512.125    502.145
 61.370    678.282    647.933     30.349    502.230    637.969    502.230    512.161    502.230
 61.470    699.000    688.247     10.753    502.315    678.175    502.315    512.336    502.315
 61.570    807.000    755.672     51.328    502.400    745.400    502.400    512.598    502.400
 61.670    875.465    853.205     22.261    502.486    842.723    502.486    512.865    502.486
 61.770   1027.401    979.180     48.221    502.573    968.589    502.573    513.027    502.573
 61.870   1167.548   1124.046     43.502    502.659   1113.563    502.659    512.977    502.659
 61.970   1154.000   1268.654   -114.654    502.746   1258.563    502.746    512.653    502.746
 62.070   1413.000   1385.334     27.666    502.833   1375.902    502.833    512.082    502.833
 62.170   1423.706   1444.396    -20.691    502.921   1435.806    502.921    511.352    502.921
 62.270   1354.000   1427.725    -73.725    503.008   1420.049    503.008    510.567    503.008
 62.370   1397.445   1340.299     57.146    503.096   1333.516    503.096    509.809    503.096
 62.470   1232.000   1206.566     25.434    503.185   1200.590    503.185    509.129    503.185
 62.570   1053.127   1056.483     -3.356    503.273   1051.199    503.273    508.551    503.273
 62.670    934.000    914.648     19.352    503.362    909.935    503.362    508.083    503.362
 62.770    832.000    796.192     35.808    503.451    791.937    503.451    507.719    503.451
 62.870    689.861    706.870    -17.008    503.540    702.977    503.540    507.444    503.540
 62.970    593.833    645.300    -51.467    503.629    641.694    503.629    507.242    503.629
 63.070    593.000    606.133    -13.133    503.719    602.757    503.719    507.097    503.719
 63.170    577.305    582.959     -5.654    503.808    579.772    503.808    506.994    503.808
 63.270    556.402    570.236    -13.834    503.898    567.209    503.898    506.922    503.898
 63.370    524.000    564.124    -40.124    503.988    561.234    503.988    506.873    503.988
 63.470    589.000    562.568     26.432    504.079    559.799    504.079    506.841    504.079
 63.570    534.100    565.064    -30.964    504.169    562.401    504.169    506.823    504.169
 63.670    583.000    572.382     10.618    504.260    569.813    504.260    506.815    504.260
 63.770    588.000    586.303      1.697    504.350    583.817    504.350    506.816    504.350
 63.870    646.000    609.260     36.740    504.441    606.847    504.441    506.824    504.441
 63.970    633.000    643.730    -10.730    504.532    641.378    504.532    506.840    504.532
 64.070    740.000    691.316     48.684    504.623    689.015    504.623    506.862    504.623
 64.170    720.000    751.632    -31.632    504.714    749.375    504.714    506.889    504.714
 64.270    779.832    821.250    -41.418    504.805    819.031    504.805    506.921    504.805
 64.370    876.000    893.018    -17.018    504.896    890.836    504.896    506.958    504.896
 64.470   1003.075    956.291     46.784    504.988    954.150    504.988    506.999    504.988
 64.570    964.000    999.189    -35.189    505.079    997.096    505.079    507.044    505.079
 64.670    998.000   1013.285    -15.285    505.171   1011.249    505.171    507.093    505.171
 64.770    999.407    997.432      1.975    505.262    995.459    505.262    507.145    505.262
 64.870    898.000    957.232    -59.232    505.354    955.324    505.354    507.200    505.354
 64.970    907.114    901.987      5.127    505.445    900.140    505.445    507.258    505.445
 65.070    888.299    841.614     46.685    505.537    839.822    505.537    507.319    505.537
 65.170    764.000    783.957    -19.957    505.628    782.212    505.628    507.382    505.628
 65.270    710.000    733.335    -23.335    505.720    731.628    505.720    507.448    505.720
 65.370    642.660    690.897    -48.237    505.811    689.219    505.811    507.516    505.811
 65.470    655.000    656.115     -1.115    505.903    654.459    505.903    507.586    505.903
 65.570    648.000    628.115     19.885    505.994    626.474    505.994    507.659    505.994
 65.670    644.523    606.094     38.429    506.086    604.465    506.086    507.733    506.086
 65.770    595.000    589.286      5.714    506.177    587.666    506.177    507.810    506.177
 65.870    574.000    576.942     -2.942    506.268    575.331    506.268    507.886    506.268
 65.970    532.000    568.349    -36.349    506.360    566.745    506.360    507.966    506.360
 66.070    566.000    562.838      3.162    506.451    561.241    506.451    508.048    506.451
 66.170    556.000    559.802     -3.802    506.542    558.211    506.542    508.132    506.542
 66.270    558.551    558.725     -0.174    506.633    557.140    506.633    508.218    506.633
 66.370    583.064    559.228     23.836    506.724    557.646    506.724    508.305    506.724
 66.470    559.000    561.102     -2.102    506.815    559.523    506.815    508.394    506.815
 66.570    585.508    564.376     21.132    506.905    562.798    506.905    508.484    506.905
 66.670    588.000    569.411     18.589    506.996    567.831    506.996    508.576    506.996
 66.770    553.000    577.094    -24.094    507.086    575.510    507.086    508.670    507.086
 66.870    555.000    589.172    -34.172    507.176    587.583    507.176    508.766    507.176
 66.970    583.000    608.720    -25.720    507.266    607.121    507.266    508.864    507.266
 67.070    618.000    640.649    -22.649    507.356    639.038    507.356    508.963    507.356
 67.170    647.554    692.036    -44.482    507.446    690.410    507.446    509.064    507.446
 67.270    818.724    771.869     46.855    507.535    770.225    507.535    509.167    507.535
 67.370    856.000    889.793    -33.793    507.625    888.129    507.625    509.272    507.625
 67.470   1002.344   1053.616    -51.272    507.714   1051.932    507.714    509.378    507.714
 67.570   1240.000   1265.770    -25.770    507.803   1264.073    507.803    509.487    507.803
 67.670   1483.498   1519.539    -36.042    507.891   1517.835    507.891    509.599    507.891
 67.770   1746.000   1796.123    -50.123    507.980   1794.426    507.980    509.712    507.980
 67.870   1995.000   2063.631    -68.631    508.068   2061.954    508.068    509.828    508.068
 67.970   2264.000   2279.473    -15.473    508.156   2277.829    508.156    509.947    508.156
 68.070   2430.000   2399.298     30.702    508.243   2397.692    508.243    510.068    508.243
 68.170   2461.000   2393.928     67.072    508.331   2392.349    508.331    510.193    508.331
 68.270   2269.252   2264.855      4.398    508.418   2263.273    508.418    510.320    508.418
 68.370   2111.000   2043.296     67.704    508.505   2041.676    508.505    510.451    508.505
 68.470   1823.000   1773.946     49.054    508.591   1772.254    508.591    510.586    508.591
 68.570   1549.000   1498.671     50.329    508.678   1496.885    508.678    510.725    508.678
 68.670   1277.000   1248.280     28.720    508.763   1246.385    508.763    510.868    508.763
 68.770   1050.681   1040.478     10.203    508.849   1038.470    508.849    511.016    508.849
 68.870    853.000    881.085    -28.085    508.934    878.964    508.934    511.169    508.934
 68.970    786.000    767.069     18.931    509.019    764.838    509.019    511.328    509.019
 69.070    685.000    690.354     -5.354    509.104    688.015    509.104    511.494    509.104
 69.170    657.881    641.275     16.606    509.188    638.830    509.188    511.666    509.188
 69.270    644.000    610.976     33.024    509.272    608.423    509.272    511.846    509.272
 69.370    617.130    592.558     24.572    509.355    589.893    509.355    512.034    509.355
 69.470    629.000    581.261     47.739    509.438    578.477    509.438    512.232    509.438
 69.570    576.449    574.115      2.334    509.521    571.202    509.521    512.441    509.521
 69.670    591.841    569.406     22.434    509.603    566.354    509.603    512.661    509.603
 69.770    608.000    566.213     41.787    509.685    563.008    509.685    512.895    509.685
 69.870    562.369    564.062     -1.693    509.767    560.688    509.767    513.144    509.767
 69.970    598.000    562.716     35.284    509.848    559.156    509.848    513.410    509.848
 70.070    555.000    562.067     -7.067    509.928    558.301    509.928    513.695    509.928
 70.170    558.000    562.078     -4.078    510.008    558.084    510.008    514.003    510.008
 70.270    547.061    562.779    -15.717    510.088    558.530    510.088    514.336    510.088
 70.370    578.000    564.277     13.723    510.167    559.745    510.167    514.698    510.167
 70.470    582.000    566.815     15.185    510.246    561.965    510.246    515.094    510.246
 70.570    524.412    570.873    -46.461    510.324    565.663    510.324    515.529    510.324
 70.670    533.000    577.321    -44.321    510.402    571.704    510.402    516.011    510.402
 70.770    560.560    587.662    -27.102    510.480    581.581    510.480    516.550    510.480
 70.870    579.504    604.288    -24.784    510.556    597.670    510.556    517.157    510.556
 70.970    640.000    630.704      9.296    510.633    623.458    510.633    517.852    510.633
 71.070    653.000    671.575    -18.575    510.708    663.579    510.708    518.663    510.708
 71.170    737.000    732.394      4.606    510.784    723.479    510.784    519.639    510.784
 71.270    775.434    818.614    -43.180    510.858    808.536    510.858    520.853    510.858
 71.370    966.000    934.198     31.802    510.933    922.592    510.933    522.426    510.933
 71.470   1049.000   1079.775    -30.775    511.006   1066.093    511.006    524.545    511.006
 71.570   1187.000   1250.812    -63.812    511.079   1234.230    511.079    527.488    511.079
 71.670   1433.000   1436.295     -3.295    511.152   1415.604    511.152    531.646    511.152
 71.770   1647.768   1618.355     29.413    511.224   1591.841    511.224    537.528    511.224
 71.870   1692.107   1773.452    -81.345    511.295   1738.794    511.295    545.748    511.295
 71.970   1870.000   1876.414     -6.414    511.366   1830.631    511.366    556.965    511.366
 72.070   1936.000   1908.399     27.601    511.436   1847.909    511.436    571.778    511.436
 72.170   1868.000   1865.703      2.297    511.505   1786.520    511.505    590.580    511.505
 72.270   1788.000   1761.905     26.095    511.574   1660.029    511.574    613.380    511.574
 72.370   1617.000   1620.819     -3.819    511.643   1492.798    511.643    639.622    511.643
 72.470   1497.000   1466.890     30.110    511.710   1310.552    511.710    668.027    511.710
 72.570   1284.163   1319.149    -34.987    511.777   1134.453    511.777    696.464    511.777
 72.670   1193.185   1188.989      4.196    511.844    978.912    511.844    721.918    511.844
 72.770   1032.000   1080.273    -48.273    511.909    851.431    511.909    740.750    511.909
 72.870   1002.395    991.185     11.210    511.974    753.600    511.974    749.558    511.974
 72.970    877.000    917.283    -40.283    512.039    682.798    512.039    746.522    512.039
 73.070    785.000    854.332    -69.332    512.102    634.105    512.102    732.327    512.102
 73.170    821.378    799.596     21.782    512.165    601.981    512.165    709.778    512.165
 73.270    706.000    751.701    -45.701    512.228    581.400    512.228    682.527    512.228
 73.370    719.394    710.057      9.337    512.289    568.408    512.289    653.937    512.289
 73.470    644.000    674.451    -30.451    512.350    560.228    512.350    626.574    512.350
 73.570    608.000    644.797    -36.797    512.410    555.089    512.410    602.120    512.410
 73.670    658.216    620.959     37.256    512.470    551.966    512.470    581.467    512.470
 73.770    572.000    602.640    -30.640    512.529    550.314    512.529    564.860    512.529
 73.870    605.798    589.337     16.461    512.587    549.859    512.587    552.074    512.587
 73.970    568.000    580.370    -12.370    512.644    550.439    512.644    542.589    512.644
 74.070    545.988    574.940    -28.952    512.700    551.897    512.700    535.762    512.700
 74.170    637.000    572.183     64.817    512.756    554.016    512.756    530.948    512.756
 74.270    644.000    571.218     72.782    512.811    556.475    512.811    527.584    512.811
 74.370    625.000    571.173     53.827    512.865    558.854    512.865    525.221    512.865
 74.470    642.000    571.220     70.780    512.919    560.652    512.919    523.528    512.919
 74.570    603.000    570.654     32.347    512.971    561.393    512.971    522.276    512.971
 74.670    642.000    569.024     72.976    513.023    560.777    513.023    521.316    513.023
 74.770    585.120    566.248     18.872    513.074    558.813    513.074    520.551    513.074
 74.870    535.322    562.591    -27.269    513.124    555.829    513.124    519.924    513.124
 74.970    572.000    558.524     13.476    513.174    552.333    513.174    519.397    513.174
 75.070    542.988    554.577    -11.589    513.222    548.878    513.222    518.947    513.222
 75.170    593.600    551.263     42.336    513.270    545.994    513.270    518.559    513.270
 75.270    594.000    549.061     44.939    513.317    544.171    513.317    518.221    513.317
 75.370    569.000    548.441     20.559    513.363    543.886    513.363    517.925    513.363
 75.470    600.000    549.886     50.114    513.408    545.630    513.408    517.665    513.408
 75.570    544.467    553.910     -9.444    513.453    549.922    513.453    517.437    513.453
 75.670    562.000    561.031      0.969    513.496    557.283    513.496    517.235    513.496
 75.770    594.000    571.693     22.307    513.539    568.159    513.539    517.056    513.539
 75.870    541.949    586.127    -44.178    513.580    582.786    513.580    516.897    513.580
 75.970    622.000    604.187     17.813    513.621    601.019    513.621    516.756    513.621
 76.070    608.000    625.181    -17.181    513.661    622.170    513.661    516.630    513.661
 76.170    674.703    647.761     26.942    513.700    644.893    513.700    516.518    513.700
 76.270    661.895    669.893     -7.997    513.738    667.156    513.738    516.418    513.738
 76.370    742.000    688.952     53.048    513.776    686.337    513.776    516.328    513.776
 76.470    710.643    702.055      8.587    513.812    699.556    513.812    516.248    513.812
 76.570    682.517    706.780    -24.263    513.847    704.390    513.847    516.176    513.847
 76.670    728.000    702.114     25.886    513.882    699.829    513.882    516.111    513.882
 76.770    666.725    688.948    -22.222    513.915    686.763    513.915    516.053    513.915
 76.870    643.000    669.631    -26.631    513.948    667.541    513.948    516.000    513.948
 76.970    592.000    647.026    -55.026    513.980    645.024    513.980    515.953    513.980
 77.070    667.921    623.766     44.155    514.010    621.844    514.010    515.911    514.010
 77.170    568.000    601.898    -33.898    514.040    600.051    514.040    515.872    514.040
 77.270    568.000    582.771    -14.771    514.069    580.993    514.069    515.838    514.069
 77.370    540.630    567.054    -26.424    514.097    565.338    514.097    515.806    514.097
 77.470    488.000    554.841    -66.841    514.124    553.183    514.124    515.778    514.124
 77.570    556.000    545.816     10.184    514.149    544.210    514.149    515.752    514.149
 77.670    533.000    539.435     -6.435    514.174    537.879    514.174    515.729    514.174
 77.770    530.000    535.086     -5.086    514.198    533.576    514.198    515.707    514.198
 77.870    513.000    532.200    -19.200    514.221    530.732    514.221    515.688    514.221
 77.970    506.000    530.311    -24.311    514.243    528.883    514.243    515.670    514.243
 78.070    534.000    529.072      4.928    514.264    527.681    514.264    515.654    514.264
 78.170    535.000    528.244      6.756    514.284    526.888    514.284    515.639    514.284
 78.270    531.000    527.681      3.319    514.303    526.357    514.303    515.626    514.303
 78.370    462.000    527.291    -65.291    514.320    525.997    514.320    515.613    514.320
 78.470    546.000    527.026     18.974    514.337    525.761    514.337    515.602    514.337
 78.570    525.000    526.865     -1.865    514.353    525.626    514.353    515.591    514.353
 78.670    530.000    526.803      3.197    514.368    525.588    514.368    515.582    514.368
 78.770    546.000    526.847     19.153    514.381    525.655    514.381    515.573    514.381
 78.870    503.000    526.998    -23.998    514.394    525.825    514.394    515.566    514.394
 78.970    524.000    527.295     -3.295    514.405    526.139    514.405    515.560    514.405
 79.070    541.000    527.804     13.196    514.416    526.662    514.416    515.556    514.416
 79.170    503.000    528.535    -25.535    514.425    527.404    514.425    515.554    514.425
 79.270    519.000    529.518    -10.518    514.434    528.394    514.434    515.556    514.434
 79.370    506.000    530.784    -24.784    514.441    529.661    514.441    515.561    514.441
 79.470    502.000    532.360    -30.360    514.447    531.232    514.447    515.571    514.447
 79.570    559.244    534.277     24.967    514.452    533.137    514.452    515.588    514.452
 79.670    544.000    536.582      7.418    514.456    535.422    514.456    515.612    514.456
 79.770    507.676    539.356    -31.680    514.459    538.165    514.459    515.644    514.459
 79.870    535.000    542.732     -7.732    514.461    541.503    514.461    515.684    514.461
 79.970    512.000    546.931    -34.931    514.462    545.654    514.462    515.733    514.462
 80.070    566.000    552.281     13.719    514.461    550.950    514.461    515.788    514.461
 80.170    600.000    559.223     40.777    514.460    557.830    514.460    515.849    514.460
 80.270    564.000    568.257     -4.257    514.457    566.802    514.457    515.911    514.457
 80.370    580.379    579.846      0.533    514.454    578.331    514.454    515.970    514.454
 80.470    562.000    594.291    -32.291    514.449    592.725    514.449    516.020    514.449
 80.570    635.269    611.619     23.650    514.443    610.018    514.443    516.053    514.443
 80.670    624.000    631.494     -7.494    514.436    629.880    514.436    516.063    514.436
 80.770    639.000    653.166    -14.166    514.427    651.567    514.427    516.046    514.427
 80.870    649.000    675.497    -26.497    514.418    673.939    514.418    516.002    514.418
 80.970    676.324    697.083    -20.759    514.408    695.588    514.408    515.935    514.408
 81.070    772.000    716.461     55.539    514.396    715.045    514.396    515.850    514.396
 81.170    757.766    732.310     25.456    514.383    730.982    514.383    515.756    514.383
 81.270    763.000    743.572     19.428    514.369    742.335    514.369    515.659    514.369
 81.370    769.000    749.534     19.466    514.354    748.384    514.354    515.562    514.354
 81.470    757.000    749.911      7.089    514.338    748.841    514.338    515.471    514.338
 81.570    763.000    744.868     18.132    514.320    743.868    514.320    515.385    514.320
 81.670    789.000    734.950     54.050    514.302    734.011    514.302    515.308    514.302
 81.770    715.000    721.048     -6.048    514.282    720.159    514.282    515.239    514.282
 81.870    703.000    704.357     -1.357    514.261    703.508    514.261    515.177    514.261
 81.970    638.000    686.214    -48.214    514.239    685.396    514.239    515.122    514.239
 82.070    590.000    667.821    -77.821    514.216    667.027    514.216    515.072    514.216
 82.170    672.000    650.027     21.973    514.191    649.250    514.191    515.026    514.191
 82.270    646.628    633.284     13.344    514.166    632.520    514.166    514.984    514.166
 82.370    565.000    617.764    -52.764    514.139    617.008    514.139    514.944    514.139
 82.470    614.000    603.540     10.460    514.111    602.789    514.111    514.906    514.111
 82.570    548.304    590.714    -42.410    514.081    589.965    514.081    514.868    514.081
 82.670    570.716    579.446     -8.730    514.051    578.698    514.051    514.831    514.051
 82.770    591.104    569.913     21.191    514.019    569.164    514.019    514.793    514.019
 82.870    531.827    562.267    -30.440    513.987    561.517    513.987    514.755    513.987
 82.970    597.520    556.624     40.896    513.952    555.871    513.952    514.717    513.952
 83.070    543.000    553.047    -10.047    513.917    552.290    513.917    514.678    513.917
 83.170    534.000    551.530    -17.530    513.881    550.769    513.881    514.639    513.881
 83.270    525.000    551.978    -26.978    513.843    551.212    513.843    514.598    513.843
 83.370    574.422    554.186     20.236    513.804    553.415    513.804    514.557    513.804
 83.470    565.000    557.825      7.175    513.764    557.049    513.764    514.515    513.764
 83.570    574.000    562.445     11.555    513.723    561.664    513.723    514.472    513.723
 83.670    559.000    567.480     -8.480    513.680    566.694    513.680    514.429    513.680
 83.770    530.107    572.278    -42.171    513.637    571.488    513.637    514.384    513.637
 83.870    542.000    576.150    -34.150    513.592    575.357    513.592    514.339    513.592
 83.970    603.520    578.462     25.058    513.546    577.668    513.546    514.292    513.546
 84.070    576.000    578.765     -2.765    513.498    577.972    513.498    514.245    513.498
 84.170    563.000    576.926    -13.926    513.450    576.136    513.450    514.197    513.450
 84.270    560.000    573.159    -13.159    513.400    572.372    513.400    514.148    513.400
 84.370    559.000    567.937     -8.937    513.349    567.154    513.349    514.098    513.349
 84.470    557.000    561.841     -4.841    513.296    561.063    513.296    514.047    513.296
 84.570    521.000    555.442    -34.442    513.243    554.667    513.243    513.995    513.243
 84.670    575.662    549.221     26.440    513.188    548.449    513.188    513.942    513.188
 84.770    577.153    543.538     33.615    513.132    542.768    513.132    513.888    513.132
 84.870    531.000    538.621     -7.621    513.075    537.852    513.075    513.833    513.075
 84.970    555.186    534.576     20.610    513.017    533.807    513.017    513.777    513.017
 85.070    567.000    531.406     35.594    512.957    530.636    512.957    513.720    512.957
 85.170    505.000    529.041    -24.041    512.896    528.269    512.896    513.662    512.896
 85.270    499.994    527.371    -27.378    512.834    526.597    512.834    513.604    512.834
 85.370    536.952    526.277     10.676    512.770    525.499    512.770    513.544    512.770
 85.470    556.110    525.647     30.463    512.706    524.865    512.706    513.483    512.706
 85.570    491.345    525.400    -34.055    512.640    524.614    512.640    513.422    512.640
 85.670    545.000    525.490     19.510    512.573    524.698    512.573    513.359    512.573
 85.770    559.000    525.909     33.091    512.504    525.111    512.504    513.296    512.504
 85.870    547.000    526.695     20.305    512.435    525.891    512.435    513.231    512.435
 85.970    550.000    527.930     22.070    512.364    527.119    512.364    513.166    512.364
 86.070    571.920    529.739     42.182    512.292    528.919    512.292    513.100    512.292
 86.170    550.000    532.282     17.718    512.219    531.452    512.219    513.033    512.219
 86.270    545.000    535.746      9.254    512.144    534.905    512.144    512.965    512.144
 86.370    558.000    540.324     17.676    512.068    539.471    512.068    512.896    512.068
 86.470    588.671    546.188     42.483    511.991    545.320    511.991    512.826    511.991
 86.570    592.772    553.438     39.334    511.913    552.554    511.913    512.756    511.913
 86.670    588.314    562.103     26.211    511.834    561.200    511.834    512.684    511.834
 86.770    602.155    572.057     30.098    511.753    571.135    511.753    512.612    511.753
 86.870    543.615    582.987    -39.372    511.671    582.044    511.671    512.539    511.671
 86.970    576.350    594.393    -18.042    511.588    593.428    511.588    512.465    511.588
 87.070    640.000    605.585     34.415    511.503    604.600    511.503    512.390    511.503
 87.170    682.000    615.714     66.286    511.418    614.710    511.418    512.315    511.418
 87.270    577.087    623.850    -46.763    511.331    622.829    511.331    512.239    511.331
 87.370    644.000    629.124     14.876    511.243    628.090    511.243    512.162    511.243
 87.470    602.500    630.934    -28.434    511.154    629.891    511.154    512.085    511.154
 87.570    638.000    629.119      8.881    511.063    628.071    511.063    512.007    511.063
 87.670    674.000    624.011     49.989    510.971    622.960    510.971    511.928    510.971
 87.770    614.000    616.327     -2.327    510.878    615.274    510.878    511.849    510.878
 87.870    650.000    606.988     43.012    510.784    605.935    510.784    511.769    510.784
 87.970    577.000    596.972    -19.972    510.689    595.916    510.689    511.689    510.689
 88.070    539.305    587.200    -47.895    510.592    586.142    510.592    511.608    510.592
 88.170    600.145    578.472     21.673    510.494    577.409    510.494    511.527    510.494
 88.270    588.000    571.417     16.583    510.395    570.346    510.395    511.446    510.395
 88.370    555.000    566.468    -11.468    510.295    565.388    510.295    511.364    510.295
 88.470    590.000    563.856     26.144    510.193    562.765    510.193    511.282    510.193
 88.570    545.362    563.614    -18.251    510.090    562.510    510.090    511.200    510.090
 88.670    592.000    565.586     26.414    509.987    564.468    509.987    511.118    509.987
 88.770    584.008    569.453     14.555    509.881    568.319    509.881    511.036    509.881
 88.870    603.000    574.744     28.256    509.775    573.595    509.775    510.953    509.775
 88.970    546.000    580.872    -34.872    509.668    579.704    509.668    510.871    509.668
 89.070    561.000    587.150    -26.150    509.559    585.962    509.559    510.790    509.559
 89.170    618.000    592.837     25.163    509.449    591.628    509.449    510.709    509.449
 89.270    623.000    597.200     25.800    509.338    595.966    509.338    510.629    509.338
 89.370    581.053    599.610    -18.556    509.226    598.346    509.226    510.549    509.226
 89.470    601.000    599.660      1.340    509.112    598.364    509.112    510.471    509.112
 89.570    560.000    597.268    -37.268    508.997    595.935    508.997    510.394    508.997
 89.670    598.759    592.682      6.076    508.882    591.307    508.882    510.318    508.882
 89.770    613.000    586.390     26.610    508.765    584.968    508.765    510.244    508.765
 89.870    516.000    578.995    -62.995    508.646    577.522    508.646    510.172    508.646
 89.970    541.000    571.098    -30.098    508.527    569.569    508.527    510.101    508.527
 90.070    539.000    563.232    -24.232    508.407    561.643    508.407    510.034    508.407
 90.170    515.104    555.822    -40.718    508.285    554.169    508.285    509.970    508.285
 90.270    580.593    549.173     31.420    508.162    547.451    508.162    509.909    508.162
 90.370    511.000    543.466    -32.466    508.038    541.671    508.038    509.852    508.038
 90.470    540.673    538.774      1.899    507.913    536.901    507.913    509.801    507.913
 90.570    521.000    535.082    -14.082    507.787    533.124    507.787    509.756    507.787
 90.670    489.395    532.311    -42.916    507.660    530.259    507.660    509.718    507.660
 90.770    566.223    530.347     35.877    507.531    528.192    507.531    509.690    507.531
 90.870    523.975    529.068     -5.093    507.401    526.797    507.401    509.675    507.401
 90.970    570.356    528.362     41.994    507.271    525.958    507.271    509.676    507.271
 91.070    523.000    528.141     -5.141    507.139    525.582    507.139    509.698    507.139
 91.170    510.000    528.354    -18.354    507.006    525.610    507.006    509.749    507.006
 91.270    536.803    528.989      7.814    506.872    526.022    506.872    509.837    506.872
 91.370    486.456    530.078    -43.622    506.737    526.835    506.737    509.977    506.737
 91.470    511.000    531.664    -20.664    506.600    528.077    506.600    510.183    506.600
 91.570    504.000    533.946    -29.946    506.463    529.927    506.463    510.476    506.463
 91.670    546.457    537.088      9.369    506.324    532.524    506.324    510.881    506.324
 91.770    534.024    541.290     -7.266    506.185    536.039    506.185    511.426    506.185
 91.870    516.000    546.796    -30.796    506.044    540.685    506.044    512.142    506.044
 91.970    545.889    553.866     -7.977    505.902    546.687    505.902    513.065    505.902
 92.070    522.410    562.750    -40.341    505.760    554.262    505.760    514.228    505.760
 92.170    594.327    573.666     20.662    505.616    563.594    505.616    515.661    505.616
 92.270    563.000    586.766    -23.766    505.471    574.813    505.471    517.392    505.471
 92.370    564.878    602.100    -37.222    505.325    587.954    505.325    519.432    505.325
 92.470    630.000    619.591     10.409    505.178    602.939    505.178    521.784    505.178
 92.570    597.909    639.010    -41.101    505.030    619.559    505.030    524.428    505.030
 92.670    706.000    659.962     46.038    504.881    637.460    504.881    527.323    504.881
 92.770    688.000    681.877      6.123    504.731    656.139    504.731    530.402    504.731
 92.870    732.000    704.030     27.970    504.580    674.968    504.580    533.570    504.580
 92.970    750.846    725.592     25.254    504.428    693.245    504.428    536.698    504.428
 93.070    781.000    745.730     35.270    504.275    710.300    504.275    539.626    504.275
 93.170    772.000    763.750      8.250    504.120    725.624    504.120    542.167    504.120
 93.270    824.000    779.210     44.790    503.965    738.978    503.965    544.119    503.965
 93.370    863.000    791.971     71.029    503.809    750.406    503.809    545.297    503.809
 93.470    837.326    802.162     35.164    503.652    760.172    503.652    545.567    503.652
 93.570    798.000    810.109    -12.109    503.494    768.641    503.494    544.888    503.494
 93.670    836.000    816.246     19.754    503.335    776.192    503.335    543.319    503.335
 93.770    818.965    821.120     -2.156    503.175    783.229    503.175    540.999    503.175
 93.870    834.000    825.391      8.609    503.015    790.221    503.015    538.119    503.015
 93.970    857.000    829.810     27.190    502.853    797.719    502.853    534.879    502.853
 94.070    872.085    835.112     36.973    502.690    806.275    502.690    531.466    502.690
 94.170    820.000    841.849    -21.849    502.526    816.282    502.526    528.033    502.526
 94.270    939.000    850.200     88.800    502.362    827.798    502.362    524.705    502.362
 94.370    838.000    859.861    -21.861    502.196    840.427    502.196    521.574    502.196
 94.470    880.000    870.012      9.988    502.030    853.286    502.030    518.702    502.030
 94.570    857.213    879.378    -22.166    501.863    865.064    501.863    516.128    501.863
 94.670    913.000    886.371     26.629    501.695    874.156    501.695    513.866    501.695
 94.770    877.000    889.318    -12.318    501.526    878.892    501.526    511.916    501.526
 94.870    920.000    886.780     33.220    501.356    877.849    501.356    510.259    501.356
 94.970    915.000    877.900     37.100    501.185    870.194    501.185    508.872    501.185
 95.070    900.353    862.633     37.720    501.014    855.915    501.014    507.721    501.014
 95.170    904.000    841.770     62.230    500.841    835.836    500.841    506.773    500.841
 95.270    850.000    816.751     33.249    500.668    811.428    500.668    505.994    500.668
 95.370    820.000    789.392     30.608    500.494    784.541    500.494    505.353    500.494
 95.470    803.760    761.644     42.117    500.319    757.151    500.319    504.822    500.319
 95.570    735.205    735.424     -0.219    500.144    731.201    500.144    504.376    500.144
 95.670    744.000    712.518     31.482    499.968    708.495    499.968    503.998    499.968
 95.770    695.770    694.526      1.244    499.790    690.649    499.790    503.671    499.790
 95.870    639.415    682.825    -43.410    499.612    679.052    499.612    503.384    499.612
 95.970    649.000    678.629    -29.629    499.434    674.928    499.434    503.127    499.434
 96.070    647.000    682.918    -35.918    499.254    679.262    499.254    502.895    499.254
 96.170    648.754    696.486    -47.732    499.074    692.854    499.074    502.681    499.074
 96.270    767.006    719.918     47.087    498.893    716.293    498.893    502.484    498.893
 96.370    741.000    753.561    -12.561    498.712    749.926    498.712    502.300    498.712
 96.470    768.000    797.438    -29.438    498.530    793.781    498.530    502.129    498.530
 96.570    823.000    851.160    -28.160    498.347    847.469    498.347    501.969    498.347
 96.670    936.000    913.814     22.186    498.163    910.078    498.163    501.819    498.163
 96.770    953.329    983.870    -30.541    497.979    980.079    497.979    501.680    497.979
 96.870    999.000   1059.113    -60.113    497.794   1055.258    497.794    501.551    497.794
 96.970   1201.000   1136.627     64.373    497.608   1132.702    497.608    501.432    497.608
 97.070   1181.000   1212.831    -31.831    497.422   1208.827    497.422    501.324    497.422
 97.170   1309.000   1283.590     25.410    497.235   1279.501    497.235    501.226    497.235
 97.270   1382.000   1344.468     37.532    497.048   1340.286    497.048    501.140    497.048
 97.370   1459.829   1391.143     68.686    496.860   1386.862    496.860    501.066    496.860
 97.470   1412.000   1420.022     -8.022    496.671   1415.632    496.671    501.004    496.671
 97.570   1360.995   1428.897    -67.901    496.482   1424.385    496.482    500.957    496.482
 97.670   1371.100   1417.397    -46.298    496.292   1412.750    496.292    500.925    496.292
 97.770   1381.000   1387.010     -6.010    496.102   1382.207    496.102    500.911    496.102
 97.870   1330.388   1340.678    -10.290    495.911   1335.697    495.911    500.916    495.911
 97.970   1330.833   1282.217     48.616    495.719   1277.031    495.719    500.944    495.719
 98.070   1198.000   1215.776    -17.776    495.527   1210.352    495.527    501.000    495.527
 98.170   1155.000   1145.459      9.541    495.335   1139.760    495.335    501.089    495.335
 98.270   1037.000   1075.084    -38.084    495.142   1069.064    495.142    501.219    495.142
 98.370   1019.000   1008.035     10.965    494.949   1001.637    494.949    501.402    494.949
 98.470    889.264    947.189    -57.926    494.755    940.343    494.755    501.651    494.755
 98.570    840.000    894.904    -54.904    494.561    887.521    494.561    501.987    494.561
 98.670    855.000    853.037      1.963    494.366    845.003    494.366    502.435    494.366
 98.770    805.618    823.003    -17.386    494.171    814.173    494.171    503.027    494.171
 98.870    855.022    805.849     49.172    493.976    796.034    493.976    503.806    493.976
 98.970    751.000    802.331    -51.331    493.780    791.292    493.780    504.824    493.780
 99.070    783.853    812.976    -29.123    493.583    800.413    493.583    506.143    493.583
 99.170    838.524    838.123      0.401    493.387    823.660    493.387    507.837    493.387
 99.270    857.000    877.909    -20.909    493.190    861.089    493.190    509.991    493.190
 99.370    884.143    932.230    -48.086    492.993    912.501    492.993    512.697    492.993
 99.470    956.888   1000.651    -43.763    492.795    977.365    492.795    516.054    492.795
 99.570   1102.310   1082.358     19.952    492.597   1054.769    492.597    520.158    492.597
 99.670   1110.581   1175.996    -65.414    492.399   1143.267    492.399    525.103    492.399
 99.770   1292.944   1279.585     13.359    492.200   1240.802    492.200    530.966    492.200
 99.870   1331.000   1390.465    -59.465    492.002   1344.660    492.002    537.799    492.002
 99.970   1515.000   1505.268      9.732    491.803   1451.453    491.803    545.625    491.803
100.070   1571.444   1619.983    -48.540    491.604   1557.193    491.604    554.421    491.604
100.170   1774.019   1730.155     43.864    491.404   1657.497    491.404    564.111    491.404
100.270   1883.000   1831.221     51.779    491.205   1747.938    491.205    574.563    491.205
100.370   1999.643   1918.933     80.709    491.005   1824.468    491.005    585.573    491.005
100.470   2050.000   1989.719     60.281    490.805   1883.785    490.805    596.868    490.805
100.570   2044.000   2040.847      3.153    490.605   1923.508    490.605    608.098    490.605
100.670   2089.962   2070.407     19.554    490.405   1942.151    490.405    618.837    490.405
100.770   2105.000   2077.256     27.744    490.204   1939.062    490.204    628.593    490.204
100.870   2012.448   2061.100    -48.652    490.004   1914.484    490.004    636.829    490.004
100.970   1969.891   2022.754    -52.862    489.804   1869.765    489.804    643.010    489.804
101.070   1881.994   1964.398    -82.404    489.603   1807.547    489.603    646.675    489.603
101.170   1947.514   1889.605     57.908    489.402   1731.707    489.402    647.519    489.402
101.270   1794.000   1803.026     -9.026    489.202   1646.984    489.202    645.454    489.202
101.370   1696.021   1709.831    -13.811    489.001   1558.397    489.001    640.635    489.001
101.470   1592.000   1615.119    -23.119    488.801   1470.685    488.801    633.420    488.801
101.570   1499.000   1523.419    -24.419    488.600   1387.888    488.600    624.300    488.600
101.670   1473.000   1438.376     34.624    488.399   1313.111    488.399    613.817    488.399
101.770   1321.000   1362.585    -41.585    488.199   1248.420    488.199    602.500    488.199
101.870   1252.092   1297.535    -45.442    487.999   1194.830    487.999    590.824    487.999
101.970   1281.191   1243.643     37.548    487.798   1152.355    487.798    579.193    487.798
102.070   1154.000   1200.350    -46.350    487.598   1120.109    487.598    567.936    487.598
102.170   1148.000   1166.254    -18.254    487.398   1096.437    487.398    557.304    487.398
102.270   1146.000   1139.297      6.703    487.198   1079.100    487.198    547.479    487.198
102.370   1051.986   1116.991    -65.005    486.998   1065.493    486.998    538.577    486.998
102.470   1079.000   1096.700    -17.700    486.799   1052.922    486.799    530.657    486.799
102.570   1082.000   1075.958      6.042    486.599   1038.910    486.599    523.728    486.599
102.670   1014.886   1052.790    -37.905    486.400   1021.515    486.400    517.759    486.400
102.770   1061.000   1025.951     35.049    486.201    999.549    486.201    512.687    486.201
102.870    988.000    995.000     -7.000    486.003    972.657    486.003    508.430    486.003
102.970    977.000    960.216     16.784    485.805    941.210    485.805    504.894    485.805
103.070    901.000    922.395    -21.395    485.607    906.102    485.607    501.980    485.607
103.170    860.000    882.626    -22.626    485.409    868.520    485.409    499.591    485.409
103.270    839.927    842.101     -2.174    485.212    829.747    485.212    497.637    485.212
103.370    808.000    801.985      6.015    485.015    791.029    485.015    496.036    485.015
103.470    781.000    763.324     17.676    484.818    753.483    484.818    494.717    484.818
103.570    733.221    726.992      6.229    484.622    718.044    484.622    493.622    484.622
103.670    727.000    693.656     33.344    484.426    685.427    484.426    492.700    484.426
103.770    705.651    663.763     41.888    484.231    656.118    484.231    491.914    484.231
103.870    662.000    637.540     24.460    484.036    630.377    484.036    491.232    484.036
103.970    628.000    615.023     12.977    483.842    608.261    483.842    490.630    483.842
104.070    625.000    596.081     28.919    483.648    589.659    483.648    490.091    483.648
104.170    561.000    580.459    -19.459    483.455    574.328    483.455    489.602    483.455
104.270    564.752    567.816     -3.064    483.262    561.939    483.262    489.151    483.262
104.370    555.056    557.794     -2.737    483.070    552.140    483.070    488.733    483.070
104.470    533.000    550.001    -17.001    482.878    544.545    482.878    488.341    482.878
104.570    548.000    544.071      3.929    482.687    538.791    482.687    487.971    482.687
104.670    554.000    539.674     14.326    482.497    534.553    482.497    487.621    482.497
104.770    490.448    536.532    -46.083    482.307    531.552    482.307    487.288    482.307
104.870    578.000    534.419     43.581    482.118    529.567    482.118    486.970    482.118
104.970    510.684    533.165    -22.482    481.930    528.428    481.930    486.665    481.930
105.070    522.466    532.656    -10.190    481.743    528.021    481.743    486.374    481.743
105.170    538.000    532.825      5.175    481.556    528.283    481.556    486.093    481.556
105.270    534.000    533.652      0.348    481.370    529.191    481.370    485.824    481.370
105.370    545.000    535.156      9.844    481.185    530.768    481.185    485.565    481.185
105.470    525.000    537.391    -12.391    481.001    533.068    481.001    485.315    481.001
105.570    560.000    540.441     19.559    480.817    536.173    480.817    485.073    480.817
105.670    526.945    544.404    -17.459    480.634    540.184    480.634    484.841    480.634
105.770    595.332    549.384     45.947    480.453    545.205    480.453    484.616    480.453
105.870    549.000    555.479     -6.479    480.272    551.333    480.272    484.398    480.272
105.970    547.000    562.754    -15.754    480.092    558.641    480.092    484.183    480.092
106.070    605.000    571.253     33.747    479.913    567.160    479.913    483.980    479.913
106.170    569.000    580.950    -11.950    479.735    576.873    479.735    483.784    479.735
106.270    624.000    591.765     32.235    479.559    587.697    479.559    483.595    479.559
106.370    569.000    603.548    -34.548    479.383    599.483    479.383    483.412    479.383
106.470    606.000    616.077    -10.077    479.208    612.011    479.208    483.236    479.208
106.570    644.795    629.062     15.733    479.035    624.989    479.035    483.066    479.035
106.670    668.592    642.150     26.442    478.862    638.067    478.862    482.902    478.862
106.770    607.676    654.938    -47.261    478.691    650.839    478.691    482.744    478.691
106.870    668.000    666.986      1.014    478.520    662.869    478.520    482.591    478.520
106.970    643.052    677.846    -34.794    478.351    673.716    478.351    482.435    478.351
107.070    652.000    687.127    -35.127    478.184    682.971    478.184    482.295    478.184
107.170    711.000    694.498     16.502    478.017    690.311    478.017    482.161    478.017
107.270    694.000    699.776     -5.776    477.852    695.554    477.852    482.034    477.852
107.370    667.963    702.957    -34.994    477.688    698.696    477.688    481.912    477.688
107.470    695.555    704.229     -8.675    477.525    699.924    477.525    481.798    477.525
107.570    656.000    703.941    -47.941    477.364    699.587    477.364    481.689    477.364
107.670    657.000    702.542    -45.542    477.204    698.135    477.204    481.587    477.204
107.770    693.000    700.516     -7.516    477.046    696.050    477.046    481.492    477.046
107.870    744.004    698.317     45.687    476.889    693.787    476.889    481.404    476.889
107.970    662.000    696.327    -34.327    476.733    691.726    476.733    481.322    476.733
108.070    703.462    694.818      8.644    476.579    690.142    476.579    481.248    476.579
108.170    690.054    693.939     -3.886    476.427    689.181    476.427    481.182    476.427
108.270    737.148    693.709     43.439    476.276    688.862    476.276    481.123    476.276
108.370    656.000    694.010    -38.010    476.126    689.068    476.126    481.072    476.126
108.470    714.000    694.606     19.394    475.979    689.562    475.979    481.030    475.979
108.570    704.208    695.158      9.050    475.832    690.005    475.832    480.996    475.832
108.670    693.000    695.258     -2.258    475.688    689.989    475.688    480.971    475.688
108.770    709.000    694.476     14.524    475.545    689.082    475.545    480.956    475.545
108.870    678.996    692.415    -13.418    475.404    686.887    475.404    480.951    475.404
108.970    681.414    688.772     -7.357    475.265    683.101    475.265    480.957    475.265
109.070    633.830    683.386    -49.556    475.127    677.563    475.127    480.973    475.127
109.170    725.839    676.257     49.582    474.991    670.272    474.991    481.001    474.991
109.270    719.000    667.536     51.464    474.857    661.377    474.857    481.041    474.857
109.370    699.000    657.489     41.511    474.725    651.145    474.725    481.094    474.725
109.470    642.000    646.455     -4.455    474.595    639.912    474.595    481.161    474.595
109.570    627.000    634.802     -7.802    474.467    628.048    474.467    481.243    474.467
109.670    612.000    622.897    -10.897    474.341    615.918    474.341    481.340    474.341
109.770    623.000    611.086     11.914    474.217    603.867    474.217    481.454    474.217
109.870    604.000    599.672      4.328    474.094    592.197    474.094    481.587    474.094
109.970    559.948    588.893    -28.945    473.974    581.143    473.974    481.739    473.974
110.070    627.000    578.981     48.019    473.856    570.937    473.856    481.912    473.856
110.170    609.000    570.106     38.894    473.740    561.746    473.740    482.109    473.740
110.270    583.561    562.340     21.221    473.626    553.641    473.626    482.333    473.626
110.370    554.000    555.725     -1.725    473.514    546.659    473.514    482.586    473.514
110.470    575.000    550.259     24.741    473.405    540.795    473.405    482.873    473.405
110.570    520.915    545.905    -24.990    473.298    536.006    473.298    483.199    473.298
110.670    577.000    542.596     34.404    473.193    532.220    473.193    483.570    473.193
110.770    542.000    540.252      1.748    473.090    529.346    473.090    483.995    473.090
110.870    571.000    538.778     32.222    472.990    527.283    472.990    484.483    472.990
110.970    527.000    538.083    -11.083    472.892    525.924    472.892    485.048    472.892
111.070    513.144    538.078    -24.934    472.796    525.164    472.796    485.707    472.796
111.170    563.744    538.685     25.058    472.703    524.904    472.703    486.479    472.703
111.270    531.802    539.840     -8.038    472.613    525.056    472.613    487.391    472.613
111.370    553.000    541.495     11.505    472.525    525.540    472.525    488.473    472.525
111.470    584.000    543.619     40.381    472.439    526.287    472.439    489.763    472.439
111.570    539.000    546.200     -7.200    472.356    527.241    472.356    491.307    472.356
111.670    573.691    549.248     24.443    472.276    528.356    472.276    493.159    472.276
111.770    527.772    552.789    -25.017    472.198    529.596    472.198    495.381    472.198
111.870    542.000    556.872    -14.872    472.123    530.939    472.123    498.046    472.123
111.970    573.000    561.565     11.435    472.050    532.370    472.050    501.235    472.050
112.070    549.000    566.955    -17.955    471.981    533.888    471.981    505.038    471.981
112.170    554.000    573.148    -19.148    471.914    535.498    471.914    509.553    471.914
112.270    524.000    580.263    -56.263    471.850    537.218    471.850    514.884    471.850
112.370    605.000    588.429     16.571    471.788    539.070    471.788    521.136    471.788
112.470    606.145    597.785      8.360    471.730    541.087    471.730    528.416    471.730
112.570    639.093    608.470     30.623    471.675    543.308    471.675    536.825    471.675
112.670    590.000    620.624    -30.624    471.622    545.782    471.622    546.453    471.622
112.770    620.000    634.384    -14.384    471.573    548.570    471.573    557.374    471.573
112.870    689.712    649.881     39.831    471.526    551.751    471.526    569.643    471.526
112.970    636.003    667.239    -31.236    471.483    555.425    471.483    583.283    471.483
113.070    646.000    686.579    -40.579    471.443    559.725    471.443    598.282    471.443
113.170    666.000    708.024    -42.024    471.405    564.823    471.405    614.590    471.405
113.270    680.392    731.703    -51.311    471.371    570.949    471.371    632.108    471.371
113.370    732.000    757.766    -25.766    471.341    578.402    471.341    650.685    471.341
113.470    753.000    786.400    -33.400    471.313    587.576    471.313    670.116    471.313
113.570    786.000    817.847    -31.847    471.289    598.975    471.289    690.136    471.289
113.670    878.499    852.429     26.070    471.268    613.248    471.268    710.419    471.268
113.770    872.000    890.573    -18.573    471.250    631.212    471.250    730.577    471.250
113.870    881.026    932.844    -51.818    471.236    653.878    471.236    750.160    471.236
113.970   1026.000    979.973     46.027    471.226    682.486    471.226    768.662    471.226
114.070   1039.000   1032.894      6.106    471.218    718.518    471.218    785.532    471.218
114.170   1093.143   1092.778      0.365    471.215    763.722    471.215    800.195    471.215
114.270   1163.373   1161.074      2.299    471.214    820.106    471.214    812.089    471.214
114.370   1299.461   1239.534     59.927    471.218    889.935    471.218    820.704    471.218
114.470   1403.401   1330.240     73.161    471.225    975.686    471.225    825.641    471.225
114.570   1479.015   1435.588     43.427    471.236   1079.996    471.236    826.659    471.236
114.670   1504.544   1558.233    -53.689    471.250   1205.574    471.250    823.706    471.250
114.770   1701.000   1700.986      0.014    471.268   1355.082    471.268    816.931    471.268
114.870   1838.000   1866.643    -28.643    471.290   1530.991    471.290    806.657    471.290
114.970   2112.000   2057.771     54.229    471.316   1735.408    471.316    793.344    471.316
115.070   2267.439   2276.466     -9.027    471.345   1969.889    471.345    777.535    471.345
115.170   2582.000   2524.104     57.896    471.379   2235.236    471.379    759.805    471.379
115.270   2805.930   2801.100      4.830    471.416   2531.299    471.416    740.720    471.416
115.370   3121.773   3106.703     15.070    471.458   2856.798    471.458    720.810    471.458
115.470   3411.909   3438.826    -26.917    471.503   3209.166    471.503    700.557    471.503
115.570   3896.695   3793.928    102.768    471.553   3584.447    471.553    680.378    471.553
115.670   4063.000   4166.961   -103.961    471.607   3977.239    471.607    660.633    471.607
115.770   4390.000   4551.380   -161.380    471.665   4380.700    471.665    641.617    471.665
115.870   4875.257   4939.212    -63.955    471.727   4786.627    471.727    623.565    471.727
115.970   5134.000   5321.213   -187.213    471.793   5185.600    471.793    606.654    471.793
116.070   5547.000   5687.088   -140.088    471.864   5567.200    471.864    591.009    471.864
116.170   5921.000   6025.807   -104.807    471.938   5920.326    471.938    576.704    471.938
116.270   6262.577   6326.039    -63.462    472.018   6233.617    472.018    563.772    472.018
116.370   6632.000   6576.719     55.281    472.101   6496.013    472.101    552.204    472.101
116.470   6785.574   6767.764     17.810    472.190   6697.470    472.190    541.961    472.190
116.570   6967.000   6890.895     76.105    472.282   6829.771    472.282    532.980    472.282
116.670   6936.000   6940.454     -4.454    472.379   6887.337    472.379    525.176    472.379
116.770   7050.000   6914.033    135.967    472.481   6867.852    472.481    518.454    472.481
116.870   6832.000   6812.748     19.252    472.587   6772.531    472.587    512.709    472.587
116.970   6554.189   6641.094    -86.906    472.699   6605.970    472.699    507.835    472.699
117.070   6490.991   6406.433     84.558    472.814   6375.632    472.814    503.727    472.814
117.170   6241.661   6118.122    123.539    472.935   6090.970    472.935    500.283    472.935
117.270   5595.000   5786.762   -191.762    473.060   5762.678    473.060    497.410    473.060
117.370   5520.788   5423.437     97.350    473.190   5401.927    473.190    495.022    473.190
117.470   4952.000   5039.116    -87.116    473.325   5019.760    473.325    493.042    473.325
117.570   4556.729   4644.189    -87.459    473.465   4626.636    473.465    491.403    473.465
117.670   4320.000   4248.130     71.870    473.610   4232.089    473.610    490.045    473.610
117.770   3980.000   3859.263    120.737    473.760   3844.494    473.760    488.921    473.760
117.870   3521.879   3484.600     37.279    473.916   3470.906    473.916    487.988    473.916
117.970   3323.000   3129.761    193.239    474.076   3116.981    474.076    487.211    474.076
118.070   2845.000   2798.963     46.037    474.241   2786.969    474.241    486.563    474.241
118.170   2589.381   2495.076     94.306    474.412   2483.762    474.412    486.022    474.412
118.270   2255.598   2219.723     35.875    474.588   2209.004    474.588    485.567    474.588
118.370   1943.041   1973.430    -30.389    474.769   1963.238    474.769    485.186    474.769
118.470   1828.361   1755.791     72.570    474.955   1746.071    474.955    484.867    474.955
118.570   1610.000   1565.649     44.351    475.147   1556.355    475.147    484.600    475.147
118.670   1366.000   1401.279    -35.279    475.345   1392.375    475.345    484.378    475.345
118.770   1253.000   1260.564     -7.564    475.548   1252.018    475.548    484.196    475.548
118.870   1051.000   1141.153    -90.153    475.756   1132.939    475.756    484.050    475.756
118.970   1078.211   1040.604     37.607    475.970   1032.699    475.970    483.935    475.970
119.070    959.000    956.499      2.501    476.190    948.883    476.190    483.850    476.190
119.170    882.000    886.534     -4.534    476.415    879.189    476.415    483.792    476.415
119.270    849.000    828.579     20.421    476.646    821.488    476.646    483.759    476.646
119.370    829.153    780.721     48.433    476.883    773.868    476.883    483.750    476.883
119.470    703.000    741.275    -38.275    477.126    734.645    477.126    483.765    477.126
119.570    757.201    708.793     48.408    477.375    702.371    477.375    483.802    477.375
119.670    716.000    682.046     33.954    477.629    675.818    477.629    483.861    477.629
119.770    715.000    660.013     54.987    477.890    653.963    477.890    483.941    477.890
119.870    663.000    641.851     21.149    478.156    635.965    478.156    484.043    478.156
119.970    619.000    626.877     -7.877    478.429    621.140    478.429    484.167    478.429
120.070    656.000    614.541     41.459    478.708    608.938    478.708    484.312    478.708
120.170    563.000    604.403    -41.403    478.993    598.918    478.993    484.479    478.993
120.270    641.032    596.115     44.917    479.284    590.732    479.284    484.669    479.284
120.370    560.000    589.404    -29.404    479.582    584.106    479.582    484.882    479.582
120.470    579.000    584.053     -5.053    479.885    578.823    479.885    485.119    479.885
120.570    554.000    579.897    -25.897    480.196    574.715    480.196    485.380    480.196
120.670    562.000    576.803    -14.803    480.512    571.652    480.512    485.667    480.512
120.770    528.000    574.671    -46.671    480.836    569.530    480.836    485.981    480.836
120.870    528.051    573.420    -45.369    481.165    568.268    481.165    486.322    481.165
120.970    569.000    572.986     -3.986    481.502    567.803    481.502    486.691    481.502
121.070    535.101    573.316    -38.215    481.845    568.079    481.845    487.089    481.845
121.170    611.632    574.363     37.269    482.194    569.049    482.194    487.517    482.194
121.270    519.000    576.083    -57.083    482.551    570.669    482.551    487.974    482.551
121.370    543.423    578.429    -35.005    482.914    572.893    482.914    488.461    482.914
121.470    571.272    581.352    -10.081    483.284    575.672    483.284    488.977    483.284
121.570    574.000    584.799    -10.799    483.661    578.953    483.661    489.523    483.661
121.670    600.000    588.706     11.294    484.046    582.673    484.046    490.096    484.046
121.770    590.000    593.003     -3.003    484.437    586.763    484.437    490.696    484.437
121.870    612.000    597.607     14.393    484.835    591.144    484.835    491.319    484.835
121.970    615.000    602.428     12.572    485.240    595.728    485.240    491.965    485.240
122.070    642.000    607.368     34.632    485.653    600.418    485.653    492.630    485.653
122.170    601.000    612.316    -11.316    486.072    605.110    486.072    493.309    486.072
122.270    634.000    617.160     16.840    486.499    609.693    486.499    493.999    486.499
122.370    631.000    621.779      9.221    486.934    614.052    486.934    494.696    486.934
122.470    597.110    626.053    -28.943    487.376    618.074    487.376    495.393    487.376
122.570    629.000    629.868     -0.868    487.825    621.648    487.825    496.085    487.825
122.670    652.000    633.115     18.885    488.282    624.674    488.282    496.765    488.282
122.770    629.000    635.705     -6.705    488.746    627.067    488.746    497.428    488.746
122.870    626.651    637.567    -10.916    489.218    628.765    489.218    498.066    489.218
122.970    635.367    638.660     -3.293    489.698    629.731    489.698    498.673    489.698
123.070    663.000    638.968     24.032    490.185    629.956    490.185    499.244    490.185
123.170    653.000    638.504     14.496    490.681    629.460    490.681    499.772    490.681
123.270    686.727    637.312     49.414    491.184    628.285    491.184    500.257    491.184
123.370    608.000    635.453    -27.453    491.695    626.494    491.695    500.699    491.695
123.470    718.000    633.001     84.999    492.214    624.162    492.214    501.096    492.214
123.570    609.000    630.044    -21.044    492.741    621.374    492.741    501.452    492.741
123.670    639.000    626.673     12.327    493.276    618.216    493.276    501.771    493.276
123.770    670.000    622.979     47.021    493.820    614.775    493.820    502.059    493.820
123.870    570.842    619.051    -48.209    494.371    611.134    494.371    502.320    494.371
123.970    653.000    614.972     38.028    494.931    607.369    494.931    502.563    494.931
124.070    616.412    610.816      5.596    495.499    603.549    495.499    502.793    495.499
124.170    615.000    606.649      8.351    496.076    599.732    496.076    503.017    496.076
124.270    617.000    602.524     14.476    496.661    595.965    496.661    503.240    496.661
124.370    596.000    598.480     -2.480    497.254    592.284    497.254    503.469    497.254
124.470    608.000    594.549     13.451    497.856    588.713    497.856    503.707    497.856
124.570    577.000    590.748    -13.748    498.467    585.268    498.467    503.960    498.467
124.670    568.497    587.086    -18.590    499.087    581.954    499.087    504.230    499.087
124.770    565.000    583.566    -18.566    499.715    578.769    499.715    504.521    499.715
124.870    566.000    580.184    -14.184    500.352    575.707    500.352    504.836    500.352
124.970    574.000    576.933     -2.933    500.998    572.761    500.998    505.176    500.998
