neutron_powder_diffraction_0117
R_wp: 3.890
Temperature (K): 972.096
Counts: 83263.00
Wavelength (Ã…): 2.52098
COMMENTS
Test file for demonstrating the .xyy file format in Reel1.0
END OF HEADER
   tth       Y_obs     Y_calc      Y_res    Background    Phase_1_Nuc    Phase_1_Mag    Phase_2_Nuc    Phase_2_Mag
  9.970    575.000    559.308     15.692    558.147    559.083    558.147    558.371    558.147
 10.070    557.604    559.682     -2.078    558.438    559.456    558.438    558.664    558.438
 10.170    592.000    560.061     31.939    558.721    559.834    558.721    558.948    558.721
 10.270    555.000    560.443     -5.443    558.995    560.215    558.995    559.223    558.995
 10.370    590.000    560.833     29.167    559.261    560.604    559.261    559.489    559.261
 10.470    596.000    561.235     34.765    559.518    561.005    559.518    559.747    559.518
 10.570    595.000    561.654     33.346    559.766    561.423    559.766    559.996    559.766
 10.670    557.804    562.098     -4.294    560.006    561.866    560.006    560.237    560.006
 10.770    577.000    562.575     14.425    560.238    562.342    560.238    560.470    560.238
 10.870    588.000    563.096     24.904    560.462    562.862    560.462    560.695    560.462
 10.970    597.000    563.679     33.321    560.677    563.444    560.677    560.911    560.677
 11.070    593.000    564.347     28.653    560.884    564.110    560.884    561.120    560.884
 11.170    591.400    565.134     26.266    561.084    564.896    561.084    561.320    561.084
 11.270    584.000    566.093     17.907    561.275    565.854    561.275    561.512    561.275
 11.370    579.000    567.321     11.679    561.459    567.080    561.459    561.697    561.459
 11.470    579.000    569.027      9.973    561.635    568.784    561.635    561.874    561.635
 11.570    569.000    571.718     -2.718    561.803    571.473    561.803    562.043    561.803
 11.670    585.000    576.559      8.441    561.963    576.309    561.963    562.204    561.963
 11.770    647.000    585.740     61.260    562.116    585.485    562.116    562.358    562.116
 11.870    648.250    602.226     46.024    562.261    601.960    562.261    562.505    562.261
 11.970    661.581    627.949     33.631    562.399    627.667    562.399    562.644    562.399
 12.070    647.000    660.135    -13.135    562.530    659.834    562.530    562.775    562.530
 12.170    683.262    687.425     -4.163    562.653    687.107    562.653    562.899    562.653
 12.270    740.091    693.312     46.779    562.769    692.989    562.769    563.017    562.769
 12.370    680.278    672.996      7.282    562.878    672.684    562.878    563.127    562.878
 12.470    660.526    640.760     19.766    562.979    640.466    562.979    563.229    562.979
 12.570    646.388    611.814     34.574    563.074    611.535    563.074    563.325    563.074
 12.670    608.000    591.981     16.019    563.162    591.713    563.162    563.414    563.162
 12.770    610.000    580.578     29.422    563.243    580.315    563.243    563.496    563.243
 12.870    551.027    574.658    -23.632    563.317    574.398    563.317    563.572    563.317
 12.970    554.000    571.597    -17.597    563.384    571.337    563.384    563.640    563.384
 13.070    615.229    569.853     45.376    563.445    569.593    563.445    563.702    563.445
 13.170    607.412    568.723     38.690    563.499    568.462    563.499    563.757    563.499
 13.270    559.000    567.918     -8.918    563.546    567.657    563.546    563.806    563.546
 13.370    580.493    567.316     13.177    563.587    567.053    563.587    563.848    563.587
 13.470    563.000    566.851     -3.851    563.622    566.588    563.622    563.884    563.622
 13.570    534.000    566.484    -32.484    563.650    566.220    563.650    563.913    563.650
 13.670    527.787    566.189    -38.401    563.672    565.923    563.672    563.936    563.672
 13.770    525.824    565.946    -40.122    563.688    565.679    563.688    563.953    563.688
 13.870    563.000    565.742     -2.742    563.697    565.474    563.697    563.964    563.697
 13.970    555.768    565.568     -9.800    563.701    565.298    563.701    563.969    563.701
 14.070    542.630    565.416    -22.786    563.698    565.146    563.698    563.968    563.698
 14.170    579.000    565.281     13.719    563.689    565.009    563.689    563.960    563.689
 14.270    534.746    565.158    -30.412    563.675    564.885    563.675    563.947    563.675
 14.370    543.811    565.045    -21.234    563.655    564.771    563.655    563.928    563.655
 14.470    566.000    564.940      1.060    563.628    564.665    563.628    563.904    563.628
 14.570    589.000    564.838     24.162    563.597    564.561    563.597    563.873    563.597
 14.670    551.815    564.739    -12.924    563.559    564.461    563.559    563.837    563.559
 14.770    539.000    564.642    -25.642    563.516    564.362    563.516    563.795    563.516
 14.870    538.726    564.546    -25.820    563.467    564.265    563.467    563.748    563.467
 14.970    558.000    564.450     -6.450    563.413    564.167    563.413    563.696    563.413
 15.070    550.767    564.353    -13.585    563.354    564.069    563.354    563.638    563.354
 15.170    560.005    564.255     -4.250    563.289    563.969    563.289    563.574    563.289
 15.270    598.000    564.155     33.845    563.219    563.868    563.219    563.505    563.219
 15.370    545.000    564.053    -19.053    563.143    563.765    563.143    563.432    563.143
 15.470    591.702    563.949     27.753    563.063    563.659    563.063    563.353    563.063
 15.570    557.534    563.844     -6.310    562.977    563.552    562.977    563.268    562.977
 15.670    567.000    563.735      3.265    562.886    563.442    562.886    563.179    562.886
 15.770    558.000    563.623     -5.623    562.790    563.328    562.790    563.085    562.790
 15.870    534.000    563.507    -29.507    562.689    563.210    562.689    562.986    562.689
 15.970    520.097    563.388    -43.291    562.584    563.090    562.584    562.882    562.584
 16.070    602.738    563.265     39.472    562.473    562.965    562.473    562.773    562.473
 16.170    589.000    563.140     25.860    562.358    562.838    562.358    562.660    562.358
 16.270    603.000    563.010     39.989    562.238    562.707    562.238    562.542    562.238
 16.370    536.534    562.877    -26.343    562.114    562.572    562.114    562.419    562.114
 16.470    550.000    562.741    -12.741    561.984    562.434    561.984    562.291    561.984
 16.570    573.000    562.601     10.399    561.851    562.292    561.851    562.160    561.851
 16.670    527.000    562.457    -35.457    561.713    562.146    561.713    562.023    561.713
 16.770    594.407    562.310     32.097    561.570    561.997    561.570    561.882    561.570
 16.870    526.000    562.161    -36.161    561.423    561.846    561.423    561.737    561.423
 16.970    598.000    562.029     35.971    561.271    561.712    561.271    561.588    561.271
 17.070    573.967    561.875     12.092    561.116    561.557    561.116    561.434    561.116
 17.170    552.000    561.714     -9.714    560.956    561.393    560.956    561.276    560.956
 17.270    537.200    561.548    -24.349    560.792    561.226    560.792    561.114    560.792
 17.370    574.000    561.380     12.620    560.624    561.055    560.624    560.948    560.624
 17.470    533.000    561.207    -28.207    560.452    560.881    560.452    560.778    560.452
 17.570    566.407    561.031      5.375    560.276    560.703    560.276    560.604    560.276
 17.670    516.485    560.855    -44.371    560.095    560.525    560.095    560.426    560.095
 17.770    531.000    560.713    -29.713    559.911    560.380    559.911    560.245    559.911
 17.870    538.000    560.600    -22.600    559.724    560.265    559.724    560.059    559.724
 17.970    573.000    560.418     12.582    559.532    560.081    559.532    559.870    559.532
 18.070    563.240    560.226      3.015    559.337    559.886    559.337    559.676    559.337
 18.170    527.564    560.030    -32.466    559.138    559.688    559.138    559.480    559.138
 18.270    601.656    559.831     41.825    558.935    559.487    558.935    559.279    558.935
 18.370    569.000    559.631      9.369    558.729    559.284    558.729    559.076    558.729
 18.470    554.000    559.429     -5.429    558.519    559.079    558.519    558.868    558.519
 18.570    568.000    559.221      8.779    558.305    558.869    558.305    558.658    558.305
 18.670    596.623    559.009     37.614    558.089    558.655    558.089    558.443    558.089
 18.770    590.000    558.795     31.205    557.869    558.438    557.869    558.226    557.869
 18.870    561.000    558.578      2.422    557.645    558.218    557.645    558.005    557.645
 18.970    552.000    558.358     -6.358    557.418    557.995    557.418    557.781    557.418
 19.070    524.000    558.135    -34.135    557.188    557.770    557.188    557.554    557.188
 19.170    518.000    557.910    -39.910    556.955    557.542    556.955    557.323    556.955
 19.270    505.000    557.682    -52.682    556.719    557.311    556.719    557.090    556.719
 19.370    585.396    557.455     27.941    556.480    557.081    556.480    556.854    556.480
 19.470    542.615    557.225    -14.609    556.237    556.848    556.237    556.614    556.237
 19.570    577.605    556.989     20.616    555.992    556.609    555.992    556.372    555.992
 19.670    557.000    556.751      0.249    555.743    556.368    555.743    556.127    555.743
 19.770    557.324    556.510      0.814    555.492    556.124    555.492    555.878    555.492
 19.870    555.000    556.267     -1.267    555.238    555.878    555.238    555.628    555.238
 19.970    564.637    556.022      8.615    554.981    555.629    554.981    555.374    554.981
 20.070    549.486    555.776     -6.290    554.721    555.380    554.721    555.118    554.721
 20.170    578.000    555.543     22.457    554.459    555.143    554.459    554.859    554.459
 20.270    544.000    555.344    -11.344    554.194    554.941    554.194    554.597    554.194
 20.370    550.000    555.097     -5.097    553.926    554.690    553.926    554.333    553.926
 20.470    519.000    554.843    -35.843    553.656    554.432    553.656    554.067    553.656
 20.570    517.000    554.589    -37.589    553.383    554.175    553.383    553.798    553.383
 20.670    584.283    554.333     29.949    553.107    553.915    553.107    553.526    553.107
 20.770    511.000    554.074    -43.074    552.830    553.651    552.830    553.252    552.830
 20.870    592.748    553.813     38.935    552.550    553.387    552.550    552.976    552.550
 20.970    537.551    553.551    -16.001    552.267    553.121    552.267    552.698    552.267
 21.070    585.142    553.288     31.854    551.982    552.853    551.982    552.417    551.982
 21.170    511.011    553.025    -42.014    551.695    552.585    551.695    552.135    551.695
 21.270    562.000    552.762      9.238    551.406    552.318    551.406    551.850    551.406
 21.370    524.000    552.501    -28.501    551.114    552.052    551.114    551.563    551.114
 21.470    540.000    552.277    -12.277    550.820    551.823    550.820    551.274    550.820
 21.570    592.617    552.017     40.600    550.525    551.558    550.525    550.983    550.525
 21.670    589.676    551.751     37.924    550.227    551.288    550.227    550.691    550.227
 21.770    521.000    551.486    -30.486    549.927    551.017    549.927    550.396    549.927
 21.870    554.229    551.222      3.007    549.625    550.748    549.625    550.100    549.625
 21.970    577.000    550.961     26.039    549.321    550.481    549.321    549.801    549.321
 22.070    516.000    550.708    -34.708    549.015    550.222    549.015    549.501    549.015
 22.170    592.624    550.450     42.174    548.708    549.958    548.708    549.200    548.708
 22.270    587.000    550.203     36.797    548.399    549.705    548.399    548.897    548.399
 22.370    533.000    549.952    -16.952    548.087    549.448    548.087    548.592    548.087
 22.470    557.000    549.718      7.282    547.775    549.207    547.775    548.285    547.775
 22.570    586.000    549.481     36.519    547.460    548.964    547.460    547.978    547.460
 22.670    551.000    549.242      1.758    547.144    548.718    547.144    547.668    547.144
 22.770    518.466    549.010    -30.544    546.826    548.479    546.826    547.358    546.826
 22.870    549.628    548.788      0.840    546.507    548.249    546.507    547.046    546.507
 22.970    501.000    548.581    -47.581    546.186    548.034    546.186    546.733    546.186
 23.070    584.000    548.406     35.594    545.863    547.852    545.863    546.418    545.863
 23.170    576.000    548.238     27.762    545.539    547.675    545.539    546.103    545.539
 23.270    537.000    548.104    -11.104    545.214    547.533    545.214    545.786    545.214
 23.370    558.419    547.980     10.439    544.887    547.399    544.887    545.468    544.887
 23.470    535.061    547.890    -12.829    544.559    547.301    544.559    545.150    544.559
 23.570    592.096    547.854     44.242    544.230    547.255    544.230    544.830    544.230
 23.670    507.299    547.922    -40.623    543.899    547.313    543.899    544.509    543.899
 23.770    550.845    548.052      2.792    543.567    547.433    543.567    544.188    543.567
 23.870    564.000    548.308     15.692    543.234    547.678    543.234    543.866    543.234
 23.970    540.000    548.755     -8.755    542.900    548.114    542.900    543.543    542.900
 24.070    550.000    549.563      0.437    542.564    548.911    542.564    543.220    542.564
 24.170    513.000    551.134    -38.134    542.228    550.471    542.228    542.896    542.228
 24.270    553.000    554.280     -1.280    541.890    553.606    541.890    542.571    541.890
 24.370    577.000    560.420     16.580    541.552    559.737    541.552    542.247    541.552
 24.470    544.000    571.422    -27.422    541.212    570.732    541.212    541.922    541.212
 24.570    586.000    588.286     -2.286    540.872    587.593    540.872    541.596    540.872
 24.670    578.217    608.937    -30.720    540.530    608.243    540.530    541.271    540.530
 24.770    607.000    625.995    -18.995    540.188    625.297    540.188    540.945    540.188
 24.870    614.000    629.201    -15.201    539.845    628.487    539.845    540.620    539.845
 24.970    592.000    615.749    -23.749    539.500    615.007    539.500    540.294    539.500
 25.070    587.000    594.522     -7.522    539.156    593.746    539.156    539.969    539.156
 25.170    568.000    575.098     -7.098    538.810    574.287    538.810    539.644    538.810
 25.270    545.000    561.359    -16.359    538.464    560.518    538.464    539.320    538.464
 25.370    538.000    553.104    -15.104    538.117    552.233    538.117    538.996    538.117
 25.470    542.565    548.572     -6.006    537.769    547.673    537.769    538.673    537.769
 25.570    581.000    546.069     34.931    537.421    545.142    537.421    538.351    537.421
 25.670    536.143    544.537     -8.394    537.072    543.582    537.072    538.030    537.072
 25.770    572.000    543.471     28.529    536.723    542.486    536.723    537.710    536.723
 25.870    550.000    542.656      7.344    536.373    541.639    536.373    537.392    536.373
 25.970    501.477    542.003    -40.526    536.022    540.951    536.022    537.075    536.022
 26.070    507.999    541.466    -33.468    535.671    540.378    535.671    536.761    535.671
 26.170    565.000    541.021     23.979    535.320    539.894    535.320    536.448    535.320
 26.270    565.000    540.653     24.347    534.968    539.484    534.968    536.138    534.968
 26.370    556.000    540.350     15.650    534.616    539.136    534.616    535.831    534.616
 26.470    562.000    540.110     21.890    534.264    538.848    534.264    535.527    534.264
 26.570    539.000    539.930     -0.930    533.911    538.615    533.911    535.226    533.911
 26.670    545.436    539.813      5.623    533.558    538.442    533.558    534.930    533.558
 26.770    516.439    539.767    -23.328    533.205    538.334    533.205    534.637    533.205
 26.870    518.000    539.801    -21.801    532.851    538.302    532.851    534.350    532.851
 26.970    523.000    539.932    -16.932    532.497    538.360    532.497    534.069    532.497
 27.070    536.000    540.183     -4.183    532.143    538.532    532.143    533.794    532.143
 27.170    583.000    540.586     42.414    531.789    538.848    531.789    533.527    531.789
 27.270    570.424    541.191     29.233    531.435    539.358    531.435    533.267    531.435
 27.370    599.000    542.076     56.924    531.081    540.139    531.081    533.017    531.081
 27.470    570.000    543.380     26.620    530.727    541.328    530.727    532.777    530.727
 27.570    600.000    545.469     54.531    530.372    543.291    530.372    532.549    530.372
 27.670    566.000    549.603     16.397    530.018    547.284    530.018    532.334    530.018
 27.770    592.240    559.892     32.348    529.664    557.416    529.664    532.133    529.664
 27.870    599.288    586.484     12.804    529.309    583.828    529.309    531.948    529.309
 27.970    671.000    645.262     25.738    528.955    642.399    528.955    531.781    528.955
 28.070    739.000    744.930     -5.930    528.601    741.830    528.601    531.634    528.601
 28.170    917.278    862.864     54.414    528.247    859.508    528.247    531.509    528.247
 28.270    980.537    936.800     43.736    527.893    933.191    527.893    531.407    527.893
 28.370    896.000    914.239    -18.239    527.540    910.382    527.540    531.330    527.540
 28.470    812.000    821.804     -9.804    527.186    817.678    527.186    531.281    527.186
 28.570    750.284    733.067     17.217    526.833    728.627    526.833    531.259    526.833
 28.670    692.000    699.856     -7.856    526.480    695.058    526.480    531.264    526.480
 28.770    741.177    728.626     12.551    526.128    723.438    526.128    531.295    526.128
 28.870    818.741    788.578     30.163    525.775    782.980    525.775    531.349    525.775
 28.970    864.143    827.388     36.755    525.423    821.376    525.423    531.419    525.423
 29.070    791.000    805.987    -14.987    525.072    799.564    525.072    531.495    525.072
 29.170    725.650    737.155    -11.505    524.721    730.322    524.721    531.564    524.721
 29.270    664.164    660.872      3.292    524.370    653.645    524.370    531.610    524.370
 29.370    599.000    603.927     -4.927    524.019    596.344    524.019    531.612    524.019
 29.470    591.033    571.106     19.927    523.669    563.231    523.669    531.550    523.669
 29.570    562.000    555.268      6.732    523.320    547.187    523.320    531.403    523.320
 29.670    598.000    548.082     49.918    522.971    539.897    522.971    531.157    522.971
 29.770    603.000    544.450     58.550    522.622    536.270    522.622    530.804    522.622
 29.870    612.000    542.174     69.826    522.274    534.106    522.274    530.343    522.274
 29.970    576.000    540.497     35.503    521.927    532.639    521.927    529.785    521.927
 30.070    519.616    539.190    -19.574    521.580    531.625    521.580    529.146    521.580
 30.170    591.000    538.219     52.781    521.234    531.008    521.234    528.445    521.234
 30.270    566.000    537.700     28.300    520.889    530.883    520.889    527.704    520.889
 30.370    563.000    538.040     24.960    520.544    531.640    520.544    526.942    520.544
 30.470    565.000    540.201     24.799    520.200    534.220    520.200    526.176    520.200
 30.570    574.000    545.818     28.182    519.856    540.247    519.856    525.418    519.856
 30.670    554.000    556.627     -2.627    519.513    551.445    519.513    524.677    519.513
 30.770    562.383    572.747    -10.364    519.171    567.928    519.171    523.961    519.171
 30.870    607.335    590.385     16.950    518.830    585.902    518.830    523.270    518.830
 30.970    590.204    601.069    -10.865    518.489    596.903    518.489    522.608    518.489
 31.070    585.000    597.364    -12.364    518.150    593.498    518.150    521.974    518.150
 31.170    605.000    581.567     23.433    517.811    577.979    517.811    521.368    517.811
 31.270    520.160    562.455    -42.295    517.473    559.122    517.473    520.787    517.473
 31.370    507.000    546.775    -39.775    517.136    543.670    517.136    520.230    517.136
 31.470    557.000    536.599     20.401    516.799    533.698    516.799    519.695    516.799
 31.570    529.000    530.966     -1.966    516.464    528.247    516.464    519.181    516.464
 31.670    520.790    528.069     -7.278    516.129    525.511    516.129    518.685    516.129
 31.770    553.000    526.514     26.486    515.796    524.103    515.796    518.206    515.796
 31.870    541.000    525.566     15.434    515.463    523.286    515.463    517.742    515.463
 31.970    554.000    524.917     29.083    515.131    522.756    515.131    517.291    515.131
 32.070    533.809    524.457      9.352    514.801    522.403    514.801    516.854    514.801
 32.170    499.444    524.145    -24.701    514.471    522.188    514.471    516.427    514.471
 32.270    572.000    523.968     48.032    514.142    522.099    514.142    516.011    514.142
 32.370    531.697    523.926      7.772    513.815    522.136    513.815    515.604    513.815
 32.470    513.000    524.025    -11.025    513.488    522.308    513.488    515.205    513.488
 32.570    509.952    524.285    -14.333    513.163    522.633    513.163    514.814    513.163
 32.670    504.979    524.733    -19.754    512.838    523.141    512.838    514.430    512.838
 32.770    503.000    525.413    -22.413    512.515    523.875    512.515    514.052    512.515
 32.870    571.000    526.386     44.614    512.193    524.898    512.193    513.680    512.193
 32.970    530.000    527.743      2.257    511.872    526.301    511.872    513.313    511.872
 33.070    580.000    529.631     50.369    511.552    528.230    511.552    512.952    511.552
 33.170    535.000    532.316      2.684    511.233    530.953    511.233    512.595    511.233
 33.270    549.000    536.400     12.600    510.916    535.071    510.916    512.242    510.916
 33.370    517.000    543.368    -26.368    510.599    542.071    510.599    511.894    510.599
 33.470    549.374    556.690     -7.316    510.284    555.420    510.284    511.549    510.284
 33.570    609.000    583.150     25.850    509.971    581.902    509.971    511.208    509.971
 33.670    640.000    632.787      7.213    509.658    631.555    509.658    510.870    509.658
 33.770    671.000    714.781    -43.781    509.347    713.559    509.347    510.536    509.347
 33.870    838.000    828.098      9.902    509.037    826.884    509.037    510.204    509.037
 33.970    968.647    949.678     18.969    508.728    948.477    508.728    509.876    508.728
 34.070   1049.000   1030.240     18.760    508.420   1029.064    508.420    509.551    508.420
 34.170   1051.000   1022.928     28.072    508.114   1021.789    508.114    509.228    508.114
 34.270    888.367    932.665    -44.299    507.809    931.561    507.809    508.908    507.809
 34.370    764.000    809.497    -45.497    507.506    808.417    507.506    508.591    507.506
 34.470    692.000    699.278     -7.278    507.204    698.213    507.204    508.276    507.204
 34.570    615.000    621.405     -6.405    506.903    620.350    506.903    507.963    506.903
 34.670    579.000    574.863      4.136    506.604    573.817    506.604    507.653    506.604
 34.770    528.800    549.983    -21.183    506.306    548.944    506.306    507.346    506.306
 34.870    501.000    537.098    -36.098    506.010    536.067    506.010    507.040    506.010
 34.970    568.000    529.944     38.056    505.714    528.922    505.714    506.737    505.714
 35.070    507.000    525.399    -18.399    505.421    524.384    505.421    506.436    505.421
 35.170    513.000    522.138     -9.138    505.129    521.129    505.129    506.137    505.129
 35.270    507.000    519.620    -12.620    504.838    518.617    504.838    505.841    504.838
 35.370    510.000    517.598     -7.598    504.549    516.600    504.549    505.546    504.549
 35.470    525.000    515.933      9.067    504.261    514.940    504.261    505.254    504.261
 35.570    511.446    514.537     -3.091    503.975    513.548    503.975    504.964    503.975
 35.670    535.000    513.347     21.653    503.690    512.362    503.690    504.676    503.690
 35.770    523.074    512.318     10.755    503.407    511.336    503.407    504.389    503.407
 35.870    528.174    511.418     16.756    503.125    510.438    503.125    504.105    503.125
 35.970    505.751    510.622     -4.870    502.845    509.643    502.845    503.823    502.845
 36.070    501.000    509.911     -8.911    502.566    508.934    502.566    503.543    502.566
 36.170    542.252    509.272     32.980    502.289    508.297    502.289    503.265    502.289
 36.270    481.000    508.696    -27.696    502.014    507.721    502.014    502.989    502.014
 36.370    505.208    508.173     -2.966    501.740    507.199    501.740    502.715    501.740
 36.470    500.000    507.701     -7.701    501.468    506.726    501.468    502.443    501.468
 36.570    538.484    507.276     31.208    501.197    506.301    501.197    502.173    501.197
 36.670    513.000    506.899      6.101    500.928    505.922    500.928    501.905    500.928
 36.770    549.000    506.575     42.425    500.660    505.598    500.660    501.639    500.660
 36.870    521.810    506.323     15.487    500.395    505.343    500.395    501.375    500.395
 36.970    537.049    506.182     30.866    500.131    505.201    500.131    501.112    500.131
 37.070    468.891    506.245    -37.354    499.868    505.261    499.868    500.852    499.868
 37.170    528.105    506.670     21.435    499.607    505.684    499.607    500.594    499.607
 37.270    505.000    507.687     -2.687    499.348    506.699    499.348    500.338    499.348
 37.370    483.952    509.515    -25.564    499.091    508.524    499.091    500.084    499.091
 37.470    508.000    512.202     -4.202    498.835    511.207    498.835    499.832    498.835
 37.570    538.000    515.396     22.604    498.581    514.399    498.581    499.581    498.581
 37.670    528.542    518.160     10.382    498.328    517.160    498.328    499.333    498.328
 37.770    485.000    519.193    -34.193    498.077    518.190    498.077    499.087    498.077
 37.870    503.000    517.891    -14.891    497.828    516.885    497.828    498.843    497.828
 37.970    549.000    515.042     33.958    497.581    514.033    497.581    498.601    497.581
 38.070    523.691    511.762     11.929    497.336    510.749    497.336    498.361    497.336
 38.170    521.000    508.686     12.314    497.092    507.666    497.092    498.123    497.092
 38.270    549.000    506.115     42.885    496.850    505.087    496.850    497.887    496.850
 38.370    534.000    504.160     29.840    496.610    503.123    496.610    497.653    496.610
 38.470    536.000    502.769     33.231    496.371    501.724    496.371    497.421    496.371
 38.570    477.969    501.807    -23.838    496.134    500.753    496.134    497.191    496.134
 38.670    525.663    501.134     24.529    495.899    500.072    495.899    496.963    495.899
 38.770    477.000    500.640    -23.640    495.666    499.570    495.666    496.737    495.666
 38.870    503.130    500.250      2.880    495.435    499.171    495.435    496.514    495.435
 38.970    463.365    499.919    -36.555    495.205    498.833    495.205    496.292    495.205
 39.070    485.000    499.626    -14.626    494.977    498.531    494.977    496.073    494.977
 39.170    518.000    499.357     18.643    494.751    498.253    494.751    495.856    494.751
 39.270    498.731    499.107     -0.376    494.527    497.994    494.527    495.640    494.527
 39.370    487.718    498.872    -11.155    494.304    497.750    494.304    495.427    494.304
 39.470    541.297    498.652     42.645    494.084    497.519    494.084    495.217    494.084
 39.570    510.000    498.443     11.557    493.865    497.301    493.865    495.008    493.865
 39.670    439.000    498.245    -59.245    493.648    497.093    493.648    494.801    493.648
 39.770    502.000    498.059      3.941    493.433    496.896    493.433    494.597    493.433
 39.870    531.000    497.883     33.117    493.220    496.708    493.220    494.395    493.220
 39.970    499.000    497.717      1.283    493.008    496.532    493.008    494.195    493.008
 40.070    459.000    497.563    -38.563    492.799    496.365    492.799    493.997    492.799
 40.170    534.164    497.419     36.745    492.591    496.210    492.591    493.801    492.591
 40.270    532.000    497.288     34.712    492.385    496.065    492.385    493.608    492.385
 40.370    534.179    497.169     37.009    492.181    495.934    492.181    493.417    492.181
 40.470    499.778    497.065      2.713    491.979    495.816    491.979    493.228    491.979
 40.570    490.000    496.976     -6.976    491.778    495.713    491.778    493.042    491.778
 40.670    448.000    496.905    -48.905    491.580    495.628    491.580    492.858    491.580
 40.770    488.501    496.854     -8.353    491.383    495.562    491.383    492.676    491.383
 40.870    527.426    496.827     30.599    491.189    495.520    491.189    492.496    491.189
 40.970    506.000    496.827      9.173    490.996    495.505    490.996    492.319    490.996
 41.070    481.342    496.861    -15.519    490.805    495.522    490.805    492.145    490.805
 41.170    525.000    496.934     28.066    490.616    495.579    490.616    491.972    490.616
 41.270    464.748    497.058    -32.310    490.429    495.686    490.429    491.802    490.429
 41.370    493.000    497.244     -4.244    490.243    495.855    490.243    491.635    490.243
 41.470    520.147    497.511     22.636    490.060    496.103    490.060    491.470    490.060
 41.570    528.000    497.887     30.113    489.879    496.460    489.879    491.307    489.879
 41.670    527.000    498.421     28.579    489.699    496.975    489.699    491.147    489.699
 41.770    477.000    499.214    -22.214    489.521    497.748    489.521    490.990    489.521
 41.870    467.000    500.486    -33.486    489.345    499.000    489.345    490.835    489.345
 41.970    505.000    502.705      2.295    489.172    501.198    489.172    490.683    489.172
 42.070    514.000    506.747      7.253    489.000    505.219    489.000    490.533    489.000
 42.170    513.000    513.984     -0.984    488.829    512.436    488.829    490.386    488.829
 42.270    507.820    526.064    -18.244    488.661    524.498    488.661    490.242    488.661
 42.370    560.000    544.163     15.837    488.495    542.581    488.495    490.100    488.495
 42.470    527.694    567.746    -40.052    488.331    566.150    488.331    489.962    488.331
 42.570    610.913    593.194     17.720    488.168    591.586    488.168    489.826    488.168
 42.670    554.000    613.115    -59.115    488.007    611.492    488.007    489.693    488.007
 42.770    596.000    618.703    -22.703    487.849    617.058    487.849    489.563    487.849
 42.870    616.274    606.745      9.529    487.692    605.066    487.692    489.435    487.692
 42.970    598.700    583.353     15.347    487.537    581.632    487.537    489.311    487.537
 43.070    525.000    557.641    -32.641    487.384    555.874    487.384    489.190    487.384
 43.170    576.733    535.677     41.057    487.233    533.863    487.233    489.072    487.233
 43.270    506.000    519.745    -13.745    487.084    517.888    487.084    488.958    487.084
 43.370    501.000    509.547     -8.547    486.937    507.648    486.937    488.846    486.937
 43.470    481.777    503.582    -21.804    486.791    501.642    486.791    488.738    486.791
 43.570    524.000    500.233     23.767    486.648    498.253    486.648    488.633    486.648
 43.670    525.973    498.307     27.666    486.507    496.285    486.507    488.532    486.507
 43.770    485.476    497.103    -11.627    486.367    495.038    486.367    488.435    486.367
 43.870    540.000    496.270     43.730    486.229    494.160    486.229    488.341    486.229
 43.970    511.120    495.648     15.473    486.093    493.492    486.093    488.251    486.093
 44.070    517.783    495.163     22.620    485.960    492.960    485.960    488.165    485.960
 44.170    500.243    494.778      5.464    485.828    492.525    485.828    488.083    485.828
 44.270    531.844    494.470     37.373    485.697    492.164    485.697    488.005    485.697
 44.370    463.989    494.224    -30.235    485.569    491.863    485.569    487.932    485.569
 44.470    459.112    494.028    -34.916    485.443    491.609    485.443    487.863    485.443
 44.570    524.753    493.875     30.878    485.318    491.396    485.318    487.799    485.318
 44.670    517.917    493.759     24.158    485.196    491.217    485.196    487.740    485.196
 44.770    469.131    493.676    -24.545    485.075    491.066    485.075    487.686    485.075
 44.870    482.000    493.622    -11.622    484.957    490.942    484.957    487.637    484.957
 44.970    489.972    493.595     -3.623    484.840    490.842    484.840    487.594    484.840
 45.070    528.167    493.593     34.574    484.725    490.762    484.725    487.556    484.725
 45.170    448.000    493.617    -45.617    484.612    490.704    484.612    487.525    484.612
 45.270    501.000    493.664      7.336    484.500    490.664    484.500    487.501    484.500
 45.370    496.000    493.736      2.264    484.391    490.644    484.391    487.483    484.391
 45.470    502.000    493.832      8.168    484.284    490.644    484.284    487.473    484.284
 45.570    493.000    493.954     -0.954    484.178    490.662    484.178    487.470    484.178
 45.670    483.000    494.102    -11.102    484.074    490.701    484.074    487.476    484.074
 45.770    513.000    494.279     18.721    483.972    490.762    483.972    487.490    483.972
 45.870    511.000    494.487     16.513    483.872    490.846    483.872    487.514    483.872
 45.970    497.000    494.728      2.272    483.774    490.955    483.774    487.548    483.774
 46.070    485.000    495.007    -10.007    483.678    491.091    483.678    487.594    483.678
 46.170    471.000    495.327    -24.327    483.584    491.260    483.584    487.651    483.584
 46.270    522.293    495.694     26.599    483.491    491.465    483.491    487.721    483.491
 46.370    477.302    496.116    -18.814    483.400    491.711    483.400    487.805    483.400
 46.470    475.000    496.602    -21.602    483.311    492.008    483.311    487.905    483.311
 46.570    521.889    497.164     24.725    483.224    492.367    483.224    488.022    483.224
 46.670    517.000    497.820     19.180    483.139    492.802    483.139    488.157    483.139
 46.770    483.000    498.602    -15.602    483.056    493.344    483.056    488.313    483.056
 46.870    486.000    499.564    -13.564    482.974    494.046    482.974    488.491    482.974
 46.970    504.000    500.823      3.177    482.894    495.021    482.894    488.695    482.894
 47.070    471.000    502.604    -31.604    482.816    496.492    482.816    488.926    482.816
 47.170    490.000    505.316    -15.316    482.740    498.863    482.740    489.189    482.740
 47.270    509.804    509.597      0.207    482.666    502.770    482.666    489.486    482.666
 47.370    503.000    516.264    -13.264    482.593    509.024    482.593    489.822    482.593
 47.470    551.000    526.066     24.934    482.522    518.370    482.522    490.200    482.522
 47.570    542.000    539.238      2.762    482.453    531.038    482.453    490.627    482.453
 47.670    519.000    554.922    -35.922    482.386    546.165    482.386    491.106    482.386
 47.770    552.000    570.654    -18.654    482.321    561.283    482.321    491.644    482.321
 47.870    588.000    582.353      5.647    482.257    572.310    482.257    492.247    482.257
 47.970    545.000    585.890    -40.890    482.195    575.112    482.195    492.922    482.195
 48.070    571.000    580.248     -9.248    482.135    568.664    482.135    493.674    482.135
 48.170    556.000    568.587    -12.587    482.077    556.117    482.077    494.510    482.077
 48.270    574.000    555.456     18.544    482.020    542.013    482.020    495.438    482.020
 48.370    526.237    544.155    -17.918    481.965    529.643    481.965    496.461    481.965
 48.470    522.000    536.231    -14.231    481.912    520.550    481.912    497.583    481.912
 48.570    529.000    531.897     -2.897    481.861    514.947    481.861    498.806    481.861
 48.670    529.000    530.613     -1.613    481.811    512.296    481.811    500.125    481.811
 48.770    547.000    531.610     15.390    481.763    511.840    481.763    501.533    481.763
 48.870    504.596    534.241    -29.644    481.717    512.947    481.717    503.012    481.717
 48.970    463.000    538.120    -75.120    481.672    515.261    481.672    504.533    481.672
 49.070    520.000    543.166    -23.166    481.630    518.741    481.630    506.057    481.630
 49.170    571.974    549.714     22.260    481.589    523.775    481.589    507.530    481.589
 49.270    538.748    558.941    -20.192    481.549    531.608    481.549    508.884    481.549
 49.370    552.000    573.996    -21.996    481.511    545.464    481.511    510.044    481.511
 49.470    601.695    602.138     -0.443    481.475    572.678    481.475    510.931    481.475
 49.570    649.710    657.561     -7.851    481.441    627.507    481.441    511.480    481.441
 49.670    742.000    762.846    -20.846    481.408    732.575    481.408    511.645    481.408
 49.770    991.000    945.020     45.980    481.377    914.921    481.377    511.412    481.377
 49.870   1313.000   1222.604     90.396    481.347   1193.047    481.347    510.803    481.347
 49.970   1585.000   1585.553     -0.553    481.320   1556.874    481.320    509.867    481.320
 50.070   1971.000   1978.065     -7.065    481.293   1950.545    481.293    508.675    481.293
 50.170   2298.000   2297.735      0.265    481.269   2271.597    481.269    507.305    481.269
 50.270   2468.320   2427.062     41.257    481.246   2402.459    481.246    505.831    481.246
 50.370   2244.641   2308.213    -63.572    481.225   2285.205    481.225    504.319    481.225
 50.470   1984.000   1995.481    -11.481    481.205   1974.031    481.205    502.820    481.205
 50.570   1605.000   1605.940     -0.940    481.187   1585.948    481.187    501.372    481.187
 50.670   1261.000   1244.111     16.889    481.170   1225.461    481.170    500.000    481.170
 50.770    941.000    968.412    -27.412    481.155    950.992    481.155    498.719    481.155
 50.870    736.677    790.504    -53.827    481.142    774.212    481.142    497.537    481.142
 50.970    702.000    691.715     10.285    481.130    676.463    481.130    496.456    481.130
 51.070    600.000    643.049    -43.049    481.119    628.748    481.119    495.476    481.119
 51.170    574.412    618.882    -44.470    481.111    605.446    481.111    494.592    481.111
 51.270    598.201    602.841     -4.640    481.103    590.184    481.103    493.799    481.103
 51.370    570.000    588.000    -18.000    481.098    576.040    481.098    493.090    481.098
 51.470    556.000    573.404    -17.404    481.094    562.065    481.094    492.459    481.094
 51.570    566.632    560.140      6.492    481.091    549.351    481.091    491.901    481.091
 51.670    524.000    549.242    -25.242    481.090    538.939    481.090    491.407    481.090
 51.770    501.892    541.133    -39.241    481.090    531.261    481.090    490.974    481.090
 51.870    566.120    535.695     30.425    481.092    526.201    481.092    490.594    481.092
 51.970    501.000    532.496    -31.496    481.095    523.334    481.095    490.264    481.095
 52.070    558.000    531.044     26.956    481.100    522.172    481.100    489.978    481.100
 52.170    503.818    530.956    -27.137    481.106    522.334    481.106    489.733    481.106
 52.270    515.005    532.045    -17.040    481.114    523.639    481.114    489.524    481.114
 52.370    567.000    534.387     32.613    481.123    526.165    481.123    489.349    481.123
 52.470    532.388    538.427     -6.039    481.133    530.360    481.133    489.205    481.133
 52.570    512.000    545.213    -33.213    481.145    537.273    481.145    489.089    481.145
 52.670    575.000    556.756     18.244    481.158    548.919    481.158    489.000    481.158
 52.770    607.104    576.423     30.680    481.173    568.666    481.173    488.934    481.173
 52.870    597.393    609.045    -11.652    481.189    601.346    481.189    488.892    481.189
 52.970    645.000    660.284    -15.284    481.207    652.624    481.207    488.871    481.207
 53.070    736.000    734.892      1.108    481.226    727.252    481.226    488.871    481.226
 53.170    870.000    833.911     36.089    481.246    826.274    481.246    488.890    481.246
 53.270    996.000    951.459     44.541    481.267    943.811    481.267    488.928    481.267
 53.370   1027.350   1071.880    -44.530    481.290   1064.206    481.290    488.984    481.290
 53.470   1128.000   1168.704    -40.704    481.315   1160.991    481.315    489.058    481.315
 53.570   1250.015   1210.937     39.077    481.340   1203.170    481.340    489.149    481.340
 53.670   1143.000   1181.958    -38.958    481.367   1174.118    481.367    489.258    481.367
 53.770   1111.000   1093.974     17.026    481.395   1086.039    481.395    489.385    481.395
 53.870    919.000    976.800    -57.800    481.425    968.747    481.425    489.529    481.425
 53.970    827.000    858.313    -31.313    481.455    850.122    481.455    489.691    481.455
 54.070    714.000    756.167    -42.167    481.488    747.819    481.488    489.871    481.488
 54.170    696.000    677.891     18.109    481.521    669.368    481.521    490.069    481.521
 54.270    658.000    623.514     34.486    481.555    614.801    481.555    490.287    481.555
 54.370    608.175    588.774     19.401    481.591    579.853    481.591    490.525    481.591
 54.470    613.849    568.041     45.808    481.628    558.896    481.628    490.783    481.628
 54.570    592.493    556.277     36.216    481.666    546.888    481.666    491.063    481.666
 54.670    554.554    549.845      4.709    481.706    540.190    481.706    491.367    481.706
 54.770    541.000    546.498     -5.498    481.746    536.556    481.746    491.694    481.746
 54.870    575.000    545.012     29.988    481.788    534.758    481.788    492.048    481.788
 54.970    574.141    544.782     29.359    481.831    534.190    481.831    492.429    481.831
 55.070    584.000    545.541     38.459    481.875    534.582    481.875    492.840    481.875
 55.170    562.091    547.191     14.900    481.921    535.834    481.921    493.282    481.921
 55.270    526.958    549.729    -22.772    481.967    537.942    481.967    493.760    481.967
 55.370    508.546    553.230    -44.684    482.015    540.975    482.015    494.275    482.015
 55.470    596.286    557.852     38.433    482.063    545.091    482.063    494.831    482.063
 55.570    557.000    563.911     -6.911    482.113    550.598    482.113    495.432    482.113
 55.670    606.000    572.040     33.960    482.164    558.128    482.164    496.082    482.164
 55.770    597.000    583.537     13.463    482.216    568.972    482.216    496.786    482.216
 55.870    615.000    600.988     14.012    482.269    585.709    482.269    497.550    482.269
 55.970    639.231    629.212     10.020    482.323    613.153    482.323    498.381    482.323
 56.070    670.961    676.343     -5.382    482.379    659.428    482.379    499.286    482.379
 56.170    798.000    754.449     43.551    482.435    736.595    482.435    500.273    482.435
 56.270    826.706    878.654    -51.949    482.492    859.770    482.492    501.350    482.492
 56.370   1112.255   1063.679     48.577    482.550   1043.666    482.550    502.530    482.550
 56.470   1289.000   1317.477    -28.477    482.610   1296.232    482.610    503.822    482.610
 56.570   1526.000   1633.209   -107.209    482.670   1610.623    482.670    505.240    482.670
 56.670   1959.000   1981.980    -22.980    482.731   1957.938    482.731    506.797    482.731
 56.770   2286.000   2309.268    -23.268    482.793   2283.643    482.793    508.509    482.793
 56.870   2584.016   2540.321     43.696    482.857   2512.963    482.857    510.393    482.857
 56.970   2517.000   2605.208    -88.208    482.921   2575.927    482.921    512.465    482.921
 57.070   2504.000   2481.342     22.658    482.986   2449.898    482.986    514.744    482.986
 57.170   2192.000   2211.974    -19.974    483.052   2178.093    483.052    517.251    483.052
 57.270   1875.000   1874.126      0.874    483.119   1837.527    483.119    520.004    483.119
 57.370   1557.000   1537.640     19.360    483.186   1498.035    483.186    523.025    483.186
 57.470   1262.000   1248.049     13.951    483.255   1205.149    483.255    526.332    483.255
 57.570   1008.000   1025.812    -17.812    483.325    979.319    483.325    529.944    483.325
 57.670    906.060    871.747     34.312    483.395    821.355    483.395    533.873    483.395
 57.770    768.000    774.990     -6.990    483.466    720.385    483.466    538.128    483.466
 57.870    743.323    720.872     22.451    483.539    661.739    483.539    542.710    483.539
 57.970    740.205    696.544     43.661    483.611    632.577    483.611    547.605    483.611
 58.070    676.000    693.570    -17.570    483.685    624.490    483.685    552.783    483.685
 58.170    710.000    708.051      1.949    483.760    633.631    483.760    558.190    483.760
 58.270    747.361    739.289      8.071    483.835    659.382    483.835    563.744    483.835
 58.370    750.000    787.857    -37.857    483.911    702.433    483.911    569.328    483.911
 58.470    864.000    853.670     10.330    483.988    762.856    483.988    574.787    483.988
 58.570    927.000    934.354     -7.354    484.066    838.470    484.066    579.928    484.066
 58.670   1022.537   1024.199     -1.662    484.144    923.787    484.144    584.533    484.144
 58.770   1164.000   1114.497     49.503    484.223   1010.331    484.223    588.370    484.223
 58.870   1203.000   1195.999      7.001    484.303   1089.073    484.303    591.220    484.303
 58.970   1299.262   1261.072     38.190    484.384   1152.555    484.384    592.905    484.384
 59.070   1344.870   1302.692     42.178    484.465   1193.859    484.465    593.316    484.465
 59.170   1309.000   1314.281     -5.281    484.547   1206.428    484.547    592.430    484.547
 59.270   1238.004   1294.792    -56.789    484.629   1189.144    484.629    590.317    484.629
 59.370   1331.000   1253.094     77.906    484.712   1150.719    484.712    587.123    484.712
 59.470   1231.980   1204.186     27.794    484.796   1105.951    484.796    583.052    484.796
 59.570   1216.000   1162.772     53.228    484.881   1069.313    484.881    578.332    484.881
 59.670   1097.668   1141.169    -43.502    484.966   1052.897    484.966    573.192    484.966
 59.770   1123.610   1149.634    -26.024    485.052   1066.754    485.052    567.840    485.052
 59.870   1220.866   1194.386     26.480    485.138   1116.935    485.138    562.448    485.138
 59.970   1356.000   1273.300     82.700    485.225   1201.186    485.225    557.153    485.225
 60.070   1420.600   1372.926     47.674    485.312   1305.964    485.312    552.053    485.312
 60.170   1482.035   1468.794     13.242    485.400   1406.742    485.400    547.217    485.400
 60.270   1488.757   1529.897    -41.139    485.488   1472.478    485.488    542.683    485.488
 60.370   1517.310   1529.380    -12.070    485.577   1476.294    485.577    538.474    485.577
 60.470   1460.545   1458.827      1.718    485.667   1409.756    485.667    534.595    485.667
 60.570   1317.000   1333.283    -16.283    485.757   1287.902    485.757    531.041    485.757
 60.670   1219.000   1180.622     38.378    485.847   1138.609    485.847    527.801    485.847
 60.770   1056.000   1027.819     28.181    485.938    988.866    485.938    524.859    485.938
 60.870    898.000    894.068      3.932    486.030    857.887    486.030    522.196    486.030
 60.970    773.000    789.396    -16.396    486.122    755.719    486.122    519.791    486.122
 61.070    728.000    716.109     11.891    486.214    684.693    486.214    517.623    486.214
 61.170    660.000    671.776    -11.776    486.307    642.402    486.307    515.672    486.307
 61.270    617.180    652.588    -35.408    486.400    625.054    486.400    513.918    486.400
 61.370    637.317    655.975    -18.657    486.493    630.103    486.493    512.339    486.493
 61.470    707.000    681.800     25.200    486.587    657.429    486.587    510.918    486.587
 61.570    748.000    731.956     16.044    486.682    708.942    486.682    509.637    486.682
 61.670    741.000    808.588    -67.588    486.776    786.805    486.776    508.477    486.776
 61.770    906.000    911.477     -5.477    486.871    890.817    486.871    507.425    486.871
 61.870    983.000   1035.355    -52.355    486.966   1015.728    486.966    506.467    486.966
 61.970   1105.000   1167.969    -62.969    487.062   1149.303    487.062    505.589    487.062
 62.070   1283.974   1289.611     -5.636    487.158   1271.848    487.158    504.783    487.158
 62.170   1365.000   1375.319    -10.319    487.254   1358.415    487.254    504.040    487.254
 62.270   1415.763   1402.283     13.480    487.351   1386.192    487.351    503.353    487.351
 62.370   1353.000   1361.808     -8.808    487.447   1346.484    487.447    502.717    487.447
 62.470   1229.406   1265.356    -35.949    487.544   1250.747    487.544    502.128    487.544
 62.570   1227.000   1136.873     90.127    487.641   1122.927    487.641    501.582    487.641
 62.670    985.696   1000.829    -15.134    487.739    987.496    487.739    501.078    487.739
 62.770    865.000    875.653    -10.653    487.837    862.888    487.837    500.613    487.837
 62.870    725.000    772.078    -47.078    487.934    759.839    487.934    500.184    487.934
 62.970    632.000    693.770    -61.770    488.032    682.021    488.032    499.790    488.032
 63.070    652.000    639.168     12.832    488.130    627.875    488.130    499.429    488.130
 63.170    573.000    603.834    -30.834    488.229    592.967    488.229    499.098    488.229
 63.270    623.000    582.603     40.397    488.327    572.135    488.327    498.795    488.327
 63.370    532.000    571.041    -39.041    488.426    560.944    488.426    498.520    488.426
 63.470    539.288    566.118    -26.830    488.525    556.368    488.525    498.270    488.525
 63.570    554.004    566.342    -12.338    488.623    556.915    488.623    498.043    488.623
 63.670    593.000    571.596     21.404    488.722    562.469    488.722    497.839    488.722
 63.770    580.000    582.872     -2.872    488.821    574.023    488.821    497.654    488.821
 63.870    646.000    601.926     44.074    488.920    593.333    488.920    497.489    488.920
 63.970    637.000    630.796      6.204    489.019    622.438    489.019    497.342    489.019
 64.070    651.000    671.133    -20.133    489.118    662.992    489.118    497.211    489.118
 64.170    756.630    723.369     33.261    489.218    715.427    489.218    497.096    489.218
 64.270    767.962    785.847    -17.885    489.317    778.088    489.317    496.995    489.317
 64.370    851.000    854.077     -3.077    489.416    846.491    489.416    496.908    489.416
 64.470    947.000    920.381     26.619    489.515    912.960    489.515    496.833    489.515
 64.570    922.000    974.502    -52.502    489.614    967.241    489.614    496.771    489.614
 64.670   1035.246   1006.217     29.029    489.713    999.115    489.713    496.720    489.713
 64.770   1012.000   1009.620      2.380    489.812   1002.674    489.812    496.679    489.812
 64.870    939.043    985.747    -46.703    489.911    978.951    489.911    496.649    489.911
 64.970    969.000    941.264     27.736    490.010    934.612    490.010    496.628    490.010
 65.070    854.000    885.333    -31.333    490.108    878.814    490.108    496.615    490.108
 65.170    854.217    826.744     27.472    490.207    820.346    490.207    496.612    490.207
 65.270    706.000    771.923    -65.923    490.305    765.633    490.305    496.616    490.305
 65.370    700.000    724.197    -24.197    490.404    718.002    490.404    496.629    490.404
 65.470    644.000    684.340    -40.340    490.502    678.227    490.502    496.648    490.502
 65.570    692.389    651.808     40.581    490.600    645.766    490.600    496.675    490.600
 65.670    600.762    625.759    -24.998    490.698    619.778    490.698    496.709    490.698
 65.770    585.000    605.376    -20.376    490.795    599.447    490.795    496.749    490.795
 65.870    593.000    589.840      3.160    490.893    583.955    490.893    496.796    490.893
 65.970    564.103    578.356    -14.253    490.990    572.510    490.990    496.849    490.990
 66.070    562.000    570.225     -8.225    491.087    564.412    491.087    496.908    491.087
 66.170    549.166    564.875    -15.709    491.184    559.092    491.184    496.974    491.184
 66.270    560.000    561.861     -1.861    491.280    556.102    491.280    497.045    491.280
 66.370    561.773    560.849      0.924    491.376    555.108    491.376    497.122    491.376
 66.470    519.000    561.624    -42.624    491.472    555.897    491.472    497.204    491.472
 66.570    538.000    564.149    -26.149    491.568    558.429    491.568    497.293    491.568
 66.670    563.000    568.663     -5.663    491.663    562.945    491.663    497.387    491.663
 66.770    595.921    575.846     20.075    491.758    570.124    491.758    497.487    491.758
 66.870    552.000    587.074    -35.074    491.853    581.342    491.853    497.593    491.853
 66.970    595.628    604.752     -9.125    491.947    599.003    491.947    497.705    491.947
 67.070    647.048    632.688     14.360    492.041    626.916    492.041    497.823    492.041
 67.170    658.000    676.344    -18.344    492.135    670.542    492.135    497.947    492.135
 67.270    754.000    742.738     11.262    492.228    736.900    492.228    498.077    492.228
 67.370    817.000    839.703    -22.703    492.321    833.825    492.321    498.214    492.321
 67.470    942.521    974.319    -31.798    492.413    968.397    492.413    498.357    492.413
 67.570   1147.000   1150.545     -3.545    492.505   1144.579    492.505    498.508    492.505
 67.670   1352.000   1366.468    -14.468    492.596   1360.459    492.596    498.666    492.596
 67.770   1588.000   1611.787    -23.787    492.688   1605.738    492.688    498.831    492.688
 67.870   1803.134   1866.161    -63.027    492.778   1860.077    492.778    499.004    492.778
 67.970   2172.000   2099.021     72.979    492.868   2092.904    492.868    499.186    492.868
 68.070   2251.000   2272.472    -21.472    492.958   2266.321    492.958    499.376    492.958
 68.170   2358.000   2350.569      7.431    493.047   2344.372    493.047    499.576    493.047
 68.270   2266.205   2314.704    -48.499    493.135   2308.435    493.135    499.785    493.135
 68.370   2219.000   2173.980     45.020    493.224   2167.601    493.224    500.005    493.224
 68.470   2043.260   1959.686     83.573    493.311   1953.154    493.311    500.237    493.311
 68.570   1795.000   1710.229     84.771    493.398   1703.505    493.398    500.480    493.398
 68.670   1503.000   1459.389     43.611    493.484   1452.444    493.484    500.737    493.484
 68.770   1308.000   1231.420     76.580    493.570   1224.232    493.570    501.007    493.570
 68.870   1094.129   1040.275     53.854    493.655   1032.830    493.655    501.293    493.655
 68.970    912.000    890.776     21.224    493.740    883.063    493.740    501.596    493.740
 69.070    732.000    780.867    -48.867    493.824    772.877    493.824    501.916    493.824
 69.170    778.000    704.360     73.640    493.907    696.082    493.907    502.256    493.907
 69.270    686.040    653.498     32.543    493.990    644.919    493.990    502.619    493.990
 69.370    613.730    620.838     -7.108    494.072    611.940    494.072    503.005    494.072
 69.470    657.000    600.286     56.714    494.153    591.046    494.153    503.418    494.153
 69.570    584.000    587.399     -3.399    494.234    577.790    494.234    503.861    494.234
 69.670    594.233    579.228     15.005    494.314    569.220    494.314    504.338    494.314
 69.770    536.803    573.969    -37.165    494.393    563.523    494.393    504.852    494.393
 69.870    599.000    570.582     28.418    494.472    559.658    494.472    505.408    494.472
 69.970    578.000    568.509      9.491    494.550    557.057    494.550    506.011    494.550
 70.070    577.000    567.465      9.535    494.627    555.431    494.627    506.669    494.627
 70.170    552.000    567.324    -15.324    494.703    554.647    494.703    507.388    494.703
 70.270    527.269    568.070    -40.801    494.779    554.679    494.779    508.176    494.779
 70.370    575.000    569.784      5.216    494.854    555.600    494.854    509.044    494.854
 70.470    582.000    572.678      9.322    494.928    557.609    494.928    510.001    494.928
 70.570    610.000    577.164     32.836    495.001    561.108    495.001    511.060    495.001
 70.670    618.000    583.978     34.022    495.074    566.818    495.074    512.235    495.074
 70.770    567.000    594.338    -27.338    495.145    575.941    495.145    513.540    495.145
 70.870    615.582    610.135      5.447    495.216    590.353    495.216    514.992    495.216
 70.970    652.000    634.099     17.901    495.286    612.765    495.286    516.608    495.286
 71.070    657.102    669.848    -12.747    495.355    646.776    495.355    518.407    495.355
 71.170    672.000    721.705    -49.705    495.423    696.688    495.423    520.408    495.423
 71.270    761.995    794.165    -32.171    495.490    766.977    495.490    522.632    495.490
 71.370    945.062    890.968     54.094    495.557    861.362    495.557    525.098    495.557
 71.470   1049.963   1013.835     36.128    495.622    981.549    495.622    527.824    495.622
 71.570   1205.568   1161.090     44.477    495.687   1125.847    495.687    530.827    495.687
 71.670   1316.000   1326.438    -10.438    495.750   1287.949    495.750    534.120    495.750
 71.770   1469.212   1498.169    -28.956    495.813   1456.142    495.813    537.711    495.813
 71.870   1624.101   1659.059    -34.958    495.875   1613.209    495.875    541.597    495.875
 71.970   1795.000   1787.678      7.322    495.936   1737.732    495.936    545.768    495.936
 72.070   1823.000   1862.488    -39.488    495.995   1808.205    495.995    550.192    495.995
 72.170   1877.000   1869.102      7.898    496.054   1810.286    496.054    554.819    496.054
 72.270   1867.000   1806.942     60.058    496.112   1743.470    496.112    559.569    496.112
 72.370   1674.161   1689.503    -15.342    496.169   1621.359    496.169    564.328    496.169
 72.470   1509.418   1537.940    -28.522    496.225   1465.258    496.225    568.943    496.225
 72.570   1399.000   1373.648     25.352    496.279   1296.750    496.279    573.225    496.279
 72.670   1227.000   1213.937     13.063    496.333   1133.364    496.333    576.958    496.333
 72.770   1116.094   1070.621     45.472    496.386    987.143    496.386    579.915    496.386
 72.870    918.535    950.101    -31.566    496.437    864.691    496.437    581.894    496.437
 72.970    841.205    854.164    -12.959    496.488    767.947    496.488    582.746    496.488
 73.070    804.000    781.217     22.783    496.537    695.386    496.537    582.404    496.537
 73.170    723.000    727.681     -4.681    496.586    643.396    496.586    580.900    496.586
 73.270    692.000    689.251      2.749    496.633    607.553    496.633    578.356    496.633
 73.370    639.000    661.822    -22.822    496.679    583.563    496.679    574.961    496.679
 73.470    659.000    642.014     16.986    496.724    567.824    496.724    570.935    496.724
 73.570    625.000    627.339     -2.339    496.768    557.627    496.768    566.500    496.768
 73.670    575.966    616.143    -40.177    496.811    551.115    496.811    561.858    496.811
 73.770    559.000    607.425    -48.425    496.852    547.124    496.852    557.173    496.852
 73.870    591.069    600.618     -9.549    496.893    544.958    496.893    552.574    496.893
 73.970    587.000    595.412     -8.412    496.932    544.216    496.932    548.152    496.932
 74.070    637.000    591.607     45.393    496.970    544.637    496.970    543.967    496.970
 74.170    613.259    589.012     24.247    497.007    545.994    497.007    540.057    497.007
 74.270    640.000    587.379     52.621    497.042    548.019    497.042    536.440    497.042
 74.370    596.681    586.368     10.313    497.076    550.367    497.076    533.121    497.076
 74.470    636.000    585.539     50.461    497.110    552.603    497.110    530.094    497.110
 74.570    545.065    584.380    -39.316    497.142    554.225    497.142    527.349    497.142
 74.670    598.356    582.410     15.946    497.172    554.767    497.172    524.870    497.172
 74.770    616.000    579.331     36.669    497.202    553.947    497.202    522.639    497.202
 74.870    632.000    575.161     56.839    497.230    551.805    497.230    520.637    497.230
 74.970    672.000    570.229    101.771    497.257    548.689    497.257    518.844    497.257
 75.070    604.545    565.049     39.497    497.282    545.131    497.282    517.240    497.282
 75.170    602.000    560.181     41.819    497.306    541.715    497.306    515.806    497.306
 75.270    589.000    556.174     32.826    497.329    539.005    497.329    514.524    497.329
 75.370    599.000    553.547     45.453    497.351    537.538    497.351    513.378    497.351
 75.470    568.308    552.808     15.499    497.371    537.840    497.371    512.351    497.371
 75.570    612.000    554.463     57.537    497.390    540.427    497.390    511.431    497.390
 75.670    535.000    558.997    -23.997    497.408    545.800    497.408    510.603    497.408
 75.770    571.836    566.842      4.995    497.424    554.400    497.424    509.858    497.424
 75.870    593.902    578.286     15.616    497.439    566.525    497.439    509.184    497.439
 75.970    586.908    593.367     -6.459    497.453    582.223    497.453    508.573    497.453
 76.070    595.000    611.746    -16.746    497.465    601.162    497.465    508.018    497.465
 76.170    674.000    632.594     41.406    497.476    622.520    497.476    507.511    497.476
 76.270    657.979    654.519      3.460    497.485    644.911    497.485    507.047    497.485
 76.370    679.000    675.545      3.455    497.493    666.366    497.493    506.621    497.493
 76.470    706.469    693.202     13.267    497.500    684.419    497.500    506.228    497.500
 76.570    709.000    704.844      4.156    497.505    696.430    497.505    505.866    497.505
 76.670    680.000    708.329    -28.329    497.509    700.257    497.509    505.529    497.509
 76.770    725.000    702.856     22.144    497.511    695.104    497.511    505.217    497.511
 76.870    670.000    689.353    -19.353    497.512    681.901    497.512    504.925    497.512
 76.970    676.964    670.030      6.934    497.511    662.857    497.511    504.653    497.511
 77.070    654.000    647.521      6.479    497.509    640.607    497.509    504.397    497.509
 77.170    610.000    624.229    -14.229    497.506    617.558    497.506    504.158    497.506
 77.270    574.265    602.035    -27.769    497.501    595.589    497.501    503.932    497.501
 77.370    593.000    582.215     10.785    497.494    575.980    497.494    503.719    497.494
 77.470    566.761    565.469      1.292    497.486    559.431    497.486    503.518    497.486
 77.570    591.135    551.999     39.136    497.477    546.144    497.477    503.327    497.477
 77.670    501.000    541.630    -40.630    497.466    535.948    497.466    503.146    497.466
 77.770    509.000    533.950    -24.950    497.453    528.428    497.453    502.974    497.453
 77.870    502.447    528.440    -25.993    497.439    523.069    497.439    502.810    497.439
 77.970    482.000    524.577    -42.577    497.424    519.347    497.424    502.653    497.424
 78.070    499.595    521.902    -22.307    497.407    516.805    497.407    502.504    497.407
 78.170    545.970    520.050     25.920    497.388    515.078    497.388    502.360    497.388
 78.270    520.428    518.751      1.677    497.368    513.896    497.368    502.223    497.368
 78.370    527.143    517.822      9.321    497.346    513.077    497.346    502.091    497.346
 78.470    511.000    517.144     -6.144    497.323    512.503    497.323    501.964    497.323
 78.570    527.000    516.648     10.352    497.298    512.105    497.298    501.841    497.298
 78.670    477.000    516.297    -39.297    497.272    511.846    497.272    501.723    497.272
 78.770    499.000    516.077    -17.077    497.244    511.713    497.244    501.609    497.244
 78.870    517.000    515.989      1.011    497.214    511.705    497.214    501.498    497.214
 78.970    527.123    516.045     11.078    497.183    511.837    497.183    501.391    497.183
 79.070    494.741    516.260    -21.520    497.150    512.124    497.150    501.287    497.150
 79.170    509.000    516.629     -7.629    497.115    512.559    497.115    501.185    497.115
 79.270    517.000    517.256     -0.256    497.079    513.248    497.079    501.087    497.079
 79.370    495.625    518.145    -22.520    497.042    514.196    497.042    500.990    497.042
 79.470    550.000    519.335     30.665    497.002    515.440    497.002    500.896    497.002
 79.570    546.689    520.879     25.810    496.962    517.035    496.962    500.804    496.962
 79.670    540.000    522.851     17.149    496.919    519.053    496.919    500.714    496.919
 79.770    485.000    525.353    -40.353    496.875    521.600    496.875    500.625    496.875
 79.870    565.000    528.533     36.467    496.829    524.821    496.829    500.538    496.829
 79.970    549.033    532.591     16.441    496.781    528.918    496.781    500.451    496.781
 80.070    535.117    537.794     -2.677    496.732    534.158    496.732    500.365    496.732
 80.170    530.000    544.486    -14.486    496.681    540.885    496.681    500.280    496.681
 80.270    520.000    553.073    -33.073    496.629    549.507    496.629    500.194    496.629
 80.370    548.000    563.980    -15.980    496.575    560.449    496.575    500.107    496.575
 80.470    579.000    577.554      1.446    496.519    574.057    496.519    500.020    496.519
 80.570    589.000    593.953     -4.953    496.461    590.490    496.461    499.932    496.461
 80.670    559.000    613.050    -54.050    496.402    609.622    496.402    499.841    496.402
 80.770    603.000    634.359    -31.359    496.341    630.967    496.341    499.749    496.341
 80.870    630.000    657.018    -27.018    496.279    653.663    496.279    499.655    496.279
 80.970    695.649    679.833     15.816    496.214    676.516    496.214    499.559    496.214
 81.070    746.594    701.419     45.175    496.148    698.142    496.148    499.461    496.148
 81.170    714.708    720.404     -5.696    496.081    717.166    496.081    499.360    496.081
 81.270    766.420    735.597     30.823    496.011    732.399    496.011    499.258    496.011
 81.370    700.000    746.092    -46.092    495.940    742.934    495.940    499.154    495.940
 81.470    727.962    751.331    -23.368    495.867    748.211    495.867    499.049    495.867
 81.570    793.000    751.146     41.854    495.793    748.063    495.793    498.943    495.793
 81.670    790.000    745.742     44.258    495.716    742.694    495.716    498.836    495.716
 81.770    764.000    735.621     28.379    495.638    732.607    495.638    498.728    495.638
 81.870    726.248    721.577      4.670    495.558    718.593    495.558    498.619    495.558
 81.970    769.000    704.682     64.318    495.477    701.724    495.477    498.510    495.477
 82.070    690.000    686.160      3.840    495.394    683.225    495.394    498.401    495.394
 82.170    673.000    667.148      5.852    495.309    664.235    495.309    498.291    495.309
 82.270    675.000    648.494     26.506    495.222    645.600    495.222    498.181    495.222
 82.370    633.000    630.711      2.289    495.133    627.834    495.133    498.071    495.133
 82.470    603.000    614.073    -11.073    495.043    611.210    495.043    497.961    495.043
 82.570    569.553    598.762    -29.209    494.951    595.912    494.951    497.850    494.951
 82.670    581.000    584.972     -3.972    494.857    582.132    494.857    497.739    494.857
 82.770    567.841    572.917     -5.076    494.762    570.086    494.762    497.628    494.762
 82.870    564.000    562.801      1.199    494.664    559.976    494.664    497.516    494.664
 82.970    562.000    554.784      7.216    494.565    551.964    494.565    497.404    494.565
 83.070    585.500    548.967     36.533    494.464    546.150    494.464    497.292    494.464
 83.170    548.248    545.382      2.867    494.362    542.567    494.362    497.179    494.362
 83.270    541.196    543.978     -2.782    494.257    541.165    494.257    497.066    494.257
 83.370    531.000    544.608    -13.608    494.151    541.794    494.151    496.952    494.151
 83.470    540.000    547.011     -7.011    494.043    544.195    494.043    496.838    494.043
 83.570    536.000    550.807    -14.807    493.934    547.989    493.934    496.722    493.934
 83.670    564.365    555.504      8.862    493.822    552.683    493.822    496.607    493.822
 83.770    534.000    560.506    -26.506    493.709    557.682    493.709    496.490    493.709
 83.870    527.000    565.148    -38.148    493.594    562.321    493.594    496.373    493.594
 83.970    539.000    568.745    -29.745    493.477    565.916    493.477    496.255    493.477
 84.070    567.000    570.690     -3.690    493.358    567.860    493.358    496.137    493.358
 84.170    557.000    570.577    -13.577    493.238    567.747    493.238    496.018    493.238
 84.270    580.000    568.308     11.692    493.116    565.479    493.116    495.897    493.116
 84.370    525.000    564.110    -39.110    492.992    561.283    492.992    495.777    492.992
 84.470    540.000    558.446    -18.446    492.866    555.620    492.866    495.655    492.866
 84.570    515.510    551.878    -36.368    492.739    549.053    492.739    495.532    492.739
 84.670    560.000    544.961     15.039    492.609    542.135    492.609    495.409    492.609
 84.770    571.000    538.169     32.831    492.478    535.341    492.478    495.285    492.478
 84.870    557.963    531.868     26.095    492.346    529.037    492.346    495.160    492.346
 84.970    500.922    526.307    -25.385    492.211    523.471    492.211    495.034    492.211
 85.070    546.000    521.618     24.382    492.075    518.775    492.075    494.907    492.075
 85.170    560.000    517.837     42.163    491.936    514.985    491.936    494.780    491.936
 85.270    525.000    514.923     10.077    491.796    512.062    491.796    494.651    491.796
 85.370    534.000    512.791     21.209    491.655    509.918    491.655    494.522    491.655
 85.470    523.168    511.333     11.834    491.511    508.447    491.511    494.392    491.511
 85.570    518.000    510.447      7.553    491.366    507.546    491.366    494.261    491.366
 85.670    528.747    510.046     18.701    491.219    507.130    491.219    494.130    491.219
 85.770    545.000    510.078     34.922    491.070    507.144    491.070    493.998    491.070
 85.870    506.322    510.527     -4.205    490.919    507.574    490.919    493.865    490.919
 85.970    510.000    511.416     -1.416    490.767    508.444    490.767    493.731    490.767
 86.070    524.861    512.811     12.050    490.613    509.817    490.613    493.597    490.613
 86.170    484.000    514.812    -30.812    490.457    511.794    490.457    493.462    490.457
 86.270    553.000    517.548     35.452    490.299    514.505    490.299    493.326    490.299
 86.370    529.402    521.168      8.234    490.140    518.097    490.140    493.190    490.140
 86.470    508.000    525.819    -17.819    489.979    522.718    489.979    493.053    489.979
 86.570    515.000    531.627    -16.627    489.816    528.493    489.816    492.916    489.816
 86.670    524.000    538.664    -14.664    489.651    535.496    489.651    492.778    489.651
 86.770    547.000    546.925      0.075    489.485    543.719    489.485    492.640    489.485
 86.870    571.000    556.286     14.714    489.316    553.041    489.316    492.501    489.316
 86.970    602.000    566.489     35.511    489.147    563.203    489.147    492.362    489.147
 87.070    604.000    577.119     26.881    488.975    573.790    488.975    492.223    488.975
 87.170    627.000    587.600     39.400    488.801    584.227    488.801    492.083    488.801
 87.270    636.300    597.214     39.086    488.626    593.798    488.626    491.944    488.626
 87.370    600.000    605.157     -5.157    488.449    601.699    488.449    491.804    488.449
 87.470    595.000    610.648    -15.648    488.271    607.149    488.271    491.665    488.271
 87.570    650.000    613.106     36.894    488.091    609.568    488.091    491.525    488.091
 87.670    679.000    612.317     66.683    487.908    608.743    487.908    491.386    487.908
 87.770    601.000    608.507     -7.507    487.725    604.897    487.725    491.247    487.725
 87.870    594.000    602.264     -8.264    487.539    598.618    487.539    491.108    487.539
 87.970    603.025    594.385      8.640    487.352    590.702    487.352    490.970    487.352
 88.070    579.314    585.737     -6.423    487.163    582.015    487.163    490.833    487.163
 88.170    571.440    577.159     -5.719    486.973    573.395    486.973    490.697    486.973
 88.270    579.885    569.398     10.487    486.780    565.588    486.780    490.561    486.780
 88.370    586.000    563.065     22.935    486.587    559.206    486.587    490.427    486.587
 88.470    558.000    558.601     -0.601    486.391    554.690    486.391    490.294    486.391
 88.570    550.496    556.266     -5.769    486.194    552.297    486.194    490.162    486.194
 88.670    548.000    556.125     -8.125    485.995    552.096    485.995    490.032    485.995
 88.770    557.000    558.066     -1.066    485.794    553.972    485.794    489.905    485.794
 88.870    520.934    561.802    -40.868    485.592    557.639    485.592    489.779    485.592
 88.970    551.000    566.898    -15.898    485.388    562.662    485.388    489.657    485.388
 89.070    615.000    572.793     42.207    485.182    568.479    485.182    489.537    485.182
 89.170    542.000    578.828    -36.828    484.975    574.430    484.975    489.421    484.975
 89.270    541.409    584.285    -42.875    484.766    579.798    484.766    489.308    484.766
 89.370    555.000    588.450    -33.450    484.556    583.867    484.556    489.199    484.556
 89.470    568.677    590.708    -22.031    484.344    586.021    484.344    489.095    484.344
 89.570    569.000    590.655    -21.655    484.130    585.856    484.130    488.996    484.130
 89.670    628.471    588.191     40.279    483.915    583.271    483.915    488.903    483.915
 89.770    553.559    583.531    -29.972    483.698    578.478    483.698    488.816    483.698
 89.870    573.000    577.123     -4.123    483.480    571.929    483.480    488.736    483.480
 89.970    536.000    569.536    -33.536    483.260    564.188    483.260    488.664    483.260
 90.070    557.000    561.346     -4.346    483.038    555.835    483.038    488.600    483.038
 90.170    572.713    553.075     19.639    482.815    547.389    482.815    488.545    482.815
 90.270    517.000    545.132    -28.132    482.590    539.260    482.590    488.499    482.590
 90.370    498.000    537.880    -39.880    482.364    531.811    482.364    488.464    482.364
 90.470    493.000    531.520    -38.520    482.136    525.240    482.136    488.441    482.136
 90.570    512.000    526.160    -14.160    481.907    519.657    481.907    488.430    481.907
 90.670    533.730    521.828     11.903    481.676    515.086    481.676    488.432    481.676
 90.770    472.000    518.483    -46.483    481.443    511.489    481.443    488.449    481.443
 90.870    496.788    516.044    -19.256    481.209    508.781    481.209    488.481    481.209
 90.970    525.000    514.408     10.592    480.974    506.860    480.974    488.528    480.974
 91.070    512.866    513.475     -0.609    480.737    505.623    480.737    488.593    480.737
 91.170    478.000    513.158    -35.158    480.499    504.983    480.499    488.676    480.499
 91.270    513.000    513.401     -0.401    480.259    504.884    480.259    488.777    480.259
 91.370    495.116    514.184    -19.068    480.018    505.304    480.018    488.898    480.018
 91.470    514.000    515.529     -1.529    479.775    506.263    479.775    489.039    479.775
 91.570    548.000    517.498     30.502    479.531    507.826    479.531    489.201    479.531
 91.670    505.000    520.199    -15.199    479.286    510.096    479.286    489.384    479.286
 91.770    512.000    523.774    -11.774    479.039    513.218    479.039    489.588    479.039
 91.870    546.084    528.397     17.688    478.790    517.365    478.790    489.813    478.790
 91.970    513.000    534.259    -21.259    478.540    522.729    478.540    490.059    478.540
 92.070    519.000    541.558    -22.558    478.289    529.509    478.289    490.323    478.289
 92.170    551.000    550.476      0.524    478.037    537.888    478.037    490.605    478.037
 92.270    522.618    561.157    -38.539    477.783    548.013    477.783    490.903    477.783
 92.370    575.581    573.688      1.893    477.528    559.974    477.528    491.211    477.528
 92.470    639.000    588.075     50.925    477.271    573.782    477.271    491.528    477.271
 92.570    617.000    604.222     12.778    477.013    589.347    477.013    491.846    477.013
 92.670    620.000    621.918     -1.918    476.754    606.463    476.754    492.161    476.754
 92.770    656.000    640.820     15.180    476.494    624.797    476.494    492.463    476.494
 92.870    683.658    660.468     23.191    476.232    643.896    476.232    492.744    476.232
 92.970    674.198    680.278     -6.081    475.969    663.188    475.969    492.995    475.969
 93.070    690.000    699.607     -9.607    475.705    682.039    475.705    493.205    475.705
 93.170    699.000    717.833    -18.833    475.439    699.839    475.439    493.364    475.439
 93.270    777.000    734.481     42.519    475.173    716.122    475.173    493.462    475.173
 93.370    726.000    749.314    -23.314    474.905    730.660    474.905    493.490    474.905
 93.470    784.000    762.352     21.648    474.635    743.478    474.635    493.441    474.635
 93.570    856.000    773.795     82.205    474.365    754.784    474.365    493.310    474.365
 93.670    793.011    783.901      9.109    474.094    764.836    474.094    493.096    474.094
 93.770    758.000    792.899    -34.899    473.821    773.861    473.821    492.799    473.821
 93.870    831.000    801.085     29.915    473.547    782.154    473.547    492.422    473.547
 93.970    765.144    808.649    -43.505    473.272    789.895    473.272    491.972    473.272
 94.070    835.000    815.890     19.110    472.996    797.379    472.996    491.457    472.996
 94.170    835.000    823.178     11.822    472.719    804.962    472.719    490.887    472.719
 94.270    832.000    830.835      1.165    472.441    812.959    472.441    490.272    472.441
 94.370    832.000    838.982     -6.982    472.161    821.479    472.161    489.622    472.161
 94.470    913.000    847.407     65.593    471.881    830.301    471.881    488.949    471.881
 94.570    876.000    855.516     20.484    471.599    838.820    471.599    488.261    471.599
 94.670    881.000    862.394     18.606    471.317    846.114    471.317    487.568    471.317
 94.770    907.000    866.865     40.135    471.034    850.999    471.034    486.877    471.034
 94.870    848.000    867.707    -19.707    470.749    852.247    470.749    486.193    470.749
 94.970    886.000    863.885     22.115    470.464    848.818    470.464    485.523    470.464
 95.070    827.000    854.814    -27.814    470.177    840.120    470.177    484.871    470.177
 95.170    884.000    840.530     43.470    469.890    826.188    469.890    484.239    469.890
 95.270    845.000    821.718     23.282    469.602    807.701    469.602    483.631    469.602
 95.370    882.000    799.581     82.419    469.313    785.863    469.313    483.047    469.313
 95.470    842.000    775.650     66.350    469.023    762.200    469.023    482.491    469.023
 95.570    784.000    751.591     32.409    468.732    738.380    468.732    481.962    468.732
 95.670    723.919    729.082     -5.163    468.440    716.079    468.440    481.461    468.440
 95.770    741.000    709.723     31.277    468.147    696.897    468.147    480.989    468.147
 95.870    722.000    694.987     27.013    467.854    682.307    467.854    480.546    467.854
 95.970    685.000    686.188     -1.188    467.560    673.623    467.560    480.132    467.560
 96.070    688.523    684.460      4.063    467.265    671.979    467.265    479.746    467.265
 96.170    748.000    690.742     57.258    466.969    678.314    466.969    479.390    466.969
 96.270    679.000    705.767    -26.767    466.672    693.362    466.672    479.064    466.672
 96.370    772.000    730.039     41.961    466.375    717.626    466.375    478.766    466.375
 96.470    740.790    763.800    -23.011    466.077    751.349    466.077    478.498    466.077
 96.570    825.000    806.977     18.023    465.779    794.458    465.779    478.261    465.779
 96.670    904.772    859.114     45.658    465.479    846.497    465.479    478.053    465.479
 96.770    967.000    919.307     47.693    465.180    906.561    465.180    477.876    465.180
 96.870   1037.000    986.133     50.867    464.879    973.228    464.879    477.731    464.879
 96.970   1055.000   1057.613     -2.613    464.578   1044.518    464.578    477.619    464.578
 97.070   1167.841   1131.187     36.653    464.276   1117.872    464.276    477.539    464.276
 97.170   1214.919   1203.742     11.177    463.974   1190.174    463.974    477.495    463.974
 97.270   1269.000   1271.682     -2.682    463.671   1257.828    463.671    477.487    463.671
 97.370   1306.503   1331.110    -24.607    463.368   1316.936    463.368    477.516    463.368
 97.470   1405.000   1378.145     26.855    463.064   1363.613    463.064    477.585    463.064
 97.570   1407.000   1409.426     -2.426    462.760   1394.498    462.760    477.696    462.760
 97.670   1441.000   1422.718     18.282    462.455   1407.350    462.455    477.851    462.455
 97.770   1464.000   1417.291     46.709    462.150   1401.437    462.150    478.051    462.150
 97.870   1342.452   1394.099    -51.648    461.844   1377.706    461.844    478.301    461.844
 97.970   1404.000   1355.505     48.495    461.538   1338.519    461.538    478.602    461.538
 98.070   1305.000   1304.792      0.208    461.232   1287.154    461.232    478.958    461.232
 98.170   1217.950   1245.660    -27.710    460.925   1227.307    460.925    479.371    460.925
 98.270   1174.000   1181.850     -7.850    460.618   1162.718    460.618    479.845    460.618
 98.370   1067.504   1116.908    -49.404    460.311   1096.929    460.311    480.383    460.311
 98.470   1101.000   1054.044     46.956    460.003   1033.147    460.003    480.988    460.003
 98.570    997.000    996.070      0.930    459.696    974.182    459.696    481.663    459.696
 98.670    926.000    945.373    -19.373    459.388    922.420    459.388    482.412    459.388
 98.770    853.000    903.923    -50.923    459.079    879.826    459.079    483.238    459.079
 98.870    840.000    873.289    -33.289    458.771    847.968    458.771    484.143    458.771
 98.970    841.798    854.666    -12.869    458.463    828.040    458.463    485.130    458.463
 99.070    808.000    848.915    -40.915    458.154    820.900    458.154    486.202    458.154
 99.170    849.000    856.591     -7.591    457.845    827.102    457.845    487.359    457.845
 99.270    872.000    877.974     -5.974    457.536    846.926    457.536    488.604    457.536
 99.370    938.000    913.079     24.921    457.228    880.387    457.228    489.936    457.228
 99.470    953.000    961.639     -8.639    456.919    927.220    456.919    491.354    456.919
 99.570   1032.315   1023.078      9.237    456.610    986.850    456.610    492.856    456.610
 99.670   1073.000   1096.454    -23.454    456.301   1058.340    456.301    494.439    456.301
 99.770   1145.846   1180.404    -34.558    455.992   1140.334    455.992    496.096    455.992
 99.870   1252.000   1273.085    -21.085    455.683   1230.996    455.683    497.820    455.683
 99.970   1383.000   1372.134     10.866    455.375   1327.975    455.375    499.599    455.375
100.070   1480.000   1474.653      5.347    455.066   1428.386    455.066    501.419    455.066
100.170   1578.000   1577.249      0.751    454.758   1528.856    454.758    503.262    454.758
100.270   1726.000   1676.198     49.802    454.450   1625.679    454.450    505.107    454.450
100.370   1697.892   1767.687    -69.795    454.142   1715.070    454.142    506.927    454.142
100.470   1926.912   1848.149     78.763    453.835   1793.490    453.835    508.693    453.835
100.570   1942.000   1914.542     27.458    453.527   1857.928    453.527    510.369    453.527
100.670   1978.640   1964.494     14.146    453.220   1906.050    453.220    511.918    453.220
100.770   1988.000   1996.281     -8.281    452.914   1936.171    452.914    513.302    452.914
100.870   1955.763   2008.760    -52.997    452.607   1947.185    452.607    514.480    452.607
100.970   1992.000   2001.402     -9.402    452.302   1938.600    452.302    515.414    452.302
101.070   1972.000   1974.506     -2.506    451.996   1910.752    451.996    516.071    451.996
101.170   1998.113   1929.481     68.632    451.691   1865.073    451.691    516.422    451.691
101.270   1878.672   1868.978      9.694    451.386   1804.237    451.386    516.448    451.386
101.370   1736.772   1796.732    -59.960    451.082   1731.988    451.082    516.139    451.082
101.470   1651.225   1717.118    -65.893    450.779   1652.700    450.779    515.497    450.779
101.570   1646.043   1634.590     11.453    450.476   1570.816    450.476    514.533    450.476
101.670   1531.980   1553.263    -21.283    450.174   1490.431    450.174    513.269    450.174
101.770   1421.000   1476.484    -55.484    449.872   1414.866    449.872    511.734    449.872
101.870   1380.000   1406.743    -26.743    449.571   1346.574    449.571    509.963    449.571
101.970   1450.000   1345.604    104.396    449.271   1287.083    449.271    507.995    449.271
102.070   1260.000   1293.725    -33.725    448.971   1237.011    448.971    505.871    448.971
102.170   1293.000   1250.918     42.082    448.672   1196.133    448.672    503.628    448.672
102.270   1189.000   1216.240    -27.240    448.374   1163.468    448.374    501.304    448.374
102.370   1163.000   1188.116    -25.116    448.077   1137.409    448.077    498.933    448.077
102.470   1231.000   1164.508     66.492    447.781   1115.887    447.781    496.543    447.781
102.570   1158.000   1143.126     14.874    447.486   1096.587    447.486    494.160    447.486
102.670   1131.000   1121.706      9.294    447.191   1077.224    447.191    491.806    447.191
102.770   1080.000   1098.303    -18.303    446.897   1055.835    446.897    489.497    446.897
102.870   1027.811   1071.550    -43.738    446.605   1031.038    446.605    487.246    446.605
102.970   1030.000   1040.794    -10.794    446.313   1002.170    446.313    485.065    446.313
103.070   1028.000   1006.079     21.921    446.023    969.267    446.023    482.960    446.023
103.170   1003.000    967.996     35.004    445.734    932.912    445.734    480.938    445.734
103.270    936.023    927.476      8.547    445.445    894.036    445.445    479.001    445.445
103.370    889.323    885.611      3.712    445.158    853.725    445.158    477.152    445.158
103.470    791.954    843.504    -51.550    444.873    813.086    444.873    475.391    444.873
103.570    790.130    802.191    -12.061    444.588    773.153    444.588    473.719    444.588
103.670    795.000    762.576     32.424    444.305    734.831    444.305    472.132    444.305
103.770    723.931    725.400     -1.469    444.023    698.866    444.023    470.631    444.023
103.870    676.906    691.223    -14.317    443.742    665.819    443.742    469.212    443.742
103.970    612.185    660.417    -48.232    443.463    636.064    443.463    467.873    443.463
104.070    622.000    633.170    -11.170    443.185    609.794    443.185    466.610    443.185
104.170    651.000    609.510     41.490    442.908    587.039    442.908    465.422    442.908
104.270    637.000    589.325     47.675    442.633    567.690    442.633    464.303    442.633
104.370    562.000    572.398    -10.398    442.360    551.536    442.360    463.252    442.360
104.470    544.000    558.443    -14.443    442.088    538.291    442.088    462.264    442.088
104.570    549.000    547.132      1.868    441.818    527.634    441.818    461.336    441.818
104.670    566.901    538.131     28.771    441.549    519.231    441.549    460.465    441.549
104.770    542.000    531.115     10.885    441.283    512.762    441.283    459.648    441.283
104.870    512.000    525.792    -13.792    441.017    507.939    441.017    458.881    441.017
104.970    555.145    521.912     33.233    440.754    504.512    440.754    458.161    440.754
105.070    481.037    519.272    -38.235    440.492    502.283    440.492    457.486    440.492
105.170    537.000    517.719     19.281    440.233    501.102    440.233    456.853    440.233
105.270    542.554    517.150     25.404    439.975    500.867    439.975    456.259    439.975
105.370    513.000    517.505     -4.505    439.719    501.521    439.719    455.702    439.719
105.470    588.000    518.765     69.235    439.465    503.047    439.465    455.180    439.465
105.570    538.086    520.944     17.142    439.213    505.461    439.213    454.690    439.213
105.670    519.000    524.083     -5.083    438.963    508.808    438.963    454.231    438.963
105.770    549.000    528.242     20.758    438.715    513.146    438.715    453.801    438.715
105.870    542.219    533.486      8.733    438.469    518.545    438.469    453.398    438.469
105.970    498.467    539.877    -41.410    438.225    525.067    438.225    453.021    438.225
106.070    556.000    547.457      8.543    437.984    532.755    437.984    452.669    437.984
106.170    577.557    556.238     21.319    437.745    541.622    437.745    452.340    437.745
106.270    586.722    566.188     20.534    437.508    551.638    437.508    452.034    437.508
106.370    621.000    577.223     43.777    437.273    562.720    437.273    451.749    437.273
106.470    583.000    589.203     -6.203    437.041    574.728    437.041    451.485    437.041
106.570    616.000    601.925     14.075    436.812    587.461    436.812    451.242    436.812
106.670    588.000    615.135    -27.135    436.584    600.665    436.584    451.018    436.584
106.770    598.646    628.518    -29.872    436.359    614.025    436.359    450.814    436.359
106.870    650.224    641.710      8.514    436.137    627.179    436.137    450.628    436.137
106.970    627.000    654.316    -27.316    435.918    639.732    435.918    450.461    435.918
107.070    653.000    665.926    -12.926    435.701    651.273    435.701    450.313    435.701
107.170    657.000    676.149    -19.149    435.486    661.412    435.486    450.183    435.486
107.270    637.000    684.648    -47.648    435.275    669.813    435.275    450.071    435.275
107.370    634.000    691.197    -57.197    435.066    676.249    435.066    449.978    435.066
107.470    652.000    695.736    -43.736    434.860    680.659    434.860    449.904    434.860
107.570    661.438    698.353    -36.916    434.657    683.133    434.657    449.849    434.657
107.670    674.000    699.302    -25.302    434.456    683.923    434.456    449.813    434.456
107.770    704.000    698.955      5.045    434.259    683.400    434.259    449.796    434.259
107.870    665.000    697.744    -32.744    434.065    681.995    434.065    449.800    434.065
107.970    678.000    696.102    -18.102    433.874    680.142    433.874    449.824    433.874
108.070    711.000    694.416     16.584    433.686    678.228    433.686    449.870    433.686
108.170    653.000    692.994    -39.994    433.501    676.558    433.501    449.937    433.501
108.270    693.846    692.039      1.807    433.319    675.337    433.319    450.027    433.319
108.370    663.000    691.643    -28.643    433.140    674.652    433.140    450.141    433.140
108.470    672.409    691.775    -19.366    432.965    674.475    432.965    450.280    432.965
108.570    660.000    692.290    -32.290    432.793    674.658    432.793    450.444    432.793
108.670    692.887    692.935     -0.048    432.624    674.948    432.624    450.635    432.624
108.770    740.000    693.371     46.629    432.459    675.004    432.459    450.855    432.459
108.870    648.369    693.205    -44.836    432.298    674.430    432.298    451.104    432.298
108.970    716.000    692.032     23.968    432.140    672.822    432.140    451.384    432.140
109.070    677.000    689.494    -12.494    431.985    669.819    431.985    451.697    431.985
109.170    645.000    685.334    -40.334    431.834    665.163    431.834    452.045    431.834
109.270    730.000    679.437     50.563    431.687    658.735    431.687    452.429    431.687
109.370    681.237    671.841      9.395    431.544    650.573    431.544    452.852    431.544
109.470    713.000    662.726     50.274    431.404    640.853    431.404    453.317    431.404
109.570    685.000    652.372     32.628    431.268    629.856    431.268    453.824    431.268
109.670    602.518    641.123    -38.605    431.136    617.920    431.136    454.378    431.136
109.770    603.007    629.340    -26.332    431.008    605.404    431.008    454.980    431.008
109.870    606.913    617.379    -10.466    430.884    592.663    430.884    455.634    430.884
109.970    600.000    605.568     -5.568    430.764    580.021    430.764    456.343    430.764
110.070    632.000    594.196     37.804    430.648    567.764    430.648    457.109    430.648
110.170    598.000    583.508     14.492    430.536    556.133    430.536    457.937    430.536
110.270    578.000    573.700      4.300    430.429    545.322    430.429    458.830    430.429
110.370    594.000    564.920     29.080    430.326    535.474    430.326    459.791    430.326
110.470    575.867    557.265     18.602    430.227    526.685    430.227    460.824    430.227
110.570    584.130    550.789     33.341    430.132    519.002    430.132    461.934    430.132
110.670    554.556    545.503      9.053    430.042    512.433    430.042    463.124    430.042
110.770    578.000    541.384     36.616    429.956    506.952    429.956    464.398    429.956
110.870    544.000    538.380      5.620    429.875    502.502    429.875    465.762    429.875
110.970    531.000    536.419     -5.419    429.798    499.006    429.798    467.218    429.798
111.070    551.000    535.416     15.584    429.726    496.375    429.726    468.772    429.726
111.170    578.767    535.277     43.490    429.659    494.513    429.659    470.427    429.659
111.270    564.227    535.909     28.318    429.597    493.319    429.597    472.189    429.597
111.370    564.290    537.219     27.071    429.539    492.699    429.539    474.060    429.539
111.470    562.601    539.123     23.477    429.486    492.563    429.486    476.047    429.486
111.570    569.000    541.543     27.457    429.438    492.830    429.438    478.151    429.438
111.670    533.764    544.412    -10.649    429.395    493.429    429.395    480.377    429.395
111.770    548.005    547.673      0.332    429.357    494.300    429.357    482.729    429.357
111.870    570.000    551.279     18.721    429.324    495.393    429.324    485.209    429.324
111.970    535.000    555.197    -20.197    429.297    496.672    429.297    487.819    429.297
112.070    512.000    559.402    -47.402    429.274    498.112    429.274    490.563    429.274
112.170    559.000    563.882     -4.882    429.257    499.697    429.257    493.440    429.257
112.270    518.000    568.637    -50.637    429.245    501.428    429.245    496.451    429.245
112.370    561.000    573.674    -12.674    429.239    503.315    429.239    499.597    429.239
112.470    548.000    579.014    -31.014    429.238    505.377    429.238    502.874    429.238
112.570    549.000    584.685    -35.685    429.242    507.646    429.242    506.279    429.242
112.670    576.666    590.720    -14.054    429.252    510.162    429.252    509.809    429.252
112.770    645.362    597.137     48.226    429.268    512.948    429.268    513.455    429.268
112.870    625.323    604.067     21.257    429.290    516.145    429.290    517.210    429.290
112.970    640.520    611.578     28.942    429.317    519.832    429.317    521.061    429.317
113.070    591.000    619.769    -28.769    429.350    524.121    429.350    524.995    429.350
113.170    620.000    628.781     -8.781    429.388    529.173    429.388    528.994    429.388
113.270    629.337    638.803     -9.466    429.433    535.196    429.433    533.037    429.433
113.370    638.000    650.079    -12.079    429.484    542.458    429.484    537.099    429.484
113.470    640.720    662.925    -22.205    429.541    551.306    429.541    541.153    429.541
113.570    658.000    677.748    -19.748    429.604    562.178    429.604    545.165    429.604
113.670    688.000    695.064     -7.064    429.673    575.627    429.673    549.098    429.673
113.770    758.452    715.521     42.931    429.748    592.341    429.748    552.912    429.748
113.870    725.000    739.919    -14.919    429.830    613.164    429.830    556.563    429.830
113.970    790.000    769.233     20.767    429.918    639.117    429.918    560.005    429.918
114.070    753.000    804.630    -51.630    430.013    671.415    430.013    563.190    430.013
114.170    884.894    847.485     37.409    430.114    711.481    430.114    566.069    430.114
114.270    921.037    899.383     21.654    430.221    760.947    430.221    568.596    430.221
114.370   1002.033    962.118     39.915    430.336    821.649    430.336    570.728    430.336
114.470   1065.525   1037.670     27.856    430.457    895.606    430.457    572.426    430.457
114.570   1068.919   1128.171    -59.252    430.584    984.980    430.584    573.660    430.584
114.670   1174.076   1235.849    -61.773    430.719   1092.023    430.719    574.406    430.719
114.770   1376.857   1362.947     13.910    430.861   1218.990    430.861    574.652    430.861
114.870   1560.342   1511.629     48.713    431.009   1368.048    431.009    574.395    431.009
114.970   1753.000   1683.855     69.145    431.165   1541.151    431.165    573.645    431.165
115.070   1838.881   1881.250    -42.370    431.327   1739.903    431.327    572.418    431.327
115.170   2145.000   2104.950     40.050    431.497   1965.415    431.497    570.743    431.497
115.270   2528.000   2355.450    172.550    431.674   2218.149    431.674    568.656    431.674
115.370   2657.181   2632.458     24.723    431.858   2497.771    431.858    566.197    431.858
115.470   2847.000   2934.759    -87.759    432.050   2803.023    432.050    563.412    432.050
115.570   3225.000   3260.100    -35.100    432.249   3131.606    432.249    560.349    432.249
115.670   3637.000   3605.119     31.881    432.456   3480.109    432.456    557.056    432.456
115.770   3867.000   3965.299    -98.299    432.670   3843.973    432.670    553.580    432.670
115.870   4455.443   4334.978    120.465    432.892   4217.490    432.892    549.968    432.892
115.970   4659.000   4707.403    -48.403    433.122   4593.866    433.122    546.260    433.122
116.070   4988.000   5074.827    -86.827    433.360   4965.318    433.360    542.496    433.360
116.170   5540.432   5428.676    111.755    433.605   5323.237    433.605    538.711    433.605
116.270   5544.000   5759.762   -215.762    433.858   5658.404    433.858    534.935    433.858
116.370   6168.000   6058.591    109.409    434.120   5961.300    434.120    531.194    434.120
116.470   6539.000   6315.761    223.239    434.389   6222.500    434.389    527.512    434.389
116.570   6475.000   6522.475    -47.475    434.667   6433.183    434.667    523.906    434.667
116.670   6675.731   6671.142      4.589    434.953   6585.743    434.953    520.394    434.953
116.770   6718.114   6756.023    -37.909    435.247   6674.424    435.247    516.988    435.247
116.870   6802.000   6773.789     28.211    435.549   6695.880    435.549    513.698    435.549
116.970   6798.000   6723.877     74.123    435.860   6649.541    435.860    510.531    435.860
117.070   6689.000   6608.555     80.445    436.180   6537.660    436.180    507.494    436.180
117.170   6410.000   6432.653    -22.653    436.508   6365.063    436.508    504.591    436.508
117.270   6225.000   6203.061     21.939    436.845   6138.635    436.845    501.824    436.845
117.370   5825.000   5928.098   -103.098    437.191   5866.691    437.191    499.195    437.191
117.470   5391.000   5616.885   -225.885    437.545   5558.353    437.545    496.703    437.545
117.570   5196.000   5278.793    -82.793    437.908   5222.993    437.908    494.349    437.908
117.670   4752.000   4923.005   -171.005    438.281   4869.797    438.281    492.130    438.281
117.770   4436.890   4558.188   -121.298    438.662   4507.433    438.662    490.044    438.662
117.870   4245.000   4192.239     52.761    439.053   4143.805    439.053    488.089    439.053
117.970   3773.501   3832.121    -58.620    439.452   3785.881    439.452    486.262    439.452
118.070   3390.055   3483.746    -93.691    439.861   3439.578    439.861    484.559    439.861
118.170   3278.000   3151.922    126.078    440.280   3109.709    440.280    482.976    440.280
118.270   2739.254   2840.340   -101.086    440.708   2799.973    440.708    481.511    440.708
118.370   2602.000   2551.623     50.377    441.145   2512.996    441.145    480.158    441.145
118.470   2207.000   2287.396    -80.396    441.592   2250.412    441.592    478.914    441.592
118.570   2019.312   2048.393    -29.081    442.049   2012.958    442.049    477.775    442.049
118.670   1880.000   1834.578     45.422    442.515   1800.604    442.515    476.735    442.515
118.770   1596.597   1645.271    -48.674    442.992   1612.676    442.992    475.792    442.992
118.870   1457.000   1479.283    -22.283    443.478   1447.990    443.478    474.940    443.478
118.970   1301.000   1335.050    -34.050    443.974   1304.984    443.974    474.177    443.974
119.070   1154.608   1210.748    -56.140    444.480   1181.840    444.480    473.497    444.480
119.170   1059.602   1104.417    -44.815    444.997   1076.602    444.997    472.898    444.997
119.270   1014.333   1014.051      0.281    445.524    987.267    445.524    472.374    445.524
119.370    912.000    937.684    -25.684    446.061    911.872    446.061    471.924    446.061
119.470    869.000    873.448     -4.448    446.608    848.552    446.608    471.542    446.608
119.570    776.195    819.618    -43.422    447.166    795.586    447.166    471.226    447.166
119.670    759.421    774.637    -15.217    447.735    751.420    447.735    470.973    447.735
119.770    768.000    737.132     30.868    448.314    714.682    448.314    470.780    448.314
119.870    744.000    705.907     38.093    448.904    684.180    448.904    470.643    448.904
119.970    689.000    679.940      9.060    449.505    658.894    449.505    470.560    449.505
120.070    688.619    658.355     30.264    450.116    637.951    450.116    470.529    450.116
120.170    666.566    640.452     26.114    450.739    620.652    450.739    470.547    450.739
120.270    609.644    625.659    -16.016    451.373    606.428    451.373    470.612    451.373
120.370    625.207    613.478     11.729    452.018    594.782    452.018    470.721    452.018
120.470    583.000    603.513    -20.513    452.674    585.321    452.674    470.873    452.674
120.570    608.000    595.447     12.553    453.342    577.730    453.342    471.066    453.342
120.670    553.000    589.025    -36.025    454.021    571.755    454.021    471.298    454.021
120.770    581.000    584.041     -3.041    454.711    567.193    454.711    471.568    454.711
120.870    605.000    580.328     24.672    455.413    563.878    455.413    471.873    455.413
120.970    594.441    577.753     16.687    456.127    561.677    456.127    472.214    456.127
121.070    547.000    576.204    -29.204    456.853    560.481    456.853    472.587    456.853
121.170    611.000    575.588     35.412    457.590    560.198    457.590    472.992    457.590
121.270    565.000    575.824    -10.824    458.340    560.749    458.340    473.429    458.340
121.370    616.000    576.840     39.160    459.101    562.062    459.101    473.895    459.101
121.470    595.171    578.568     16.603    459.875    564.071    459.875    474.389    459.875
121.570    588.000    580.942      7.058    460.661    566.710    460.661    474.911    460.661
121.670    549.663    583.894    -34.231    461.459    569.914    461.459    475.460    461.459
121.770    611.306    587.353     23.952    462.269    573.612    462.269    476.034    462.269
121.870    550.000    591.244    -41.244    463.092    577.729    463.092    476.633    463.092
121.970    586.000    595.484     -9.484    463.928    582.185    463.928    477.256    463.928
122.070    641.488    599.986     41.502    464.776    586.892    464.776    477.901    464.776
122.170    580.408    604.654    -24.246    465.637    591.756    465.637    478.569    465.637
122.270    617.000    609.386      7.614    466.511    596.677    466.511    479.257    466.511
122.370    593.250    614.077    -20.827    467.398    601.549    467.398    479.966    467.398
122.470    590.830    618.613    -27.783    468.298    606.261    468.298    480.693    468.298
122.570    624.000    622.883      1.117    469.211    610.700    469.211    481.439    469.211
122.670    640.128    626.773     13.356    470.138    614.756    470.138    482.202    470.138
122.770    585.000    630.177    -45.177    471.077    618.322    471.077    482.982    471.077
122.870    691.000    633.000     58.000    472.030    621.305    472.030    483.778    472.030
122.970    668.893    635.163     33.730    472.997    623.626    472.997    484.588    472.997
123.070    681.925    636.606     45.319    473.977    625.226    473.977    485.413    473.977
123.170    640.000    637.298      2.702    474.971    626.074    474.971    486.251    474.971
123.270    654.000    637.230     16.770    475.979    626.163    475.979    487.102    475.979
123.370    663.983    636.422     27.561    477.001    625.512    477.001    487.966    477.001
123.470    622.000    634.913    -12.913    478.036    624.163    478.036    488.841    478.036
123.570    582.000    632.762    -50.762    479.086    622.172    479.086    489.729    479.086
123.670    663.000    630.039     32.961    480.150    619.613    480.150    490.629    480.150
123.770    631.000    626.824      4.176    481.228    616.562    481.228    491.540    481.228
123.870    660.000    623.200     36.800    482.321    613.105    482.321    492.464    482.321
123.970    640.000    619.250     20.750    483.428    609.324    483.428    493.400    483.428
124.070    636.270    615.057     21.214    484.549    605.301    484.549    494.348    484.549
124.170    626.220    610.698     15.522    485.686    601.114    485.686    495.309    485.686
124.270    573.000    606.247    -33.247    486.837    596.836    486.837    496.284    486.837
124.370    584.000    601.770    -17.770    488.003    592.534    488.003    497.272    488.003
124.470    628.000    597.325     30.675    489.184    588.264    489.184    498.275    489.184
124.570    642.000    592.964     49.036    490.380    584.078    490.380    499.293    490.380
124.670    632.000    588.727     43.273    491.591    580.016    491.591    500.326    491.591
124.770    619.000    584.650     34.350    492.818    576.113    492.818    501.376    492.818
124.870    582.000    580.758      1.242    494.060    572.394    494.060    502.442    494.060
124.970    553.000    577.072    -24.072    495.317    568.881    495.317    503.525    495.317
