neutron_powder_diffraction_0120
R_wp: 3.769
Temperature (K): 987.190
Counts: 83556.00
Wavelength (Ã…): 2.52098
COMMENTS
Test file for demonstrating the .xyy file format in Reel1.0
END OF HEADER
   tth       Y_obs     Y_calc      Y_res    Background    Phase_1_Nuc    Phase_1_Mag    Phase_2_Nuc    Phase_2_Mag
  9.970    553.000    563.315    -10.315    562.312    563.203    562.312    562.425    562.312
 10.070    615.000    563.570     51.430    562.491    563.457    562.491    562.604    562.491
 10.170    578.361    563.830     14.532    562.662    563.716    562.662    562.775    562.662
 10.270    535.000    564.095    -29.095    562.827    563.981    562.827    562.940    562.827
 10.370    570.000    564.370      5.630    562.984    564.255    562.984    563.099    562.984
 10.470    590.000    564.657     25.343    563.135    564.542    563.135    563.250    563.135
 10.570    563.000    564.963     -1.963    563.279    564.847    563.279    563.394    563.279
 10.670    570.000    565.292      4.708    563.417    565.176    563.417    563.532    563.417
 10.770    590.813    565.654     25.159    563.547    565.537    563.547    563.663    563.547
 10.870    594.000    566.060     27.940    563.672    565.943    563.672    563.788    563.672
 10.970    572.000    566.526      5.474    563.789    566.408    563.789    563.906    563.789
 11.070    602.000    567.075     34.925    563.900    566.956    563.900    564.018    563.900
 11.170    607.000    567.740     39.260    564.005    567.620    564.005    564.123    564.005
 11.270    590.370    568.568     21.802    564.104    568.447    564.104    564.222    564.104
 11.370    581.000    569.652     11.348    564.196    569.530    564.196    564.315    564.196
 11.470    543.541    571.188    -27.647    564.282    571.064    564.282    564.401    564.282
 11.570    581.000    573.669      7.331    564.361    573.544    564.361    564.481    564.361
 11.670    570.000    578.279     -8.279    564.435    578.151    564.435    564.556    564.435
 11.770    638.000    587.350     50.650    564.503    587.216    564.503    564.624    564.503
 11.870    585.530    604.170    -18.640    564.564    604.026    564.564    564.686    564.564
 11.970    658.000    631.001     26.999    564.620    630.841    564.620    564.742    564.620
 12.070    625.000    664.902    -39.902    564.670    664.722    564.670    564.793    564.670
 12.170    691.964    693.395     -1.432    564.714    693.199    564.714    564.837    564.714
 12.270    731.133    698.721     32.412    564.752    698.520    564.752    564.876    564.752
 12.370    702.053    676.393     25.660    564.785    676.205    564.785    564.909    564.785
 12.470    627.000    642.161    -15.161    564.812    641.992    564.812    564.936    564.812
 12.570    615.206    612.129      3.077    564.833    611.977    564.833    564.958    564.833
 12.670    578.000    592.107    -14.107    564.849    591.966    564.849    564.975    564.849
 12.770    568.000    580.951    -12.951    564.859    580.815    564.859    564.985    564.859
 12.870    547.002    575.314    -28.313    564.864    575.181    564.864    564.991    564.864
 12.970    583.000    572.423     10.577    564.863    572.291    564.863    564.991    564.863
 13.070    554.000    570.750    -16.750    564.857    570.619    564.857    564.986    564.857
 13.170    567.000    569.637     -2.637    564.846    569.505    564.846    564.975    564.846
 13.270    534.000    568.824    -34.824    564.830    568.692    564.830    564.960    564.830
 13.370    583.573    568.200     15.374    564.808    568.068    564.808    564.939    564.808
 13.470    591.244    567.705     23.539    564.782    567.573    564.782    564.913    564.782
 13.570    585.787    567.304     18.484    564.750    567.171    564.750    564.882    564.750
 13.670    581.000    566.970     14.030    564.714    566.837    564.714    564.846    564.714
 13.770    524.927    566.686    -41.759    564.672    566.552    564.672    564.805    564.672
 13.870    527.391    566.439    -39.049    564.626    566.305    564.626    564.759    564.626
 13.970    530.540    566.221    -35.681    564.574    566.086    564.574    564.708    564.574
 14.070    541.555    566.024    -24.469    564.518    565.889    564.518    564.653    564.518
 14.170    547.000    565.844    -18.844    564.457    565.708    564.457    564.593    564.457
 14.270    575.000    565.677      9.323    564.392    565.540    564.392    564.528    564.392
 14.370    568.525    565.519      3.006    564.321    565.381    564.321    564.458    564.321
 14.470    511.000    565.368    -54.368    564.247    565.230    564.247    564.384    564.247
 14.570    549.000    565.224    -16.224    564.167    565.085    564.167    564.306    564.167
 14.670    557.000    565.084     -8.084    564.084    564.944    564.084    564.223    564.084
 14.770    554.000    564.945    -10.945    563.995    564.805    563.995    564.135    563.995
 14.870    533.964    564.807    -30.843    563.903    564.666    563.903    564.043    563.903
 14.970    603.000    564.670     38.330    563.806    564.529    563.806    563.947    563.806
 15.070    582.000    564.534     17.466    563.705    564.392    563.705    563.846    563.705
 15.170    558.000    564.397     -6.397    563.599    564.254    563.599    563.742    563.599
 15.270    570.000    564.259      5.741    563.489    564.116    563.489    563.633    563.489
 15.370    546.000    564.120    -18.120    563.376    563.976    563.376    563.520    563.376
 15.470    572.000    563.980      8.020    563.258    563.835    563.258    563.403    563.258
 15.570    569.052    563.838      5.215    563.136    563.692    563.136    563.282    563.136
 15.670    546.017    563.694    -17.677    563.010    563.547    563.010    563.157    563.010
 15.770    560.000    563.548     -3.548    562.880    563.400    562.880    563.027    562.880
 15.870    534.000    563.399    -29.399    562.746    563.251    562.746    562.895    562.746
 15.970    601.793    563.249     38.544    562.609    563.100    562.609    562.758    562.609
 16.070    539.267    563.096    -23.829    562.467    562.946    562.467    562.617    562.467
 16.170    568.000    562.940      5.060    562.322    562.789    562.322    562.473    562.322
 16.270    575.772    562.782     12.990    562.173    562.630    562.173    562.325    562.173
 16.370    554.000    562.621     -8.621    562.020    562.468    562.020    562.173    562.020
 16.470    530.000    562.457    -32.457    561.864    562.304    561.864    562.018    561.864
 16.570    573.091    562.291     10.800    561.705    562.137    561.705    561.859    561.705
 16.670    598.480    562.122     36.358    561.541    561.967    561.541    561.697    561.541
 16.770    549.000    561.950    -12.950    561.374    561.794    561.374    561.531    561.374
 16.870    600.465    561.776     38.689    561.204    561.619    561.204    561.361    561.204
 16.970    550.118    561.599    -11.481    561.031    561.441    561.031    561.189    561.031
 17.070    541.000    561.421    -20.421    560.854    561.261    560.854    561.013    560.854
 17.170    546.000    561.245    -15.245    560.673    561.085    560.673    560.833    560.673
 17.270    591.000    561.132     29.868    560.490    560.970    560.490    560.651    560.490
 17.370    533.000    561.018    -28.018    560.303    560.856    560.303    560.465    560.303
 17.470    520.000    560.834    -40.834    560.113    560.671    560.113    560.276    560.113
 17.570    521.315    560.641    -39.326    559.920    560.477    559.920    560.084    559.920
 17.670    529.000    560.446    -31.446    559.724    560.280    559.724    559.889    559.724
 17.770    536.680    560.247    -23.568    559.524    560.081    559.524    559.691    559.524
 17.870    513.000    560.047    -47.047    559.322    559.879    559.322    559.490    559.322
 17.970    550.820    559.843     -9.024    559.117    559.674    559.117    559.286    559.117
 18.070    556.996    559.637     -2.641    558.909    559.467    558.909    559.079    558.909
 18.170    504.000    559.429    -55.429    558.698    559.258    558.698    558.869    558.698
 18.270    555.000    559.218     -4.218    558.484    559.046    558.484    558.656    558.484
 18.370    562.000    559.005      2.995    558.267    558.831    558.267    558.441    558.267
 18.470    544.000    558.789    -14.789    558.048    558.614    558.048    558.223    558.048
 18.570    560.000    558.571      1.429    557.826    558.395    557.826    558.002    557.826
 18.670    568.000    558.351      9.649    557.601    558.174    557.601    557.779    557.601
 18.770    565.734    558.129      7.606    557.374    557.950    557.374    557.553    557.374
 18.870    592.610    557.904     34.706    557.144    557.724    557.144    557.324    557.144
 18.970    530.000    557.677    -27.677    556.911    557.496    556.911    557.093    556.911
 19.070    557.000    557.451     -0.451    556.676    557.268    556.676    556.859    556.676
 19.170    555.000    557.222     -2.222    556.439    557.038    556.439    556.623    556.439
 19.270    524.000    556.989    -32.989    556.199    556.803    556.199    556.384    556.199
 19.370    537.000    556.754    -19.754    555.956    556.567    555.956    556.144    555.956
 19.470    551.000    556.517     -5.517    555.712    556.329    555.712    555.900    555.712
 19.570    521.000    556.279    -35.279    555.465    556.088    555.465    555.655    555.465
 19.670    567.276    556.038     11.237    555.215    555.846    555.215    555.407    555.215
 19.770    542.000    555.798    -13.798    554.964    555.605    554.964    555.157    554.964
 19.870    578.124    555.581     22.543    554.710    555.386    554.710    554.905    554.710
 19.970    548.000    555.386     -7.386    554.454    555.189    554.454    554.651    554.454
 20.070    560.000    555.144      4.856    554.196    554.946    554.196    554.395    554.196
 20.170    532.000    554.896    -22.896    553.936    554.696    553.936    554.136    553.936
 20.270    574.773    554.647     20.126    553.674    554.445    553.674    553.876    553.674
 20.370    583.738    554.400     29.338    553.410    554.196    553.410    553.614    553.410
 20.470    540.000    554.149    -14.149    553.144    553.943    553.144    553.349    553.144
 20.570    533.000    553.896    -20.896    552.875    553.688    552.875    553.083    552.875
 20.670    512.000    553.649    -41.649    552.605    553.439    552.605    552.815    552.605
 20.770    551.349    553.438     -2.089    552.334    553.226    552.334    552.545    552.334
 20.870    583.198    553.187     30.011    552.060    552.973    552.060    552.274    552.060
 20.970    554.000    552.930      1.070    551.784    552.714    551.784    552.000    551.784
 21.070    525.000    552.673    -27.673    551.507    552.455    551.507    551.725    551.507
 21.170    549.856    552.415     -2.560    551.228    552.195    551.228    551.449    551.228
 21.270    544.000    552.158     -8.158    550.947    551.935    550.947    551.170    550.947
 21.370    582.468    551.900     30.568    550.665    551.674    550.665    550.890    550.665
 21.470    561.000    551.641      9.359    550.381    551.414    550.381    550.609    550.381
 21.570    553.000    551.384      1.616    550.096    551.154    550.096    550.326    550.096
 21.670    540.147    551.126    -10.979    549.809    550.893    549.809    550.041    549.809
 21.770    532.092    550.870    -18.778    549.520    550.634    549.520    549.755    549.520
 21.870    548.000    550.617     -2.617    549.230    550.379    549.230    549.468    549.230
 21.970    539.000    550.371    -11.371    548.938    550.130    548.938    549.179    548.938
 22.070    565.000    550.122     14.878    548.645    549.878    548.645    548.889    548.645
 22.170    557.115    549.881      7.234    548.351    549.634    548.351    548.598    548.351
 22.270    591.000    549.634     41.366    548.055    549.384    548.055    548.305    548.055
 22.370    527.000    549.389    -22.389    547.758    549.136    547.758    548.012    547.758
 22.470    536.000    549.149    -13.149    547.460    548.893    547.460    547.717    547.460
 22.570    517.399    548.921    -31.522    547.160    548.661    547.160    547.420    547.160
 22.670    545.000    548.721     -3.721    546.859    548.458    546.859    547.123    546.859
 22.770    533.000    548.519    -15.519    546.557    548.252    546.557    546.825    546.557
 22.870    577.275    548.313     28.962    546.254    548.043    546.254    546.526    546.254
 22.970    527.249    548.135    -20.885    545.950    547.860    545.950    546.225    545.950
 23.070    556.136    547.951      8.186    545.645    547.672    545.645    545.924    545.645
 23.170    549.000    547.781      1.219    545.338    547.498    545.338    545.622    545.338
 23.270    545.146    547.648     -2.502    545.031    547.361    545.031    545.319    545.031
 23.370    541.000    547.577     -6.577    544.722    547.285    544.722    545.015    544.722
 23.470    597.000    547.500     49.500    544.413    547.203    544.413    544.710    544.413
 23.570    530.000    547.462    -17.462    544.102    547.160    544.102    544.405    544.102
 23.670    579.000    547.485     31.515    543.791    547.179    543.791    544.099    543.791
 23.770    532.659    547.595    -14.937    543.479    547.283    543.479    543.792    543.479
 23.870    601.000    547.830     53.170    543.166    547.512    543.166    543.485    543.166
 23.970    562.000    548.277     13.723    542.852    547.954    542.852    543.177    542.852
 24.070    529.281    549.067    -19.786    542.537    548.739    542.537    542.869    542.537
 24.170    543.000    550.558     -7.558    542.222    550.224    542.222    542.560    542.222
 24.270    551.745    553.619     -1.874    541.905    553.281    541.905    542.250    541.905
 24.370    555.000    559.856     -4.856    541.589    559.515    541.589    541.941    541.589
 24.470    546.000    571.376    -25.376    541.271    571.037    541.271    541.631    541.271
 24.570    584.000    589.377     -5.377    540.953    589.042    540.953    541.320    540.953
 24.670    652.000    611.479     40.521    540.634    611.151    540.634    541.010    540.634
 24.770    646.000    629.262     16.738    540.314    628.938    540.314    540.699    540.314
 24.870    673.000    631.594     41.406    539.994    631.263    539.994    540.388    539.994
 24.970    643.000    616.344     26.656    539.674    615.993    539.674    540.078    539.674
 25.070    574.000    593.623    -19.623    539.353    593.246    539.353    539.767    539.353
 25.170    550.000    573.552    -23.552    539.031    573.149    539.031    539.456    539.031
 25.270    579.000    559.893     19.107    538.709    559.469    538.709    539.146    538.709
 25.370    586.000    552.034     33.966    538.386    551.592    538.386    538.836    538.386
 25.470    513.000    547.884    -34.884    538.064    547.426    538.064    538.526    538.064
 25.570    528.649    545.641    -16.992    537.740    545.167    537.740    538.217    537.740
 25.670    575.355    544.270     31.084    537.417    543.781    537.417    537.909    537.417
 25.770    574.000    543.310     30.690    537.093    542.804    537.093    537.601    537.093
 25.870    494.000    542.576    -48.576    536.768    542.052    536.768    537.294    536.768
 25.970    499.426    541.989    -42.564    536.444    541.447    536.444    536.988    536.444
 26.070    586.000    541.513     44.487    536.119    540.951    536.119    536.683    536.119
 26.170    506.028    541.124    -35.096    535.794    540.540    535.794    536.379    535.794
 26.270    544.000    540.807      3.193    535.469    540.199    535.469    536.077    535.469
 26.370    582.829    540.555     42.274    535.143    539.922    535.143    535.776    535.143
 26.470    523.000    540.366    -17.366    534.817    539.706    534.817    535.478    534.817
 26.570    556.000    540.240     15.760    534.492    539.550    534.492    535.182    534.492
 26.670    556.000    540.181     15.819    534.166    539.460    534.166    534.888    534.166
 26.770    504.583    540.199    -35.616    533.840    539.442    533.840    534.597    533.840
 26.870    500.417    540.305    -39.888    533.514    539.510    533.514    534.309    533.514
 26.970    530.498    540.519    -10.021    533.188    539.682    533.188    534.025    533.188
 27.070    567.000    540.869     26.131    532.862    539.985    532.862    533.745    532.862
 27.170    540.000    541.393     -1.393    532.536    540.458    532.536    533.471    532.536
 27.270    568.259    542.151     26.107    532.210    541.159    532.210    533.201    532.210
 27.370    525.000    543.234    -18.234    531.884    542.178    531.884    532.939    531.884
 27.470    595.000    544.812     50.188    531.558    543.685    531.558    532.684    531.558
 27.570    539.449    547.333     -7.884    531.232    546.125    531.232    532.438    531.232
 27.670    527.000    552.258    -25.258    530.907    550.959    530.907    532.202    530.907
 27.770    566.000    564.042      1.958    530.581    562.636    530.581    531.978    530.581
 27.870    623.000    592.919     30.081    530.256    591.387    530.256    531.769    530.256
 27.970    631.000    653.729    -22.729    529.931    652.044    529.931    531.578    529.931
 28.070    742.000    753.031    -11.031    529.606    751.164    529.606    531.406    529.606
 28.170    875.272    867.223      8.049    529.281    865.154    529.281    531.258    529.281
 28.270    897.000    935.903    -38.903    528.956    933.629    528.956    531.138    528.956
 28.370    877.000    910.500    -33.500    528.632    908.018    528.632    531.051    528.632
 28.470    822.391    820.451      1.940    528.308    817.727    528.308    531.002    528.308
 28.570    752.000    736.581     15.419    527.985    733.555    527.985    530.997    527.985
 28.670    693.000    706.500    -13.500    527.662    703.108    527.662    531.041    527.662
 28.770    790.000    735.136     54.864    527.339    731.314    527.339    531.141    527.339
 28.870    766.000    792.377    -26.377    527.016    788.072    527.016    531.299    527.016
 28.970    810.725    827.449    -16.723    526.694    822.611    526.694    531.518    526.694
 29.070    785.000    803.501    -18.501    526.372    798.082    526.372    531.792    526.372
 29.170    782.463    735.110     47.353    526.051    729.063    526.051    532.110    526.051
 29.270    667.000    661.095      5.905    525.730    654.394    525.730    532.444    525.730
 29.370    574.234    606.136    -31.903    525.410    598.801    525.410    532.755    525.410
 29.470    578.238    574.269      3.969    525.090    566.380    525.090    532.984    525.090
 29.570    537.000    558.645    -21.645    524.771    550.349    524.771    533.069    524.771
 29.670    591.000    551.357     39.643    524.452    542.856    524.452    532.953    524.452
 29.770    558.000    547.511     10.489    524.133    539.040    524.133    532.604    524.133
 29.870    609.000    544.958     64.042    523.816    536.745    523.816    532.029    523.816
 29.970    575.000    542.963     32.037    523.499    535.196    523.499    531.265    523.499
 30.070    582.000    541.332     40.668    523.182    534.139    523.182    530.375    523.182
 30.170    562.000    540.071     21.929    522.866    533.516    522.866    529.420    522.866
 30.270    523.171    539.340    -16.169    522.551    533.436    522.551    528.453    522.551
 30.370    578.000    539.595     38.405    522.236    534.315    522.236    527.512    522.236
 30.470    570.434    541.835     28.599    521.922    537.132    521.922    526.619    521.922
 30.570    608.000    547.692     60.308    521.609    543.507    521.609    525.783    521.609
 30.670    547.568    558.798    -11.230    521.297    555.066    521.297    525.009    521.297
 30.770    598.000    575.081     22.919    520.985    571.741    520.985    524.292    520.985
 30.870    607.476    592.548     14.929    520.674    589.548    520.674    523.630    520.674
 30.970    619.000    602.630     16.370    520.363    599.929    520.363    523.016    520.363
 31.070    606.000    598.182      7.818    520.054    595.749    520.054    522.445    520.054
 31.170    544.000    582.089    -38.089    519.745    579.893    519.745    521.911    519.745
 31.270    612.000    563.164     48.836    519.437    561.174    519.437    521.409    519.437
 31.370    600.000    547.807     52.193    519.130    545.992    519.130    520.934    519.130
 31.470    537.000    537.870     -0.870    518.823    536.205    518.823    520.483    518.823
 31.570    511.135    532.361    -21.225    518.518    530.823    518.518    520.052    518.518
 31.670    564.750    529.524     35.226    518.213    528.097    518.213    519.638    518.213
 31.770    511.080    528.015    -16.935    517.910    526.684    517.910    519.238    517.910
 31.870    556.307    527.115     29.192    517.607    525.869    517.607    518.851    517.607
 31.970    512.449    526.521    -14.072    517.305    525.350    517.305    518.475    517.305
 32.070    552.000    526.121     25.879    517.004    525.016    517.004    518.108    517.004
 32.170    490.607    525.873    -35.266    516.704    524.827    516.704    517.749    516.704
 32.270    560.000    525.764     34.236    516.405    524.770    516.405    517.398    516.405
 32.370    543.000    525.792     17.208    516.107    524.845    516.107    517.053    516.107
 32.470    528.000    525.966      2.034    515.810    525.061    515.810    516.714    515.810
 32.570    560.000    526.306     33.694    515.513    525.439    515.513    516.379    515.513
 32.670    525.000    526.841     -1.841    515.218    526.009    515.218    516.050    515.218
 32.770    562.000    527.617     34.383    514.924    526.815    514.924    515.725    514.924
 32.870    545.000    528.697     16.303    514.631    527.924    514.631    515.403    514.631
 32.970    522.289    530.180     -7.891    514.339    529.433    514.339    515.085    514.339
 33.070    527.888    532.220     -4.332    514.048    531.496    514.048    514.771    514.048
 33.170    569.000    535.104     33.896    513.758    534.401    513.758    514.460    513.758
 33.270    490.000    539.479    -49.479    513.470    538.795    513.470    514.151    513.470
 33.370    579.000    546.931     32.069    513.182    546.264    513.182    513.846    513.182
 33.470    580.704    561.087     19.617    512.895    560.434    512.895    513.543    512.895
 33.570    578.267    588.865    -10.598    512.610    588.222    512.610    513.242    512.610
 33.670    598.000    640.185    -42.185    512.326    639.546    512.326    512.944    512.326
 33.770    780.000    723.613     56.387    512.042    722.975    512.042    512.648    512.042
 33.870    838.000    837.057      0.943    511.760    836.418    511.760    512.355    511.760
 33.970    998.000    956.300     41.700    511.480    955.665    511.480    512.063    511.480
 34.070    987.131   1031.561    -44.430    511.200   1030.944    511.200    511.774    511.200
 34.170   1017.000   1018.285     -1.285    510.921   1017.698    510.921    511.487    510.921
 34.270    913.026    925.614    -12.588    510.644    925.054    510.644    511.201    510.644
 34.370    795.000    804.008     -9.008    510.368    803.464    510.368    510.918    510.368
 34.470    720.996    696.875     24.120    510.093    696.340    510.093    510.636    510.093
 34.570    580.000    621.695    -41.695    509.820    621.164    509.820    510.356    509.820
 34.670    551.000    576.789    -25.789    509.548    576.261    509.548    510.078    509.548
 34.770    585.770    552.652     33.118    509.277    552.128    509.277    509.802    509.277
 34.870    541.591    540.018      1.573    509.007    539.498    509.007    509.527    509.007
 34.970    528.000    532.919     -4.919    508.738    532.403    508.738    509.254    508.738
 35.070    498.000    528.372    -30.372    508.471    527.860    508.471    508.983    508.471
 35.170    532.000    525.100      6.900    508.205    524.592    508.205    508.714    508.205
 35.270    484.434    522.575    -38.141    507.941    522.069    507.941    508.446    507.941
 35.370    503.303    520.550    -17.247    507.678    520.047    507.678    508.180    507.678
 35.470    534.801    518.887     15.914    507.416    518.387    507.416    507.916    507.416
 35.570    507.000    517.495    -10.495    507.155    516.997    507.155    507.653    507.155
 35.670    554.985    516.312     38.673    506.896    515.816    506.896    507.392    506.896
 35.770    523.000    515.293      7.707    506.638    514.798    506.638    507.132    506.638
 35.870    500.166    514.403    -14.237    506.382    513.910    506.382    506.874    506.382
 35.970    531.000    513.619     17.381    506.126    513.127    506.126    506.618    506.126
 36.070    532.665    512.921     19.744    505.873    512.430    505.873    506.364    505.873
 36.170    515.000    512.296      2.704    505.620    511.806    505.620    506.111    505.620
 36.270    515.000    511.733      3.267    505.369    511.243    505.369    505.859    505.369
 36.370    516.000    511.226      4.774    505.120    510.736    505.120    505.610    505.120
 36.470    500.000    510.768    -10.768    504.872    510.278    504.872    505.362    504.872
 36.570    474.853    510.357    -35.504    504.625    509.867    504.625    505.115    504.625
 36.670    546.662    509.993     36.669    504.380    509.503    504.380    504.870    504.380
 36.770    515.000    509.680      5.320    504.136    509.189    504.136    504.627    504.136
 36.870    480.344    509.433    -29.089    503.894    508.942    503.894    504.386    503.894
 36.970    474.000    509.302    -35.302    503.653    508.809    503.653    504.146    503.653
 37.070    495.000    509.376    -14.376    503.413    508.883    503.413    503.908    503.413
 37.170    541.148    509.834     31.314    503.176    509.339    503.176    503.671    503.176
 37.270    522.462    510.935     11.528    502.939    510.439    502.939    503.436    502.939
 37.370    514.000    512.934      1.066    502.704    512.437    502.704    503.203    502.704
 37.470    506.000    515.882     -9.882    502.471    515.384    502.471    502.971    502.471
 37.570    510.000    519.350     -9.350    502.239    518.851    502.239    502.741    502.239
 37.670    501.418    522.238    -20.820    502.008    521.738    502.008    502.513    502.008
 37.770    503.000    523.124    -20.124    501.779    522.624    501.779    502.286    501.779
 37.870    521.000    521.491     -0.491    501.552    520.990    501.552    502.061    501.552
 37.970    497.000    518.311    -21.311    501.326    517.809    501.326    501.837    501.326
 38.070    484.465    514.815    -30.350    501.101    514.312    501.101    501.616    501.101
 38.170    499.468    511.669    -12.201    500.878    511.162    500.878    501.396    500.878
 38.270    507.000    509.147     -2.147    500.657    508.635    500.657    501.177    500.657
 38.370    500.000    507.298     -7.298    500.437    506.781    500.437    500.961    500.437
 38.470    456.000    506.015    -50.015    500.219    505.492    500.219    500.746    500.219
 38.570    529.000    505.136     23.864    500.002    504.608    500.002    500.533    500.002
 38.670    504.227    504.522     -0.295    499.787    503.990    499.787    500.321    499.787
 38.770    506.918    504.069      2.849    499.574    503.532    499.574    500.111    499.574
 38.870    495.000    503.710     -8.710    499.362    503.169    499.362    499.903    499.362
 38.970    506.124    503.404      2.719    499.151    502.859    499.151    499.697    499.151
 39.070    487.000    503.132    -16.132    498.942    502.583    498.942    499.493    498.942
 39.170    520.000    502.883     17.117    498.735    502.329    498.735    499.290    498.735
 39.270    496.608    502.651     -6.043    498.529    502.093    498.529    499.089    498.529
 39.370    479.000    502.434    -23.434    498.325    501.871    498.325    498.889    498.325
 39.470    519.646    502.230     17.416    498.123    501.661    498.123    498.692    498.123
 39.570    514.000    502.037     11.963    497.922    501.463    497.922    498.496    497.922
 39.670    504.000    501.854      2.146    497.723    501.276    497.723    498.302    497.723
 39.770    522.889    501.682     21.207    497.525    501.098    497.525    498.110    497.525
 39.870    532.000    501.520     30.480    497.329    500.930    497.329    497.919    497.329
 39.970    520.534    501.368     19.166    497.135    500.772    497.135    497.731    497.135
 40.070    530.907    501.226     29.681    496.942    500.625    496.942    497.544    496.942
 40.170    483.000    501.095    -18.095    496.751    500.488    496.751    497.359    496.751
 40.270    498.000    500.976     -2.976    496.561    500.362    496.561    497.176    496.561
 40.370    556.000    500.869     55.131    496.373    500.248    496.373    496.994    496.373
 40.470    514.000    500.776     13.224    496.187    500.148    496.187    496.815    496.187
 40.570    466.000    500.698    -34.698    496.002    500.064    496.002    496.637    496.002
 40.670    491.000    500.637     -9.637    495.819    499.996    495.819    496.462    495.819
 40.770    510.573    500.597      9.976    495.638    499.948    495.638    496.288    495.638
 40.870    477.000    500.580    -23.580    495.458    499.923    495.458    496.116    495.458
 40.970    497.000    500.590     -3.590    495.280    499.925    495.280    495.946    495.280
 41.070    460.000    500.633    -40.633    495.104    499.961    495.104    495.777    495.104
 41.170    457.000    500.717    -43.717    494.929    500.036    494.929    495.611    494.929
 41.270    521.131    500.851     20.280    494.756    500.161    494.756    495.447    494.756
 41.370    466.000    501.048    -35.048    494.584    500.350    494.584    495.284    494.584
 41.470    468.000    501.327    -33.327    494.415    500.619    494.415    495.124    494.415
 41.570    520.000    501.717     18.283    494.246    501.000    494.246    494.965    494.246
 41.670    508.000    502.270      5.730    494.080    501.543    494.080    494.809    494.080
 41.770    524.690    503.093     21.597    493.915    502.356    493.915    494.654    493.915
 41.870    524.000    504.421     19.579    493.752    503.675    493.752    494.502    493.752
 41.970    540.683    506.746     33.937    493.590    505.989    493.590    494.352    493.590
 42.070    468.000    510.976    -42.976    493.430    510.210    493.430    494.203    493.430
 42.170    511.000    518.506     -7.506    493.272    517.731    493.272    494.057    493.272
 42.270    533.782    530.952      2.830    493.116    530.171    493.116    493.912    493.116
 42.370    551.000    549.375      1.625    492.961    548.590    492.961    493.770    492.961
 42.470    570.840    573.022     -2.182    492.808    572.236    492.808    493.630    492.808
 42.570    559.679    597.975    -38.296    492.656    597.190    492.656    493.492    492.656
 42.670    593.044    616.647    -23.603    492.506    615.860    492.506    493.357    492.506
 42.770    638.941    620.632     18.310    492.358    619.835    492.358    493.223    492.358
 42.870    607.000    607.612     -0.612    492.211    606.796    492.211    493.092    492.211
 42.970    587.000    584.064      2.936    492.067    583.220    492.067    492.963    492.067
 43.070    576.310    558.827     17.484    491.923    557.952    491.923    492.836    491.923
 43.170    533.251    537.578     -4.327    491.782    536.673    491.782    492.711    491.782
 43.270    520.000    522.324     -2.324    491.642    521.393    491.642    492.589    491.642
 43.370    526.000    512.630     13.370    491.504    511.675    491.504    492.470    491.504
 43.470    484.197    506.979    -22.782    491.367    506.000    491.367    492.352    491.367
 43.570    484.000    503.800    -19.800    491.232    502.799    491.232    492.237    491.232
 43.670    491.000    501.956    -10.956    491.099    500.934    491.099    492.125    491.099
 43.770    498.000    500.790     -2.790    490.968    499.744    490.968    492.015    490.968
 43.870    464.897    499.973    -35.077    490.838    498.905    490.838    491.908    490.838
 43.970    479.000    499.358    -20.358    490.710    498.266    490.710    491.804    490.710
 44.070    455.596    498.875    -43.279    490.583    497.757    490.583    491.702    490.583
 44.170    472.573    498.487    -25.914    490.458    497.343    490.458    491.604    490.458
 44.270    512.000    498.174     13.826    490.335    497.002    490.335    491.508    490.335
 44.370    530.000    497.919     32.081    490.213    496.719    490.213    491.415    490.213
 44.470    503.961    497.713      6.248    490.093    496.483    490.093    491.325    490.093
 44.570    487.937    497.548     -9.611    489.975    496.286    489.975    491.239    489.975
 44.670    520.000    497.418     22.582    489.859    496.122    489.859    491.155    489.859
 44.770    488.000    497.319     -9.319    489.744    495.988    489.744    491.075    489.744
 44.870    490.000    497.247     -7.247    489.630    495.879    489.630    490.999    489.630
 44.970    506.000    497.201      8.799    489.519    495.794    489.519    490.926    489.519
 45.070    493.145    497.178     -4.033    489.409    495.730    489.409    490.858    489.409
 45.170    526.048    497.178     28.869    489.300    495.686    489.300    490.793    489.300
 45.270    543.000    497.201     45.799    489.194    495.662    489.194    490.732    489.194
 45.370    526.759    497.246     29.513    489.088    495.658    489.088    490.676    489.088
 45.470    515.000    497.313     17.687    488.985    495.673    488.985    490.625    488.985
 45.570    482.434    497.403    -14.969    488.883    495.708    488.883    490.579    488.883
 45.670    519.098    497.518     21.580    488.783    495.764    488.783    490.538    488.783
 45.770    464.132    497.659    -33.528    488.684    495.842    488.684    490.502    488.684
 45.870    514.000    497.828     16.172    488.587    495.943    488.587    490.473    488.587
 45.970    473.000    498.028    -25.028    488.492    496.071    488.492    490.450    488.492
 46.070    488.000    498.262    -10.262    488.398    496.227    488.398    490.434    488.398
 46.170    511.801    498.534     13.266    488.306    496.416    488.306    490.425    488.306
 46.270    483.149    498.851    -15.701    488.216    496.642    488.216    490.424    488.216
 46.370    520.000    499.217     20.783    488.127    496.912    488.127    490.432    488.127
 46.470    507.349    499.644      7.705    488.040    497.233    488.040    490.450    488.040
 46.570    477.555    500.143    -22.587    487.954    497.618    487.954    490.478    487.954
 46.670    527.005    500.732     26.274    487.870    498.083    487.870    490.518    487.870
 46.770    529.781    501.442     28.339    487.788    498.657    487.788    490.571    487.788
 46.870    480.278    502.332    -22.054    487.707    499.399    487.707    490.638    487.707
 46.970    534.000    503.522     30.478    487.628    500.426    487.628    490.722    487.628
 47.070    509.907    505.249      4.657    487.550    501.973    487.550    490.823    487.550
 47.170    534.000    507.939     26.061    487.474    504.463    487.474    490.946    487.474
 47.270    509.000    512.251     -3.251    487.399    508.551    487.399    491.092    487.399
 47.370    546.000    519.012     26.988    487.327    515.060    487.327    491.266    487.327
 47.470    538.796    528.954      9.843    487.255    524.717    487.255    491.472    487.255
 47.570    559.000    542.238     16.762    487.185    537.679    487.185    491.716    487.185
 47.670    580.686    557.874     22.812    487.117    552.949    487.117    492.003    487.117
 47.770    562.000    573.215    -11.215    487.050    567.874    487.050    492.343    487.050
 47.870    625.000    584.060     40.940    486.985    578.248    486.985    492.744    486.985
 47.970    619.000    586.495     32.505    486.922    580.148    486.922    493.216    486.922
 48.070    627.000    579.987     47.013    486.860    573.027    486.860    493.773    486.860
 48.170    592.000    567.975     24.025    486.799    560.308    486.799    494.430    486.799
 48.270    593.029    554.952     38.078    486.740    546.465    486.740    495.201    486.740
 48.370    562.000    544.052     17.948    486.683    534.613    486.683    496.105    486.683
 48.470    525.000    536.678    -11.678    486.627    526.135    486.627    497.159    486.627
 48.570    531.000    532.953     -1.953    486.572    521.138    486.572    498.382    486.572
 48.670    561.490    532.312     29.178    486.520    519.039    486.520    499.789    486.520
 48.770    533.664    534.007     -0.343    486.468    519.082    486.468    501.391    486.468
 48.870    529.425    537.464     -8.039    486.418    520.691    486.418    503.190    486.418
 48.970    538.000    542.367     -4.367    486.370    523.561    486.370    505.175    486.370
 49.070    580.835    548.710     32.125    486.323    527.725    486.323    507.308    486.323
 49.170    554.277    556.936     -2.658    486.278    533.695    486.278    509.517    486.278
 49.270    562.000    568.420     -6.420    486.234    542.966    486.234    511.685    486.234
 49.370    595.000    586.677      8.323    486.191    559.212    486.191    513.649    486.191
 49.470    660.000    619.513     40.487    486.150    590.438    486.150    515.207    486.150
 49.570    684.000    681.636      2.364    486.111    651.546    486.111    516.163    486.111
 49.670    798.854    795.524      3.330    486.073    765.153    486.073    516.375    486.073
 49.770   1023.469    986.749     36.721    486.036    956.873    486.036    515.809    486.036
 49.870   1261.000   1270.859     -9.859    486.001   1242.183    486.001    514.545    486.001
 49.970   1644.000   1634.369      9.631    485.967   1607.444    485.967    512.757    485.967
 50.070   2025.000   2019.254      5.746    485.935   1994.444    485.935    510.649    485.935
 50.170   2329.662   2323.294      6.369    485.904   2300.781    485.904    508.409    485.904
 50.270   2344.484   2432.842    -88.358    485.875   2412.632    485.875    506.185    485.875
 50.370   2339.000   2297.632     41.368    485.847   2279.586    485.847    504.072    485.847
 50.470   2009.000   1978.175     30.825    485.820   1962.074    485.820    502.127    485.820
 50.570   1637.408   1591.401     46.007    485.795   1577.008    485.795    500.375    485.795
 50.670   1180.000   1237.007    -57.007    485.771   1224.103    485.771    498.822    485.771
 50.770    955.000    968.639    -13.639    485.749    957.032    485.749    497.461    485.749
 50.870    766.000    795.676    -29.676    485.728    785.198    485.728    496.278    485.728
 50.970    660.000    699.308    -39.308    485.708    689.813    485.708    495.257    485.708
 51.070    700.000    651.170     48.830    485.690    642.526    485.690    494.379    485.690
 51.170    608.472    626.195    -17.724    485.673    618.282    485.673    493.627    485.673
 51.270    613.562    608.514      5.047    485.657    601.224    485.657    492.984    485.657
 51.370    568.000    591.865    -23.865    485.643    585.104    485.643    492.435    485.643
 51.470    556.900    575.812    -18.912    485.630    569.501    485.630    491.965    485.630
 51.570    600.499    561.626     38.873    485.618    555.699    485.618    491.563    485.618
 51.670    580.066    550.309     29.757    485.608    544.710    485.608    491.220    485.608
 51.770    528.000    542.163    -14.163    485.599    536.846    485.599    490.926    485.599
 51.870    560.039    536.887     23.152    485.591    531.811    485.591    490.674    485.591
 51.970    576.397    533.898     42.500    485.585    529.030    485.585    490.459    485.585
 52.070    561.000    532.617     28.383    485.580    527.927    485.580    490.275    485.580
 52.170    490.339    532.638    -42.298    485.576    528.100    485.576    490.118    485.576
 52.270    526.000    533.786     -7.786    485.574    529.378    485.574    489.985    485.574
 52.370    578.000    536.162     41.838    485.573    531.864    485.573    489.874    485.573
 52.470    515.403    540.244    -24.842    485.573    536.039    485.573    489.782    485.573
 52.570    581.000    547.133     33.867    485.574    543.003    485.574    489.707    485.574
 52.670    553.288    558.935     -5.648    485.577    554.867    485.577    489.647    485.577
 52.770    559.840    579.181    -19.341    485.580    575.160    485.580    489.603    485.580
 52.870    654.000    612.927     41.073    485.585    608.941    485.585    489.571    485.585
 52.970    669.000    666.060      2.940    485.592    662.099    485.592    489.553    485.592
 53.070    802.000    743.394     58.606    485.599    739.449    485.599    489.546    485.599
 53.170    860.000    845.667     14.333    485.608    841.729    485.608    489.551    485.608
 53.270    972.000    966.147      5.853    485.618    962.212    485.618    489.567    485.618
 53.370   1148.692   1087.751     60.941    485.629   1083.813    485.629    489.593    485.629
 53.470   1192.000   1182.315      9.685    485.641   1178.367    485.641    489.630    485.641
 53.570   1267.036   1218.061     48.975    485.655   1214.094    485.655    489.676    485.655
 53.670   1207.571   1180.178     27.393    485.669   1176.175    485.669    489.733    485.669
 53.770    980.000   1084.522   -104.522    485.685   1080.466    485.685    489.800    485.685
 53.870    944.042    963.148    -19.105    485.702    959.023    485.702    489.878    485.702
 53.970    830.000    843.889    -13.889    485.720    839.684    485.720    489.965    485.720
 54.070    728.000    743.365    -15.365    485.739    739.071    485.739    490.063    485.739
 54.170    634.000    667.922    -33.922    485.760    663.530    485.760    490.172    485.760
 54.270    598.408    616.579    -18.171    485.781    612.083    485.781    490.292    485.781
 54.370    590.000    584.418      5.582    485.804    579.808    485.804    490.423    485.804
 54.470    604.539    565.552     38.987    485.827    560.820    485.827    490.566    485.827
 54.570    564.991    554.982     10.009    485.852    550.117    485.852    490.722    485.852
 54.670    550.000    549.244      0.756    485.878    544.235    485.878    490.892    485.878
 54.770    568.000    546.279     21.721    485.905    541.113    485.905    491.075    485.905
 54.870    565.000    545.001     19.999    485.933    539.665    485.933    491.273    485.933
 54.970    569.000    544.894     24.106    485.962    539.371    485.962    491.488    485.962
 55.070    571.000    545.735     25.265    485.992    540.011    485.992    491.719    485.992
 55.170    591.000    547.453     43.547    486.023    541.511    486.023    491.969    486.023
 55.270    524.954    550.065    -25.110    486.055    543.884    486.055    492.240    486.055
 55.370    515.005    553.655    -38.649    486.088    547.215    486.088    492.531    486.088
 55.470    536.000    558.404    -22.404    486.122    551.683    486.122    492.847    486.122
 55.570    531.000    564.664    -33.664    486.157    557.637    486.157    493.188    486.157
 55.670    575.854    573.138      2.716    486.193    565.776    486.193    493.559    486.193
 55.770    607.405    585.255     22.150    486.230    577.529    486.230    493.960    486.230
 55.870    638.000    603.820     34.180    486.268    595.693    486.268    494.397    486.268
 55.970    610.186    633.962    -23.776    486.307    625.396    486.307    494.872    486.307
 56.070    643.000    684.167    -41.167    486.347    675.115    486.347    495.392    486.347
 56.170    800.300    766.729     33.571    486.388    757.141    486.388    495.961    486.388
 56.270    833.000    896.622    -63.622    486.430    886.442    486.430    496.587    486.430
 56.370    976.000   1087.780   -111.780    486.473   1076.946    486.473    497.277    486.473
 56.470   1280.000   1346.664    -66.664    486.517   1335.112    486.517    498.042    486.517
 56.570   1677.535   1664.422     13.113    486.561   1652.081    486.561    498.894    486.561
 56.670   2060.000   2009.977     50.023    486.607   1996.771    486.607    499.846    486.607
 56.770   2221.000   2326.931   -105.931    486.653   2312.767    486.653    500.917    486.653
 56.870   2461.000   2540.469    -79.469    486.700   2525.230    486.700    502.127    486.700
 56.970   2494.000   2584.858    -90.858    486.748   2568.375    486.748    503.500    486.748
 57.070   2434.000   2444.651    -10.651    486.797   2426.698    486.797    505.067    486.797
 57.170   2153.430   2167.460    -14.030    486.847   2147.766    486.847    506.859    486.847
 57.270   1869.000   1829.888     39.112    486.898   1808.154    486.898    508.916    486.898
 57.370   1449.584   1498.925    -49.340    486.949   1474.826    486.949    511.279    486.949
 57.470   1198.000   1216.975    -18.975    487.001   1190.155    487.001    513.995    487.001
 57.570    977.000   1002.125    -25.125    487.055    972.185    487.055    517.115    487.055
 57.670    886.000    853.938     32.062    487.108    820.436    487.108    520.691    487.108
 57.770    782.410    761.321     21.089    487.163    723.762    487.163    524.774    487.163
 57.870    718.000    710.021      7.979    487.218    667.858    487.218    529.414    487.218
 57.970    705.291    687.832     17.459    487.275    640.475    487.275    534.652    487.275
 58.070    718.000    686.907     31.093    487.332    633.736    487.332    540.513    487.332
 58.170    676.972    703.730    -26.759    487.389    644.122    487.389    546.999    487.389
 58.270    721.000    737.748    -16.748    487.448    671.120    487.448    554.068    487.448
 58.370    787.000    789.457     -2.457    487.507    715.327    487.507    561.619    487.507
 58.470    906.870    858.506     48.364    487.567    776.587    487.567    569.459    487.567
 58.570    903.000    942.090    -39.090    487.627    852.399    487.627    577.286    487.627
 58.670   1073.780   1033.918     39.862    487.688    936.905    487.688    584.669    487.688
 58.770   1094.000   1124.730    -30.730    487.750   1021.385    487.750    591.072    487.750
 58.870   1150.064   1205.163    -55.100    487.813   1097.058    487.813    595.912    487.813
 58.970   1307.844   1267.963     39.881    487.876   1157.182    487.876    598.672    487.876
 59.070   1396.000   1306.472     89.528    487.940   1195.420    487.940    599.029    487.940
 59.170   1346.000   1314.406     31.594    488.005   1205.516    488.005    596.946    488.005
 59.270   1245.184   1291.446    -46.263    488.070   1186.884    488.070    592.687    488.070
 59.370   1312.000   1247.479     64.521    488.136   1148.922    488.136    586.735    488.136
 59.470   1285.000   1197.896     87.104    488.202   1106.445    488.202    579.669    488.202
 59.570   1290.000   1157.013    132.987    488.269   1073.218    488.269    572.045    488.269
 59.670   1140.022   1136.695      3.327    488.336   1060.648    488.336    564.322    488.336
 59.770   1157.000   1146.945     10.055    488.405   1078.410    488.405    556.832    488.405
 59.870   1129.175   1193.506    -64.331    488.473   1132.035    488.473    549.791    488.473
 59.970   1295.000   1273.430     21.570    488.543   1218.458    488.543    543.318    488.543
 60.070   1427.000   1372.372     54.628    488.612   1323.288    488.612    537.468    488.612
 60.170   1464.000   1465.157     -1.157    488.683   1421.351    488.683    532.248    488.683
 60.270   1564.000   1520.699     43.301    488.753   1481.590    488.753    527.637    488.753
 60.370   1596.000   1513.456     82.544    488.825   1478.495    488.825    523.597    488.825
 60.470   1440.948   1437.414      3.535    488.897   1406.089    488.897    520.081    488.897
 60.570   1324.000   1309.334     14.666    488.969   1281.171    488.969    517.037    488.969
 60.670   1219.000   1157.252     61.748    489.042   1131.822    489.042    514.414    489.042
 60.770    995.452   1007.272    -11.819    489.115    984.193    489.115    512.162    489.115
 60.870    876.000    877.436     -1.436    489.189    856.376    489.189    510.232    489.189
 60.970    733.550    776.811    -43.261    489.263    757.482    489.263    508.583    489.263
 61.070    708.603    707.165      1.438    489.338    689.321    489.338    507.173    489.338
 61.170    673.000    665.973      7.027    489.413    649.404    489.413    505.969    489.413
 61.270    690.000    649.622     40.378    489.488    634.153    489.488    504.939    489.488
 61.370    619.581    655.831    -36.251    489.564    641.312    489.564    504.055    489.564
 61.470    706.000    684.651     21.349    489.640    670.957    489.640    503.291    489.640
 61.570    700.083    737.928    -37.846    489.717    724.958    489.717    502.625    489.717
 61.670    821.000    817.486      3.514    489.794    805.159    489.794    502.036    489.794
 61.770    965.091    922.552     42.539    489.871    910.810    489.871    501.506    489.871
 61.870   1036.000   1047.198    -11.198    489.949   1036.002    489.949    501.018    489.949
 61.970   1131.000   1178.539    -47.539    490.027   1167.868    490.027    500.561    490.027
 62.070   1319.336   1296.420     22.916    490.105   1286.264    490.105    500.126    490.105
 62.170   1267.000   1376.032   -109.032    490.184   1366.391    490.184    499.710    490.184
 62.270   1336.000   1395.901    -59.901    490.263   1386.769    490.263    499.311    490.263
 62.370   1316.000   1349.494    -33.494    490.342   1340.854    490.342    498.932    490.342
 62.470   1250.745   1249.808      0.937    490.422   1241.634    490.422    498.575    490.422
 62.570   1059.481   1120.987    -61.506    490.502   1113.246    490.502    498.241    490.502
 62.670    977.000    986.783     -9.783    490.582    979.441    490.582    497.933    490.582
 62.770    852.000    864.603    -12.603    490.662    857.627    490.662    497.651    490.662
 62.870    780.000    764.249     15.751    490.743    757.609    490.743    497.395    490.743
 62.970    645.000    688.758    -43.758    490.823    682.426    490.823    497.164    490.823
 63.070    682.631    636.286     46.344    490.904    630.239    490.904    496.957    490.904
 63.170    627.000    602.393     24.607    490.986    596.607    490.986    496.773    490.986
 63.270    619.961    582.069     37.892    491.067    576.525    491.067    496.610    491.067
 63.370    527.578    571.081    -43.503    491.149    565.760    491.149    496.466    491.149
 63.470    554.589    566.588    -11.999    491.230    561.472    491.230    496.341    491.230
 63.570    561.092    567.245     -6.152    491.312    562.317    491.312    496.232    491.312
 63.670    568.000    573.039     -5.039    491.394    568.283    491.394    496.138    491.394
 63.770    600.000    585.023     14.977    491.476    580.424    491.476    496.058    491.476
 63.870    574.437    604.963    -30.525    491.559    600.505    491.559    495.991    491.559
 63.970    624.000    634.839    -10.839    491.641    630.508    491.641    495.936    491.641
 64.070    695.000    676.175     18.825    491.724    671.958    491.724    495.891    491.724
 64.170    764.000    729.202     34.798    491.806    725.088    491.806    495.855    491.806
 64.270    767.000    792.011    -25.011    491.889    787.990    491.889    495.829    491.889
 64.370    842.000    859.839    -17.839    491.972    855.905    491.972    495.811    491.972
 64.470    902.209    924.785    -22.576    492.054    920.937    492.054    495.801    492.054
 64.570    955.000    976.641    -21.641    492.137    972.879    492.137    495.797    492.137
 64.670    998.916   1005.708     -6.792    492.220   1002.035    492.220    495.800    492.220
 64.770   1054.834   1006.856     47.978    492.303   1003.274    492.303    495.809    492.303
 64.870   1004.000    981.606     22.394    492.386    978.114    492.386    495.823    492.386
 64.970    908.000    936.724    -28.724    492.469    933.319    492.469    495.843    492.469
 65.070    906.000    881.289     24.711    492.552    877.964    492.552    495.868    492.552
 65.170    859.511    823.842     35.669    492.635    820.590    492.635    495.897    492.635
 65.270    716.000    770.374    -54.374    492.718    767.185    492.718    495.931    492.718
 65.370    688.000    723.766    -35.766    492.800    720.630    492.800    495.969    492.800
 65.470    672.000    684.539    -12.539    492.883    681.448    492.883    496.011    492.883
 65.570    681.000    652.171     28.829    492.966    649.115    492.966    496.056    492.966
 65.670    656.802    625.992     30.810    493.049    622.965    493.049    496.106    493.049
 65.770    606.050    605.367      0.683    493.131    602.363    493.131    496.159    493.131
 65.870    644.000    589.618     54.382    493.214    586.634    493.214    496.215    493.214
 65.970    600.836    578.042     22.794    493.296    575.076    493.296    496.275    493.296
 66.070    555.092    569.979    -14.887    493.378    567.027    493.378    496.338    493.378
 66.170    599.557    564.846     34.712    493.460    561.907    493.460    496.404    493.460
 66.270    565.000    562.155      2.845    493.542    559.228    493.542    496.473    493.542
 66.370    582.691    561.524     21.167    493.624    558.607    493.624    496.545    493.624
 66.470    578.952    562.709     16.243    493.706    559.798    493.706    496.621    493.706
 66.570    522.000    565.669    -43.669    493.787    562.762    493.787    496.699    493.787
 66.670    553.000    570.670    -17.670    493.868    567.764    493.868    496.780    493.868
 66.770    548.000    578.457    -30.457    493.949    575.548    493.949    496.865    493.949
 66.870    612.000    590.503     21.497    494.030    587.589    494.030    496.952    494.030
 66.970    567.000    609.362    -42.362    494.111    606.438    494.111    497.043    494.111
 67.070    612.000    639.026    -27.026    494.191    636.089    494.191    497.137    494.191
 67.170    716.287    685.165     31.122    494.271    682.213    494.271    497.234    494.271
 67.270    740.000    754.974    -14.974    494.351    752.004    494.351    497.334    494.351
 67.370    847.000    856.348     -9.348    494.431    853.359    494.431    497.438    494.431
 67.470    998.000    996.217      1.783    494.510    993.209    494.510    497.545    494.510
 67.570   1161.000   1178.102    -17.102    494.589   1175.078    494.589    497.656    494.589
 67.670   1408.000   1399.336      8.664    494.668   1396.300    494.668    497.771    494.668
 67.770   1624.000   1648.592    -24.592    494.747   1645.551    494.747    497.890    494.747
 67.870   1911.000   1904.295      6.705    494.825   1901.258    494.825    498.013    494.825
 67.970   2160.512   2134.528     25.985    494.903   2131.498    494.903    498.141    494.903
 68.070   2382.000   2300.270     81.730    494.980   2297.251    494.980    498.273    494.980
 68.170   2426.000   2365.675     60.325    495.057   2362.658    495.057    498.410    495.057
 68.270   2400.000   2314.522     85.478    495.134   2311.486    495.134    498.553    495.134
 68.370   2165.000   2159.856      5.144    495.210   2156.767    495.210    498.701    495.210
 68.470   1939.000   1935.986      3.014    495.287   1932.807    495.287    498.856    495.287
 68.570   1718.000   1682.121     35.879    495.362   1678.821    495.362    499.017    495.362
 68.670   1380.455   1431.265    -50.810    495.437   1427.820    495.437    499.185    495.437
 68.770   1251.000   1206.292     44.708    495.512   1202.688    495.512    499.361    495.512
 68.870   1059.185   1019.734     39.451    495.587   1015.965    495.587    499.545    495.587
 68.970    865.000    875.213    -10.213    495.661    871.275    495.661    499.738    495.661
 69.070    802.000    769.829     32.171    495.734    765.721    495.734    499.942    495.734
 69.170    726.000    696.941     29.059    495.807    692.663    495.807    500.156    495.807
 69.270    676.000    648.675     27.325    495.880    644.222    495.880    500.382    495.880
 69.370    650.757    617.689     33.068    495.952    613.054    495.952    500.621    495.952
 69.470    571.000    598.094    -27.094    496.024    593.267    496.024    500.874    496.024
 69.570    554.000    585.665    -31.665    496.095    580.633    496.095    501.144    496.095
 69.670    582.000    577.637      4.363    496.165    572.385    496.165    501.432    496.165
 69.770    575.000    572.336      2.664    496.236    566.843    496.236    501.740    496.236
 69.870    566.000    568.807     -2.807    496.305    563.052    496.305    502.070    496.305
 69.970    551.000    566.537    -15.537    496.374    560.493    496.374    502.426    496.374
 70.070    571.466    565.266      6.200    496.443    558.903    496.443    502.812    496.443
 70.170    604.118    564.884     39.234    496.511    558.167    496.511    503.232    496.511
 70.270    569.000    565.381      3.619    496.578    558.272    496.578    503.692    496.578
 70.370    598.000    566.852     31.148    496.645    559.301    496.645    504.199    496.645
 70.470    545.113    569.524    -24.411    496.711    561.477    496.711    504.761    496.711
 70.570    557.000    573.845    -16.845    496.777    565.234    496.777    505.389    496.777
 70.670    546.000    580.599    -34.599    496.842    571.344    496.842    506.096    496.842
 70.770    622.000    591.083     30.917    496.906    581.087    496.906    506.898    496.906
 70.870    598.125    607.292     -9.167    496.970    596.438    496.970    507.816    496.970
 70.970    573.000    632.081    -59.081    497.033    620.227    497.033    508.872    497.033
 71.070    616.000    669.186    -53.186    497.095    656.163    497.095    510.095    497.095
 71.170    710.000    723.008    -13.008    497.157    708.613    497.157    511.518    497.157
 71.270    842.259    798.027     44.232    497.218    782.020    497.218    513.176    497.218
 71.370    842.000    897.821    -55.821    497.279    879.922    497.279    515.110    497.279
 71.470   1003.000   1023.781    -20.781    497.338   1003.667    497.338    517.364    497.338
 71.570   1179.000   1173.723      5.277    497.398   1151.031    497.398    519.983    497.398
 71.670   1357.000   1340.713     16.287    497.456   1315.036    497.456    523.010    497.456
 71.770   1511.617   1512.311     -0.693    497.514   1483.207    497.514    526.485    497.514
 71.870   1630.000   1670.556    -40.556    497.570   1637.554    497.570    530.441    497.570
 71.970   1822.000   1793.515     28.485    497.627   1756.127    497.627    534.897    497.627
 72.070   1900.749   1859.932     40.817    497.682   1817.670    497.682    539.854    497.682
 72.170   1865.000   1856.970      8.030    497.737   1809.371    497.737    545.283    497.737
 72.270   1861.000   1786.385     74.615    497.791   1733.045    497.791    551.114    497.791
 72.370   1702.000   1663.494     38.506    497.844   1604.130    497.844    557.221    497.844
 72.470   1518.000   1510.027      7.973    497.896   1444.555    497.896    563.401    497.896
 72.570   1400.357   1346.947     53.409    497.948   1275.576    497.948    569.364    497.948
 72.670   1210.000   1190.645     19.355    497.998   1113.965    497.998    574.727    497.998
 72.770   1053.000   1051.856      1.144    498.048    970.904    498.048    579.048    498.048
 72.870    905.000    935.952    -30.952    498.097    852.202    498.097    581.889    498.097
 72.970    810.688    843.908    -33.220    498.146    759.165    498.146    582.925    498.146
 73.070    734.000    773.657    -39.657    498.193    689.851    498.193    582.029    498.193
 73.170    737.959    721.505     16.455    498.240    640.448    498.240    579.320    498.240
 73.270    667.000    683.321    -16.321    498.285    606.504    498.285    575.122    498.285
 73.370    665.140    655.333      9.807    498.330    583.811    498.330    569.869    498.330
 73.470    644.000    634.516      9.484    498.374    568.899    498.374    564.005    498.374
 73.570    626.000    618.683      7.317    498.417    559.201    498.417    557.914    498.417
 73.670    592.000    606.396    -14.396    498.460    552.980    498.460    551.890    498.460
 73.770    575.000    596.767    -21.767    498.501    549.147    498.501    546.136    498.501
 73.870    609.000    589.287     19.713    498.541    547.064    498.541    540.782    498.541
 73.970    560.000    583.654    -23.654    498.581    546.356    498.581    535.898    498.581
 74.070    542.071    579.647    -37.575    498.619    546.776    498.619    531.513    498.619
 74.170    620.373    577.038     43.334    498.657    548.094    498.657    527.630    498.657
 74.270    595.000    575.538     19.462    498.694    550.038    498.694    524.227    498.694
 74.370    561.000    574.761    -13.761    498.729    552.256    498.729    521.273    498.729
 74.470    657.000    574.225     82.775    498.764    554.305    498.764    518.729    498.764
 74.570    636.000    573.392     62.608    498.798    555.689    498.798    516.549    498.798
 74.670    602.000    571.771     30.229    498.831    555.961    498.831    514.691    498.831
 74.770    583.299    569.087     14.212    498.862    554.890    498.862    513.109    498.862
 74.870    611.000    565.393     45.607    498.893    552.569    498.893    511.764    498.893
 74.970    533.985    561.038    -27.053    498.923    549.384    498.923    510.619    498.923
 75.070    591.000    556.529     34.471    498.952    545.877    498.952    509.640    498.952
 75.170    575.251    552.407     22.844    498.980    542.615    498.980    508.801    498.980
 75.270    577.000    549.193     27.807    499.006    540.145    499.006    508.076    499.006
 75.370    604.000    547.387     56.613    499.032    538.988    499.032    507.447    499.032
 75.470    560.000    547.481     12.519    499.057    539.650    499.057    506.897    499.057
 75.570    583.000    549.962     33.038    499.080    542.632    499.080    506.413    499.080
 75.670    583.000    555.298     27.702    499.103    548.413    499.103    505.983    499.103
 75.770    559.000    563.893     -4.893    499.124    557.406    499.124    505.600    499.124
 75.870    602.000    575.998     26.002    499.145    569.868    499.145    505.256    499.145
 75.970    607.653    591.601     16.052    499.164    585.794    499.164    504.946    499.164
 76.070    621.000    610.304     10.696    499.182    604.789    499.182    504.664    499.182
 76.170    636.000    631.214      4.786    499.200    625.965    499.200    504.408    499.200
 76.270    667.540    652.879     14.661    499.216    647.874    499.216    504.174    499.216
 76.370    674.985    673.278      1.708    499.230    668.498    499.230    503.958    499.230
 76.470    699.000    689.941      9.059    499.244    685.371    499.244    503.760    499.244
 76.570    687.388    700.321    -12.933    499.257    695.946    499.257    503.578    499.257
 76.670    682.000    702.500    -20.500    499.268    698.310    499.268    503.408    499.268
 76.770    714.523    695.961     18.562    499.279    691.944    499.279    503.251    499.279
 76.870    655.000    681.837    -26.837    499.288    677.982    499.288    503.105    499.288
 76.970    664.000    662.394      1.606    499.296    658.690    499.296    502.969    499.296
 77.070    681.757    640.207     41.549    499.303    636.645    499.303    502.842    499.303
 77.170    638.377    617.567     20.810    499.309    614.136    499.309    502.722    499.309
 77.270    605.000    596.227      8.773    499.313    592.917    499.313    502.610    499.313
 77.370    596.000    577.346     18.654    499.317    574.149    499.317    502.504    499.317
 77.470    535.000    561.527    -26.527    499.319    558.435    499.319    502.404    499.319
 77.570    580.725    548.901     31.824    499.320    545.907    499.320    502.310    499.320
 77.670    513.460    539.253    -25.793    499.320    536.350    499.320    502.220    499.320
 77.770    509.000    532.157    -23.157    499.318    529.339    499.318    502.135    499.318
 77.870    508.000    527.101    -19.101    499.316    524.362    499.316    502.054    499.316
 77.970    536.000    523.581     12.419    499.312    520.915    499.312    501.977    499.312
 78.070    480.000    521.161    -41.161    499.307    518.565    499.307    501.902    499.307
 78.170    479.000    519.500    -40.500    499.301    516.969    499.301    501.831    499.301
 78.270    511.000    518.348     -7.348    499.293    515.877    499.293    501.763    499.293
 78.370    506.284    517.536    -11.252    499.284    515.122    499.284    501.697    499.284
 78.470    504.000    516.957    -12.957    499.274    514.597    499.274    501.634    499.274
 78.570    470.000    516.548    -46.548    499.263    514.238    499.263    501.573    499.263
 78.670    523.000    516.279      6.721    499.250    514.016    499.250    501.514    499.250
 78.770    546.000    516.139     29.861    499.237    513.918    499.237    501.457    499.237
 78.870    513.000    516.131     -3.131    499.221    513.950    499.221    501.402    499.221
 78.970    484.711    516.270    -31.559    499.205    514.126    499.205    501.349    499.205
 79.070    517.000    516.579      0.421    499.187    514.470    499.187    501.297    499.187
 79.170    545.000    517.088     27.912    499.168    515.009    499.168    501.247    499.168
 79.270    498.000    517.830    -19.830    499.148    515.779    499.148    501.198    499.148
 79.370    486.000    518.842    -32.842    499.126    516.817    499.126    501.151    499.126
 79.470    517.000    520.167     -3.167    499.104    518.164    499.104    501.105    499.104
 79.570    524.000    521.858      2.142    499.079    519.875    499.079    501.060    499.079
 79.670    496.605    523.985    -27.380    499.054    522.019    499.054    501.016    499.054
 79.770    543.039    526.640     16.399    499.027    524.690    499.027    500.973    499.027
 79.870    501.000    529.935    -28.935    498.999    527.998    498.999    500.932    498.999
 79.970    525.000    534.139     -9.139    498.969    532.214    498.969    500.890    498.969
 80.070    558.000    539.481     18.519    498.939    537.567    498.939    500.849    498.939
 80.170    522.087    546.299    -24.211    498.906    544.394    498.906    500.808    498.906
 80.270    554.000    555.000     -1.000    498.873    553.105    498.873    500.767    498.873
 80.370    541.000    566.002    -25.002    498.838    564.118    498.838    500.724    498.838
 80.470    576.000    579.636     -3.636    498.802    577.764    498.802    500.679    498.802
 80.570    565.000    596.037    -31.037    498.764    594.178    498.764    500.631    498.764
 80.670    593.000    615.046    -22.046    498.725    613.204    498.725    500.581    498.725
 80.770    605.000    636.152    -31.152    498.685    634.329    498.685    500.526    498.685
 80.870    617.720    658.466    -40.747    498.643    656.667    498.643    500.468    498.643
 80.970    650.702    680.785    -30.083    498.600    679.012    498.600    500.406    498.600
 81.070    645.000    701.735    -56.735    498.556    699.990    498.556    500.340    498.556
 81.170    692.000    719.980    -27.980    498.510    718.266    498.510    500.270    498.510
 81.270    777.334    734.384     42.950    498.462    732.701    498.462    500.198    498.462
 81.370    785.500    744.101     41.399    498.414    742.450    498.414    500.124    498.414
 81.470    745.000    748.630     -3.630    498.364    747.011    498.364    500.048    498.364
 81.570    785.205    747.844     37.360    498.312    746.255    498.312    499.971    498.312
 81.670    778.985    741.964     37.021    498.260    740.403    498.260    499.894    498.260
 81.770    771.469    731.500     39.969    498.205    729.965    498.205    499.816    498.205
 81.870    672.531    717.265    -44.734    498.150    715.752    498.150    499.738    498.150
 81.970    730.000    700.358     29.642    498.093    698.866    498.093    499.660    498.093
 82.070    694.000    682.012     11.988    498.034    680.537    498.034    499.582    498.034
 82.170    648.000    663.329    -15.329    497.974    661.868    497.974    499.503    497.974
 82.270    650.000    645.098      4.902    497.913    643.650    497.913    499.425    497.913
 82.370    613.025    627.779    -14.754    497.850    626.342    497.850    499.347    497.850
 82.470    590.464    611.617    -21.153    497.786    610.188    497.786    499.269    497.786
 82.570    576.083    596.788    -20.705    497.720    595.365    497.720    499.191    497.720
 82.670    606.729    583.484     23.245    497.653    582.066    497.653    499.112    497.653
 82.770    572.000    571.916      0.084    497.585    570.501    497.585    499.034    497.585
 82.870    530.000    562.274    -32.274    497.515    560.861    497.515    498.955    497.515
 82.970    537.000    554.701    -17.701    497.444    553.288    497.444    498.875    497.444
 83.070    534.715    549.278    -14.563    497.371    547.865    497.371    498.795    497.371
 83.170    536.000    546.021    -10.021    497.297    544.605    497.297    498.715    497.297
 83.270    509.000    544.860    -35.860    497.221    543.443    497.221    498.634    497.221
 83.370    552.213    545.637      6.577    497.144    544.215    497.144    498.552    497.144
 83.470    541.565    548.081     -6.516    497.065    546.655    497.065    498.470    497.065
 83.570    509.690    551.812    -42.123    496.985    550.383    496.985    498.386    496.985
 83.670    567.000    556.343     10.657    496.904    554.909    496.904    498.303    496.904
 83.770    528.720    561.089    -32.369    496.821    559.651    496.821    498.218    496.821
 83.870    563.067    565.403     -2.337    496.737    563.962    496.737    498.132    496.737
 83.970    566.000    568.630     -2.630    496.651    567.187    496.651    498.046    496.651
 84.070    538.000    570.203    -32.203    496.564    568.760    496.564    497.958    496.564
 84.170    593.251    569.771     23.480    496.475    568.328    496.475    497.870    496.475
 84.270    599.931    567.290     32.642    496.385    565.849    496.385    497.781    496.385
 84.370    593.350    563.023     30.327    496.293    561.585    496.293    497.691    496.293
 84.470    588.798    557.441     31.356    496.200    556.006    496.200    497.600    496.200
 84.570    520.936    551.090    -30.154    496.105    549.658    496.105    497.508    496.105
 84.670    569.585    544.489     25.095    496.009    543.060    496.009    497.415    496.009
 84.770    585.000    538.077     46.923    495.912    536.649    495.912    497.321    495.912
 84.870    498.936    532.184    -33.248    495.813    530.755    495.813    497.226    495.813
 84.970    502.500    527.025    -24.525    495.712    525.595    495.712    497.130    495.712
 85.070    503.000    522.709    -19.709    495.611    521.277    495.611    497.033    495.611
 85.170    543.731    519.257     24.473    495.507    517.822    495.507    496.935    495.507
 85.270    482.682    516.622    -33.940    495.402    515.182    495.402    496.836    495.402
 85.370    513.695    514.715     -1.020    495.296    513.270    495.296    496.736    495.296
 85.470    525.000    513.438     11.562    495.188    511.986    495.188    496.635    495.188
 85.570    530.392    512.695     17.697    495.079    511.235    495.079    496.534    495.079
 85.670    513.942    512.411      1.531    494.969    510.943    494.969    496.431    494.969
 85.770    508.803    512.543     -3.740    494.856    511.066    494.856    496.328    494.856
 85.870    564.000    513.087     50.913    494.743    511.600    494.743    496.223    494.743
 85.970    517.000    514.078      2.922    494.628    512.579    494.628    496.118    494.628
 86.070    498.000    515.589    -17.589    494.511    514.078    494.511    496.011    494.511
 86.170    545.974    517.730     28.243    494.393    516.206    494.393    495.904    494.393
 86.270    531.000    520.639     10.361    494.274    519.099    494.274    495.796    494.274
 86.370    546.197    524.466     21.732    494.153    522.909    494.153    495.687    494.153
 86.470    544.000    529.358     14.642    494.031    527.783    494.031    495.578    494.031
 86.570    519.000    535.436    -16.436    493.907    533.841    493.907    495.467    493.907
 86.670    542.000    542.762     -0.762    493.782    541.145    493.782    495.356    493.782
 86.770    578.000    551.310     26.690    493.655    549.668    493.655    495.244    493.655
 86.870    591.955    560.931     31.024    493.527    559.264    493.527    495.131    493.527
 86.970    570.000    571.334     -1.334    493.398    569.640    493.398    495.018    493.398
 87.070    616.000    582.066     33.934    493.267    580.345    493.267    494.904    493.267
 87.170    598.000    592.515      5.485    493.134    590.767    493.134    494.789    493.134
 87.270    634.954    601.931     33.023    493.000    600.158    493.000    494.674    493.000
 87.370    646.000    609.495     36.505    492.865    607.698    492.865    494.558    492.865
 87.470    635.000    614.447     20.553    492.728    612.629    492.728    494.442    492.728
 87.570    599.000    616.265    -17.265    492.590    614.428    492.590    494.326    492.590
 87.670    622.000    614.820      7.180    492.451    612.967    492.451    494.208    492.451
 87.770    568.606    610.418    -41.812    492.310    608.551    492.310    494.091    492.310
 87.870    673.000    603.702     69.298    492.167    601.822    492.167    493.973    492.167
 87.970    620.526    595.496     25.030    492.023    593.602    492.023    493.855    492.023
 88.070    545.278    586.672    -41.394    491.878    584.763    491.878    493.737    491.878
 88.170    569.577    578.059     -8.482    491.731    576.133    491.731    493.619    491.731
 88.270    599.000    570.381     28.619    491.583    568.436    491.583    493.501    491.583
 88.370    570.000    564.216      5.784    491.434    562.251    491.434    493.383    491.434
 88.470    630.000    559.970     70.030    491.283    557.981    491.283    493.265    491.283
 88.570    577.608    557.860     19.747    491.131    555.845    491.131    493.147    491.131
 88.670    588.000    557.919     30.081    490.977    555.876    490.977    493.030    490.977
 88.770    537.142    560.000    -22.857    490.822    557.926    490.822    492.914    490.822
 88.870    577.000    563.793     13.207    490.665    561.686    490.665    492.798    490.665
 88.970    593.000    568.847     24.153    490.508    566.705    490.508    492.683    490.508
 89.070    565.545    574.594     -9.049    490.348    572.415    490.348    492.569    490.348
 89.170    598.000    580.375     17.625    490.188    578.155    490.188    492.456    490.188
 89.270    539.000    585.483    -46.483    490.026    583.219    490.026    492.345    490.026
 89.370    600.000    589.228     10.772    489.863    586.915    489.863    492.236    489.863
 89.470    604.000    591.037     12.963    489.698    588.670    489.698    492.129    489.698
 89.570    585.000    590.562     -5.562    489.532    588.136    489.532    492.024    489.532
 89.670    554.444    587.765    -33.321    489.365    585.273    489.365    491.922    489.365
 89.770    544.000    582.901    -38.901    489.196    580.337    489.196    491.824    489.196
 89.870    556.000    576.421    -20.421    489.026    573.778    489.026    491.730    489.026
 89.970    552.000    568.928    -16.928    488.855    566.198    488.855    491.640    488.855
 90.070    541.000    560.958    -19.958    488.682    558.133    488.682    491.556    488.682
 90.170    510.525    552.997    -42.472    488.508    550.070    488.508    491.477    488.508
 90.270    534.369    545.442    -11.073    488.333    542.404    488.333    491.406    488.333
 90.370    498.000    538.585    -40.585    488.156    535.427    488.156    491.343    488.156
 90.470    495.827    532.611    -36.783    487.978    529.323    487.978    491.290    487.978
 90.570    538.077    527.612     10.465    487.799    524.183    487.799    491.247    487.799
 90.670    497.607    523.600    -25.993    487.619    520.017    487.619    491.216    487.619
 90.770    516.000    520.529     -4.529    487.437    516.778    487.437    491.199    487.437
 90.870    560.000    518.315     41.685    487.254    514.379    487.254    491.197    487.254
 90.970    556.675    516.859     39.816    487.069    512.720    487.069    491.213    487.069
 91.070    519.154    516.066      3.088    486.884    511.705    486.884    491.248    486.884
 91.170    525.000    515.861      9.139    486.697    511.256    486.697    491.304    486.697
 91.270    513.285    516.197     -2.912    486.509    511.323    486.509    491.383    486.509
 91.370    483.000    517.064    -34.064    486.320    511.895    486.320    491.488    486.320
 91.470    514.000    518.494     -4.494    486.129    513.001    486.129    491.621    486.129
 91.570    512.690    520.558     -7.869    485.938    514.710    485.938    491.782    485.938
 91.670    539.000    523.369     15.631    485.745    517.134    485.745    491.976    485.745
 91.770    539.140    527.075     12.065    485.550    520.417    485.550    492.202    485.550
 91.870    495.000    531.851    -36.851    485.355    524.735    485.355    492.462    485.355
 91.970    519.726    537.890    -18.164    485.159    530.278    485.159    492.758    485.159
 92.070    541.000    545.385     -4.385    484.961    537.240    484.961    493.090    484.961
 92.170    586.000    554.511     31.489    484.762    545.796    484.762    493.457    484.762
 92.270    562.000    565.406     -3.406    484.562    556.084    484.562    493.858    484.562
 92.370    559.558    578.143    -18.585    484.361    568.181    484.361    494.292    484.361
 92.470    627.256    592.718     34.539    484.158    582.086    484.158    494.754    484.158
 92.570    591.000    609.019    -18.019    483.955    597.693    483.955    495.238    483.955
 92.670    612.000    626.820    -14.820    483.750    614.784    483.750    495.737    483.750
 92.770    642.322    645.765     -3.443    483.545    633.015    483.545    496.240    483.545
 92.870    665.953    665.371      0.582    483.338    651.915    483.338    496.734    483.338
 92.970    680.000    685.043     -5.043    483.130    670.907    483.130    497.202    483.130
 93.070    744.000    704.134     39.866    482.921    689.364    482.921    497.625    482.921
 93.170    734.000    722.042     11.958    482.711    706.703    482.711    497.982    482.711
 93.270    687.755    738.323    -50.568    482.500    722.504    482.500    498.251    482.500
 93.370    778.000    752.777     25.223    482.288    736.586    482.288    498.412    482.288
 93.470    719.000    765.462    -46.462    482.074    749.024    482.074    498.447    482.074
 93.570    778.922    776.588      2.334    481.860    760.039    481.860    498.347    481.860
 93.670    834.000    786.418     47.582    481.645    769.897    481.645    498.105    481.645
 93.770    802.745    795.195      7.551    481.428    778.838    481.428    497.727    481.428
 93.870    794.000    803.145     -9.145    481.211    787.078    481.211    497.223    481.211
 93.970    787.228    810.515    -23.287    480.993    794.846    480.993    496.611    480.993
 94.070    841.000    817.649     23.351    480.774    802.465    480.774    495.909    480.774
 94.170    835.000    825.004      9.996    480.553    810.372    480.553    495.141    480.553
 94.270    816.000    832.851    -16.851    480.332    818.814    480.332    494.327    480.332
 94.370    838.000    841.257     -3.257    480.110    827.841    480.110    493.488    480.110
 94.470    907.000    849.943     57.057    479.887    837.155    479.887    492.639    479.887
 94.570    873.000    858.242     14.758    479.663    846.079    479.663    491.795    479.663
 94.670    880.000    865.151     14.849    479.438    853.596    479.438    490.967    479.438
 94.770    891.000    869.441     21.559    479.212    858.471    479.212    490.162    479.212
 94.870    895.128    869.864     25.265    478.986    859.448    478.986    489.388    478.986
 94.970    920.000    865.409     54.591    478.758    855.515    478.758    488.647    478.758
 95.070    838.545    855.571    -17.026    478.530    846.159    478.530    487.943    478.530
 95.170    909.000    840.499     68.501    478.300    831.531    478.300    487.277    478.300
 95.270    902.000    821.029     80.971    478.070    812.464    478.070    486.650    478.070
 95.370    836.000    798.461     37.539    477.839    790.258    477.839    486.061    477.839
 95.470    819.000    774.385     44.615    477.608    766.504    477.608    485.509    477.608
 95.570    805.000    750.492     54.508    477.375    742.894    477.375    484.995    477.375
 95.670    772.550    728.454     44.097    477.142    721.100    477.142    484.515    477.142
 95.770    732.000    709.841     22.159    476.908    702.696    476.908    484.070    476.908
 95.870    681.347    696.089    -14.742    476.673    689.118    476.673    483.657    476.673
 95.970    720.715    688.463     32.252    476.438    681.634    476.438    483.274    476.438
 96.070    715.000    688.047     26.953    476.201    681.331    476.201    482.920    476.201
 96.170    665.697    695.732    -30.035    475.964    689.098    475.964    482.593    475.964
 96.270    690.000    712.196    -22.196    475.727    705.619    475.727    482.291    475.727
 96.370    723.000    737.890    -14.890    475.489    731.344    475.489    482.014    475.489
 96.470    780.000    772.996      7.004    475.250    766.458    475.250    481.760    475.250
 96.570    752.000    817.371    -65.371    475.010    810.819    475.010    481.528    475.010
 96.670    860.000    870.484    -10.484    474.770    863.896    474.770    481.317    474.770
 96.770    927.000    931.343     -4.343    474.529    924.699    474.529    481.126    474.529
 96.870   1054.756    998.434     56.322    474.288    991.716    474.288    480.956    474.288
 96.970   1087.000   1069.686     17.314    474.046   1062.875    474.046    480.806    474.046
 97.070   1114.000   1142.450    -28.450    473.803   1135.529    473.803    480.676    473.803
 97.170   1234.922   1213.534     21.388    473.560   1206.484    473.560    480.568    473.560
 97.270   1235.000   1279.286    -44.286    473.316   1272.088    473.316    480.481    473.316
 97.370   1305.000   1335.802    -30.802    473.072   1328.436    473.072    480.418    473.072
 97.470   1399.000   1379.289     19.711    472.827   1371.733    472.827    480.379    472.827
 97.570   1430.929   1406.592     24.338    472.582   1398.820    472.582    480.368    472.582
 97.670   1430.000   1415.760     14.240    472.337   1407.744    472.337    480.386    472.337
 97.770   1353.000   1406.446    -53.446    472.091   1398.152    472.091    480.436    472.091
 97.870   1389.597   1379.933      9.664    471.844   1371.323    471.844    480.523    471.844
 97.970   1345.000   1338.798      6.202    471.597   1329.829    471.597    480.649    471.597
 98.070   1247.287   1286.423    -39.136    471.350   1277.045    471.350    480.819    471.350
 98.170   1278.833   1226.526     52.307    471.102   1216.686    471.102    481.039    471.102
 98.270   1169.269   1162.761      6.508    470.854   1152.400    470.854    481.313    470.854
 98.370   1113.000   1098.563     14.437    470.606   1087.615    470.606    481.647    470.606
 98.470   1074.003   1037.015     36.988    470.357   1025.412    470.357    482.049    470.357
 98.570    986.000    980.805      5.195    470.108    968.469    470.108    482.525    470.108
 98.670    927.000    932.203     -5.203    469.859    919.052    469.859    483.082    469.859
 98.770    938.063    893.072     44.990    469.609    879.016    469.609    483.727    469.609
 98.870    819.000    864.891    -45.891    469.360    849.834    469.360    484.468    469.360
 98.970    859.267    848.777     10.491    469.110    832.616    469.110    485.312    469.110
 99.070    826.000    845.528    -19.528    468.859    828.153    468.859    486.268    468.859
 99.170    876.000    855.653     20.347    468.609    836.948    468.609    487.340    468.609
 99.270    846.694    879.397    -32.703    468.359    859.240    468.359    488.537    468.359
 99.370    940.000    916.742     23.258    468.108    895.006    468.108    489.863    468.108
 99.470   1005.000    967.399     37.601    467.857    943.953    467.857    491.322    467.857
 99.570   1013.000   1030.759    -17.759    467.606   1005.469    467.606    492.917    467.606
 99.670   1071.000   1105.836    -34.836    467.355   1078.570    467.355    494.650    467.355
 99.770   1179.000   1191.214    -12.214    467.104   1161.839    467.104    496.518    467.104
 99.870   1237.000   1284.983    -47.983    466.853   1253.371    466.853    498.517    466.853
 99.970   1447.000   1384.690     62.310    466.602   1350.724    466.602    500.639    466.602
100.070   1562.000   1487.341     74.659    466.351   1450.914    466.351    502.870    466.351
100.170   1624.180   1589.462     34.718    466.099   1550.486    466.099    505.193    466.099
100.270   1625.000   1687.271    -62.271    465.848   1645.683    465.848    507.582    465.848
100.370   1762.679   1776.956    -14.278    465.597   1732.724    465.597    510.004    465.597
100.470   1798.000   1855.005    -57.005    465.346   1808.137    465.346    512.419    465.346
100.570   1989.000   1918.464     70.536    465.096   1869.019    465.096    514.774    465.096
100.670   2027.000   1965.047     61.953    464.845   1913.142    464.845    517.010    464.845
100.770   2027.000   1993.091     33.909    464.594   1938.909    464.594    519.058    464.594
100.870   2026.000   2001.500     24.500    464.344   1945.298    464.344    520.845    464.344
100.970   2015.000   1989.835     25.165    464.094   1931.944    464.094    522.297    464.094
101.070   1937.000   1958.572    -21.572    463.844   1899.391    463.844    523.344    463.844
101.170   1836.885   1909.391    -72.506    463.594   1849.376    463.594    523.930    463.594
101.270   1850.463   1845.258      5.205    463.345   1784.904    463.345    524.016    463.345
101.370   1780.000   1770.175      9.825    463.096   1709.992    463.096    523.585    463.096
101.470   1726.000   1688.665     37.335    462.847   1629.156    462.847    522.649    462.847
101.570   1633.105   1605.213     27.892    462.598   1546.846    462.598    521.240    462.598
101.670   1533.000   1523.805      9.195    462.350   1466.999    462.350    519.412    462.350
101.770   1434.305   1447.654    -13.349    462.103   1392.761    462.103    517.231    462.103
101.870   1334.085   1379.065    -44.980    461.855   1326.364    461.855    514.772    461.855
101.970   1371.340   1319.410     51.930    461.608   1269.108    461.608    512.108    461.608
102.070   1260.852   1269.195     -8.343    461.362   1221.428    461.362    509.309    461.362
102.170   1216.000   1228.041    -12.041    461.116   1182.886    461.116    506.438    461.116
102.270   1128.000   1194.849    -66.849    460.871   1152.327    460.871    503.548    460.871
102.370   1182.000   1167.918     14.082    460.626   1128.009    460.626    500.683    460.626
102.470   1155.000   1145.125      9.875    460.382   1107.771    460.382    497.878    460.382
102.570   1100.000   1124.156    -24.156    460.138   1089.274    460.138    495.159    460.138
102.670   1067.000   1102.790    -35.790    459.895   1070.275    459.895    492.546    459.895
102.770   1092.000   1079.191     12.809    459.652   1048.924    459.652    490.054    459.652
102.870   1030.000   1052.146    -22.146    459.411   1023.997    459.411    487.692    459.411
102.970   1073.787   1021.166     52.622    459.170    994.999    459.170    485.465    459.170
103.070   1059.000    986.429     72.571    458.929    962.108    458.929    483.376    458.929
103.170    940.000    948.615     -8.615    458.690    926.000    458.690    481.424    458.690
103.270    891.000    908.693    -17.693    458.451    887.649    458.451    479.608    458.451
103.370    872.000    867.750      4.250    458.213    848.145    458.213    477.922    458.213
103.470    827.596    826.862      0.734    457.976    808.571    457.976    476.363    457.976
103.570    791.000    787.016      3.984    457.740    769.919    457.740    474.924    457.740
103.670    746.000    749.058     -3.058    457.504    733.042    457.504    473.597    457.504
103.770    684.526    713.668    -29.142    457.270    698.629    457.270    472.377    457.270
103.870    723.943    681.344     42.599    457.036    667.184    457.036    471.256    457.036
103.970    694.232    652.399     41.833    456.804    639.028    456.804    470.225    456.804
104.070    671.000    626.969     44.031    456.572    614.306    456.572    469.278    456.572
104.170    623.000    605.039     17.961    456.342    593.009    456.342    468.408    456.342
104.270    552.251    586.465    -34.214    456.112    575.000    456.112    467.607    456.112
104.370    613.301    571.009     42.291    455.884    560.049    455.884    466.869    455.884
104.470    560.000    558.374      1.626    455.657    547.863    455.657    466.187    455.657
104.570    547.000    548.230     -1.230    455.431    538.120    455.431    465.557    455.431
104.670    537.339    540.248     -2.909    455.206    530.494    455.206    464.972    455.206
104.770    495.722    534.114    -38.392    454.982    524.677    454.982    464.429    454.982
104.870    556.000    529.549     26.451    454.760    520.395    454.760    463.922    454.760
104.970    570.000    526.318     43.682    454.539    517.414    454.539    463.449    454.539
105.070    508.456    524.232    -15.776    454.319    515.550    454.319    463.005    454.319
105.170    565.000    523.153     41.847    454.100    514.668    454.100    462.588    454.100
105.270    523.084    522.988      0.096    453.883    514.677    453.883    462.195    453.883
105.370    527.000    523.689      3.311    453.668    515.532    453.668    461.824    453.668
105.470    569.000    525.245     43.755    453.453    517.222    453.453    461.473    453.453
105.570    559.670    527.678     31.992    453.241    519.772    453.241    461.140    453.241
105.670    506.379    531.032    -24.654    453.029    523.229    453.029    460.825    453.029
105.770    529.000    535.372     -6.372    452.820    527.657    452.820    460.525    452.820
105.870    537.932    540.763     -2.831    452.611    533.123    452.611    460.240    452.611
105.970    581.000    547.266     33.734    452.405    539.688    452.405    459.969    452.405
106.070    576.815    554.921     21.894    452.200    547.393    452.200    459.710    452.200
106.170    560.000    563.731     -3.731    451.996    556.243    451.996    459.465    451.996
106.270    570.000    573.661     -3.661    451.795    566.201    451.795    459.231    451.795
106.370    557.000    584.618    -27.618    451.595    577.178    451.595    459.009    451.595
106.470    623.000    596.456     26.544    451.397    589.026    451.397    458.798    451.397
106.570    587.021    608.970    -21.949    451.200    601.541    451.200    458.598    451.200
106.670    626.000    621.895      4.105    451.006    614.459    451.006    458.408    451.006
106.770    625.000    634.916     -9.916    450.813    627.463    450.813    458.229    450.813
106.870    639.000    647.669     -8.669    450.623    640.193    450.623    458.061    450.623
106.970    657.000    659.759     -2.759    450.434    652.251    450.434    457.902    450.434
107.070    642.000    670.790    -28.790    450.247    663.244    450.247    457.754    450.247
107.170    695.625    680.382     15.243    450.062    672.790    450.062    457.616    450.062
107.270    667.000    688.227    -21.227    449.879    680.582    449.879    457.489    449.879
107.370    703.000    694.132      8.868    449.699    686.427    449.699    457.372    449.699
107.470    662.000    698.064    -36.064    449.520    690.290    449.520    457.265    449.520
107.570    716.916    700.172     16.744    449.344    692.322    449.344    457.168    449.344
107.670    709.000    700.738      8.262    449.170    692.804    449.170    457.083    449.170
107.770    713.000    700.151     12.849    448.998    692.125    448.998    457.008    448.998
107.870    685.695    698.845    -13.150    448.828    690.717    448.828    456.945    448.828
107.970    688.000    697.240     -9.240    448.660    689.001    448.660    456.893    448.660
108.070    656.788    695.697    -38.909    448.495    687.339    448.495    456.852    448.495
108.170    720.489    694.488     26.001    448.332    686.000    448.332    456.824    448.332
108.270    686.000    693.778     -7.778    448.172    685.150    448.172    456.809    448.172
108.370    616.000    693.617    -77.617    448.014    684.838    448.014    456.806    448.014
108.470    698.296    693.936      4.360    447.859    684.995    447.859    456.817    447.859
108.570    683.031    694.551    -11.521    447.706    685.437    447.706    456.842    447.706
108.670    661.000    695.181    -34.181    447.556    685.880    447.556    456.882    447.556
108.770    672.000    695.465    -23.465    447.408    685.964    447.408    456.937    447.408
108.870    734.988    695.000     39.988    447.263    685.286    447.263    457.009    447.263
108.970    713.000    693.394     19.606    447.121    683.451    447.121    457.098    447.121
109.070    706.000    690.316     15.684    446.981    680.128    446.981    457.205    446.981
109.170    660.000    685.552    -25.552    446.844    675.102    446.844    457.332    446.844
109.270    663.000    679.037    -16.037    446.710    668.306    446.710    457.480    446.710
109.370    680.000    670.860      9.140    446.579    659.827    446.579    457.651    446.579
109.470    667.000    661.236      5.764    446.450    649.881    446.450    457.845    446.450
109.570    664.000    650.473     13.527    446.325    638.770    446.325    458.066    446.325
109.670    661.555    638.920     22.635    446.203    626.844    446.203    458.315    446.203
109.770    605.151    626.941    -21.790    446.083    614.464    446.083    458.594    446.083
109.870    616.784    614.881      1.903    445.967    601.972    445.967    458.907    445.967
109.970    608.606    603.056      5.550    445.853    589.682    445.853    459.256    445.853
110.070    619.093    591.741     27.352    445.743    577.865    445.743    459.645    445.743
110.170    569.000    581.163    -12.163    445.636    566.746    445.636    460.077    445.636
110.270    613.000    571.502     41.498    445.532    556.499    445.532    460.556    445.532
110.370    561.000    562.888     -1.888    445.432    547.250    445.432    461.087    445.432
110.470    589.000    555.402     33.598    445.335    539.077    445.335    461.674    445.335
110.570    557.000    549.082      7.918    445.241    532.011    445.241    462.324    445.241
110.670    552.000    543.927      8.073    445.150    526.046    445.150    463.041    445.150
110.770    562.000    539.903     22.097    445.063    521.142    445.063    463.832    445.063
110.870    521.000    536.953    -15.953    444.980    517.236    444.980    464.703    444.980
110.970    515.216    535.002    -19.786    444.900    514.243    444.900    465.663    444.900
111.070    518.000    533.962    -15.962    444.823    512.071    444.823    466.717    444.823
111.170    498.035    533.746    -35.711    444.750    510.622    444.750    467.875    444.750
111.270    534.000    534.262     -0.262    444.681    509.799    444.681    469.144    444.681
111.370    549.263    535.427     13.836    444.615    509.509    444.615    470.533    444.615
111.470    565.978    537.165     28.813    444.554    509.665    444.554    472.051    444.554
111.570    571.858    539.407     32.452    444.496    510.192    444.496    473.708    444.496
111.670    520.582    542.097    -21.515    444.441    511.024    444.441    475.511    444.441
111.770    518.012    545.188    -27.175    444.391    512.105    444.391    477.470    444.391
111.870    523.000    548.645    -25.645    444.345    513.392    444.345    479.594    444.345
111.970    541.000    552.446    -11.446    444.302    514.853    444.302    481.891    444.302
112.070    528.000    556.576    -28.576    444.264    516.467    444.264    484.368    444.264
112.170    575.000    561.035     13.965    444.230    518.226    444.230    487.034    444.230
112.270    592.885    565.833     27.052    444.199    520.133    444.199    489.895    444.199
112.370    547.075    570.988    -23.914    444.173    522.202    444.173    492.955    444.173
112.470    618.000    576.530     41.470    444.152    524.458    444.152    496.218    444.152
112.570    580.206    582.495     -2.289    444.134    526.937    444.134    499.686    444.134
112.670    545.000    588.931    -43.931    444.121    529.687    444.121    503.360    444.121
112.770    559.000    595.898    -36.898    444.112    532.768    444.112    507.236    444.112
112.870    556.000    603.469    -47.469    444.107    536.261    444.107    511.310    444.107
112.970    569.000    611.734    -42.734    444.107    540.261    444.107    515.574    444.107
113.070    661.932    620.771     41.161    444.112    544.862    444.112    520.014    444.112
113.170    673.859    630.821     43.038    444.121    550.321    444.121    524.613    444.121
113.270    680.737    642.049     38.688    444.134    556.824    444.134    529.351    444.134
113.370    667.000    654.703     12.297    444.153    564.648    444.153    534.198    444.153
113.470    640.000    669.113    -29.113    444.175    574.156    444.175    539.120    444.175
113.570    680.900    685.698     -4.798    444.203    585.811    444.203    544.075    444.203
113.670    702.000    704.987     -2.987    444.236    600.193    444.236    549.011    444.236
113.770    662.000    727.640    -65.640    444.273    618.020    444.273    553.871    444.273
113.870    744.120    754.470    -10.350    444.315    640.172    444.315    558.586    444.315
113.970    748.000    786.462    -38.462    444.362    667.709    444.362    563.081    444.362
114.070    802.000    824.792    -22.792    444.415    701.890    444.415    567.275    444.415
114.170    843.000    870.841    -27.841    444.472    744.178    444.472    571.082    444.472
114.270    897.000    926.198    -29.198    444.534    796.250    444.534    574.417    444.534
114.370    969.185    992.656    -23.472    444.602    859.981    444.602    577.198    444.602
114.470   1036.000   1072.193    -36.193    444.674    937.421    444.674    579.350    444.674
114.570   1176.000   1166.933      9.067    444.752   1030.754    444.752    580.815    444.752
114.670   1216.902   1279.088    -62.186    444.836   1142.233    444.836    581.552    444.836
114.770   1507.000   1410.879     96.121    444.924   1274.102    444.924    581.539    444.924
114.870   1565.000   1564.435      0.565    445.018   1428.484    445.018    580.780    445.018
114.970   1758.000   1741.666     16.334    445.118   1607.265    445.118    579.301    445.118
115.070   1927.000   1944.121    -17.121    445.223   1811.949    445.223    577.148    445.223
115.170   2157.257   2172.841    -15.585    445.334   2043.513    445.334    574.386    445.334
115.270   2416.000   2428.198    -12.198    445.450   2302.253    445.450    571.090    445.450
115.370   2704.000   2709.744     -5.744    445.572   2587.641    445.572    567.343    445.572
115.470   3083.000   3016.086     66.914    445.700   2898.198    445.700    563.233    445.700
115.570   3434.873   3344.771     90.102    445.834   3231.387    445.834    558.844    445.834
115.670   3746.000   3692.214     53.786    445.973   3583.547    445.973    554.255    445.973
115.770   4019.976   4053.671    -33.695    446.119   3949.860    446.119    549.541    446.119
115.870   4396.833   4423.246    -26.413    446.270   4324.367    446.270    544.767    446.270
115.970   4674.000   4793.953   -119.953    446.427   4700.026    446.427    539.989    446.427
116.070   5079.000   5157.825    -78.825    446.591   5068.823    446.591    535.257    446.591
116.170   5576.868   5506.080     70.787    446.760   5421.936    446.760    530.610    446.760
116.270   5697.084   5829.358   -132.274    446.936   5749.971    446.936    526.082    446.936
116.370   6110.510   6118.044     -7.534    447.118   6043.289    447.118    521.700    447.118
116.470   6351.000   6362.706    -11.706    447.307   6292.434    447.307    517.485    447.307
116.570   6639.329   6554.651     84.677    447.502   6488.696    447.502    513.451    447.502
116.670   6746.000   6686.574     59.426    447.703   6624.756    447.703    509.611    447.703
116.770   6715.000   6753.217    -38.217    447.910   6695.346    447.910    505.972    447.910
116.870   6857.000   6751.918    105.082    448.125   6697.792    448.125    502.539    448.125
116.970   6780.000   6682.904     97.096    448.346   6632.318    448.346    499.314    448.346
117.070   6585.000   6549.259     35.741    448.573   6502.004    448.573    496.296    448.573
117.170   6344.000   6356.565    -12.565    448.807   6312.429    448.807    493.483    448.807
117.270   5979.000   6112.321   -133.321    449.048   6071.096    449.048    490.871    449.048
117.370   5737.000   5825.276    -88.276    449.296   5786.756    449.296    488.455    449.296
117.470   5439.000   5504.790    -65.790    449.551   5468.778    449.551    486.228    449.551
117.570   5020.000   5160.311   -140.311    449.813   5126.616    449.813    484.183    449.813
117.670   4694.782   4800.954   -106.172    450.082   4769.395    450.082    482.312    450.082
117.770   4426.000   4435.205     -9.205    450.358   4405.610    450.358    480.607    450.358
117.870   4097.000   4070.702     26.298    450.641   4042.911    450.641    479.059    450.641
117.970   3731.000   3714.087     16.913    450.931   3687.950    450.931    477.659    450.931
118.070   3462.000   3370.920     91.080    451.229   3346.298    451.229    476.399    451.229
118.170   2960.263   3045.641    -85.378    451.534   3022.406    451.534    475.269    451.534
118.270   2821.000   2741.586     79.414    451.846   2719.622    451.846    474.261    451.846
118.370   2436.789   2461.039    -24.251    452.166   2440.239    452.166    473.366    452.166
118.470   2227.000   2205.321     21.679    452.493   2185.587    452.493    472.576    452.493
118.570   2057.058   1974.897     82.161    452.828   1956.141    452.828    471.885    452.828
118.670   1769.665   1769.504      0.161    453.171   1751.647    453.171    471.283    453.171
118.770   1540.741   1588.281    -47.539    453.521   1571.250    453.521    470.765    453.521
118.870   1358.886   1429.898    -71.012    453.879   1413.629    453.879    470.325    453.879
118.970   1287.000   1292.691     -5.691    454.245   1277.125    454.245    469.955    454.245
119.070   1191.001   1174.778     16.223    454.619   1159.862    454.619    469.651    454.619
119.170   1075.854   1074.172      1.682    455.000   1059.856    455.000    469.408    455.000
119.270    995.000    988.868      6.132    455.390    975.109    455.390    469.221    455.390
119.370    873.095    916.924    -43.830    455.788    903.683    455.788    469.086    455.788
119.470    861.000    856.514      4.486    456.194    843.754    456.194    468.999    456.194
119.570    780.300    805.964    -25.664    456.609    793.650    456.609    468.957    456.609
119.670    724.000    763.772    -39.772    457.031    751.874    457.031    468.956    457.031
119.770    769.311    728.622     40.689    457.462    717.111    457.462    468.994    457.462
119.870    729.000    699.375     29.625    457.902    688.224    457.902    469.069    457.902
119.970    688.000    675.062     12.938    458.350    664.247    458.350    469.179    458.350
120.070    676.054    654.871     21.183    458.807    644.369    458.807    469.321    458.807
120.170    661.686    638.124     23.561    459.272    627.914    459.272    469.493    459.272
120.270    622.000    624.248     -2.248    459.746    614.309    459.746    469.696    459.746
120.370    593.000    612.819    -19.819    460.228    603.132    460.228    469.925    460.228
120.470    594.000    603.480     -9.480    460.720    594.027    460.720    470.182    460.720
120.570    562.000    595.921    -33.921    461.221    586.686    461.221    470.465    461.221
120.670    599.024    589.903      9.121    461.730    580.871    461.730    470.772    461.730
120.770    599.000    585.235     13.765    462.249    576.391    462.249    471.103    462.249
120.870    553.000    581.765    -28.765    462.776    573.094    462.776    471.458    462.776
120.970    621.932    579.367     42.565    463.313    570.857    463.313    471.835    463.313
121.070    581.000    577.938      3.062    463.859    569.576    463.859    472.233    463.859
121.170    585.000    577.392      7.608    464.415    569.167    464.415    472.653    464.415
121.270    587.000    577.653      9.347    464.979    569.554    464.979    473.094    464.979
121.370    575.000    578.655     -3.655    465.554    570.670    465.554    473.555    465.554
121.470    532.000    580.330    -48.330    466.138    572.451    466.138    474.035    466.138
121.570    552.000    582.617    -30.617    466.731    574.834    466.731    474.535    466.731
121.670    579.628    585.449     -5.821    467.334    577.753    467.334    475.053    467.334
121.770    595.137    588.755      6.382    467.947    581.139    467.947    475.589    467.947
121.870    595.000    592.462      2.538    468.570    584.918    468.570    476.142    468.570
121.970    608.000    596.488     11.512    469.203    589.009    469.203    476.711    469.203
122.070    573.349    600.745    -27.396    469.846    593.326    469.846    477.297    469.846
122.170    663.000    605.139     57.861    470.499    597.775    470.499    477.898    470.499
122.270    631.861    609.568     22.293    471.161    602.255    471.161    478.513    471.161
122.370    579.247    613.926    -34.679    471.835    606.660    471.835    479.142    471.835
122.470    636.000    618.103     17.897    472.518    610.882    472.518    479.783    472.518
122.570    642.000    621.986     20.014    473.212    614.808    473.212    480.436    473.212
122.670    625.000    625.466     -0.466    473.916    618.332    473.916    481.099    473.916
122.770    627.802    628.440     -0.639    474.631    621.352    474.631    481.771    474.631
122.870    614.000    630.819    -16.819    475.356    623.778    475.356    482.452    475.356
122.970    625.022    632.529     -7.507    476.092    625.538    476.092    483.139    476.092
123.070    632.829    633.519     -0.690    476.839    626.582    476.839    483.833    476.839
123.170    609.000    633.765    -24.765    477.596    626.887    477.596    484.531    477.596
123.270    654.498    633.266     21.232    478.365    626.454    478.365    485.234    478.365
123.370    640.768    632.047      8.722    479.144    625.307    479.144    485.940    479.144
123.470    677.000    630.154     46.846    479.934    623.494    479.934    486.650    479.934
123.570    661.751    627.648     34.102    480.736    621.075    480.736    487.363    480.736
123.670    642.000    624.603     17.397    481.549    618.124    481.549    488.080    481.549
123.770    651.000    621.097     29.903    482.373    614.720    482.373    488.799    482.373
123.870    602.921    617.212    -14.292    483.208    610.945    483.208    489.523    483.208
123.970    624.000    613.032     10.968    484.055    606.880    484.055    490.252    484.055
124.070    609.475    608.636      0.839    484.913    602.604    484.913    490.986    484.913
124.170    586.179    604.099    -17.921    485.783    598.193    485.783    491.727    485.783
124.270    640.000    599.492     40.508    486.664    593.716    486.664    492.476    486.664
124.370    592.000    594.877     -2.877    487.558    589.235    487.558    493.233    487.558
124.470    601.000    590.310     10.690    488.463    584.802    488.463    493.999    488.463
124.570    590.000    585.837      4.163    489.380    580.466    489.380    494.776    489.380
124.670    596.000    581.496     14.504    490.309    576.262    490.309    495.565    490.309
124.770    585.000    577.318      7.682    491.250    572.222    491.250    496.366    491.250
124.870    543.000    573.328    -30.328    492.204    568.368    492.204    497.180    492.204
124.970    580.000    569.543     10.457    493.169    564.719    493.169    498.008    493.169
