neutron_powder_diffraction_0116
R_wp: 3.909
Temperature (K): 966.984
Counts: 83604.00
Wavelength (Ã…): 2.52098
COMMENTS
Test file for demonstrating the .xyy file format in Reel1.0
END OF HEADER
   tth       Y_obs     Y_calc      Y_res    Background    Phase_1_Nuc    Phase_1_Mag    Phase_2_Nuc    Phase_2_Mag
  9.970    595.000    550.836     44.164    549.707    550.684    549.707    549.859    549.707
 10.070    587.000    551.345     35.655    550.133    551.193    550.133    550.285    550.133
 10.170    566.000    551.856     14.144    550.549    551.703    550.549    550.701    550.549
 10.270    584.000    552.372     31.628    550.955    552.218    550.955    551.108    550.955
 10.370    556.230    552.895      3.335    551.351    552.740    551.351    551.505    551.351
 10.470    539.000    553.430    -14.430    551.737    553.274    551.737    551.892    551.737
 10.570    624.000    553.983     70.017    552.114    553.827    552.114    552.269    552.114
 10.670    586.000    554.562     31.438    552.482    554.406    552.482    552.637    552.482
 10.770    608.000    555.171     52.829    552.840    555.013    552.840    552.996    552.840
 10.870    560.702    555.824      4.878    553.188    555.666    553.188    553.345    553.188
 10.970    560.000    556.539      3.461    553.528    556.380    553.528    553.685    553.528
 11.070    544.000    557.340    -13.340    553.858    557.179    553.858    554.016    553.858
 11.170    543.000    558.261    -15.261    554.179    558.099    554.179    554.338    554.179
 11.270    552.000    559.357     -7.357    554.491    559.194    554.491    554.651    554.491
 11.370    538.400    560.725    -22.325    554.794    560.562    554.794    554.955    554.794
 11.470    562.625    562.578      0.048    555.088    562.412    555.088    555.250    555.088
 11.570    581.006    565.427     15.579    555.374    565.260    555.374    555.536    555.374
 11.670    526.812    570.459    -43.647    555.650    570.289    555.650    555.813    555.650
 11.770    635.000    579.927     55.073    555.918    579.750    555.918    556.082    555.918
 11.870    658.000    596.909     61.091    556.178    596.723    556.178    556.342    556.178
 11.970    599.000    623.468    -24.468    556.429    623.268    556.429    556.594    556.429
 12.070    617.889    656.849    -38.960    556.672    656.630    556.672    556.837    556.672
 12.170    706.000    685.387     20.613    556.906    685.152    556.906    557.072    556.906
 12.270    647.717    691.895    -44.178    557.132    691.656    557.132    557.299    557.132
 12.370    649.000    671.136    -22.136    557.350    670.908    557.350    557.517    557.350
 12.470    645.000    637.879      7.121    557.559    637.667    557.559    557.728    557.559
 12.570    624.163    607.992     16.171    557.761    607.795    557.761    557.930    557.761
 12.670    553.606    587.564    -33.958    557.954    587.378    557.954    558.125    557.954
 12.770    586.708    575.888     10.820    558.140    575.708    558.140    558.311    558.140
 12.870    559.000    569.895    -10.895    558.318    569.717    558.318    558.490    558.318
 12.970    557.000    566.850     -9.850    558.488    566.673    558.488    558.661    558.488
 13.070    580.681    565.159     15.522    558.651    564.982    558.651    558.824    558.651
 13.170    551.000    564.097    -13.097    558.805    563.920    558.805    558.980    558.805
 13.270    579.000    563.370     15.630    558.953    563.193    558.953    559.128    558.953
 13.370    554.000    562.852     -8.852    559.093    562.674    559.093    559.268    559.093
 13.470    527.000    562.472    -35.472    559.225    562.293    559.225    559.402    559.225
 13.570    536.191    562.191    -26.000    559.350    562.012    559.350    559.528    559.350
 13.670    546.099    561.983    -15.883    559.468    561.803    559.468    559.646    559.468
 13.770    497.000    561.828    -64.828    559.578    561.647    559.578    559.758    559.578
 13.870    540.000    561.712    -21.712    559.682    561.531    559.682    559.862    559.682
 13.970    556.000    561.626     -5.626    559.778    561.444    559.778    559.959    559.778
 14.070    514.000    561.562    -47.562    559.868    561.379    559.868    560.050    559.868
 14.170    490.000    561.514    -71.514    559.950    561.330    559.950    560.133    559.950
 14.270    547.046    561.478    -14.432    560.026    561.293    560.026    560.210    560.026
 14.370    536.000    561.451    -25.451    560.095    561.265    560.095    560.280    560.095
 14.470    591.836    561.430     30.406    560.157    561.244    560.157    560.343    560.157
 14.570    540.690    561.413    -20.723    560.213    561.226    560.213    560.399    560.213
 14.670    574.000    561.399     12.601    560.262    561.211    560.262    560.449    560.262
 14.770    602.889    561.386     41.503    560.304    561.197    560.304    560.493    560.304
 14.870    571.112    561.373      9.740    560.340    561.183    560.340    560.530    560.340
 14.970    524.000    561.359    -37.359    560.369    561.168    560.369    560.560    560.369
 15.070    532.407    561.344    -28.937    560.393    561.152    560.393    560.584    560.393
 15.170    570.196    561.327      8.870    560.410    561.134    560.410    560.602    560.410
 15.270    511.000    561.307    -50.307    560.421    561.113    560.421    560.614    560.421
 15.370    564.000    561.285      2.715    560.425    561.090    560.425    560.620    560.425
 15.470    521.451    561.259    -39.808    560.424    561.063    560.424    560.620    560.424
 15.570    549.000    561.230    -12.230    560.417    561.033    560.417    560.613    560.417
 15.670    561.159    561.197     -0.038    560.403    560.999    560.403    560.601    560.403
 15.770    561.000    561.161     -0.161    560.384    560.961    560.384    560.583    560.384
 15.870    516.831    561.120    -44.289    560.359    560.920    560.359    560.559    560.359
 15.970    558.000    561.078     -3.078    560.328    560.876    560.328    560.530    560.328
 16.070    514.593    561.051    -46.458    560.292    560.849    560.292    560.494    560.292
 16.170    599.546    561.006     38.540    560.250    560.802    560.250    560.454    560.250
 16.270    545.646    560.949    -15.303    560.202    560.744    560.202    560.407    560.202
 16.370    577.000    560.888     16.112    560.149    560.682    560.149    560.355    560.149
 16.470    556.000    560.822     -4.822    560.091    560.614    560.091    560.298    560.091
 16.570    552.364    560.754     -8.390    560.027    560.545    560.027    560.235    560.027
 16.670    534.400    560.714    -26.314    559.957    560.504    559.957    560.167    559.957
 16.770    564.000    560.727      3.273    559.883    560.516    559.883    560.094    559.883
 16.870    528.000    560.653    -32.653    559.803    560.440    559.803    560.016    559.803
 16.970    536.000    560.565    -24.565    559.718    560.351    559.718    559.932    559.718
 17.070    583.000    560.473     22.527    559.629    560.257    559.629    559.844    559.629
 17.170    583.433    560.377     23.056    559.534    560.161    559.534    559.750    559.534
 17.270    556.000    560.280     -4.280    559.434    560.062    559.434    559.652    559.434
 17.370    558.468    560.175     -1.706    559.329    559.955    559.329    559.548    559.329
 17.470    555.000    560.065     -5.065    559.219    559.844    559.219    559.440    559.219
 17.570    520.190    559.951    -39.761    559.105    559.729    559.105    559.327    559.105
 17.670    577.000    559.833     17.167    558.986    559.609    558.986    559.209    558.986
 17.770    572.000    559.711     12.289    558.862    559.486    558.862    559.087    558.862
 17.870    547.000    559.584    -12.584    558.733    559.358    558.733    558.960    558.733
 17.970    532.000    559.454    -27.454    558.600    559.226    558.600    558.829    558.600
 18.070    519.000    559.319    -40.319    558.463    559.089    558.463    558.693    558.463
 18.170    595.188    559.181     36.007    558.321    558.949    558.321    558.552    558.321
 18.270    592.217    559.038     33.179    558.175    558.805    558.175    558.408    558.175
 18.370    588.000    558.892     29.108    558.024    558.657    558.024    558.259    558.024
 18.470    577.446    558.743     18.703    557.869    558.506    557.869    558.105    557.869
 18.570    561.000    558.607      2.393    557.710    558.369    557.710    557.948    557.710
 18.670    579.150    558.512     20.638    557.546    558.272    557.546    557.786    557.546
 18.770    549.000    558.357     -9.357    557.379    558.115    557.379    557.620    557.379
 18.870    569.000    558.192     10.808    557.207    557.949    557.207    557.451    557.207
 18.970    519.296    558.024    -38.728    557.032    557.779    557.032    557.277    557.032
 19.070    523.000    557.855    -34.855    556.852    557.608    556.852    557.099    556.852
 19.170    545.000    557.682    -12.682    556.669    557.433    556.669    556.918    556.669
 19.270    556.000    557.504     -1.504    556.482    557.253    556.482    556.733    556.482
 19.370    559.000    557.322      1.678    556.290    557.069    556.290    556.543    556.290
 19.470    532.000    557.137    -25.137    556.096    556.882    556.096    556.351    556.096
 19.570    580.000    556.949     23.051    555.897    556.692    555.897    556.154    555.897
 19.670    557.000    556.757      0.243    555.695    556.498    555.695    555.954    555.695
 19.770    567.792    556.568     11.224    555.489    556.306    555.489    555.751    555.489
 19.870    561.976    556.418      5.557    555.280    556.155    555.280    555.543    555.280
 19.970    534.603    556.226    -21.623    555.067    555.960    555.067    555.333    555.067
 20.070    524.000    556.024    -32.024    554.851    555.755    554.851    555.119    554.851
 20.170    546.000    555.818     -9.818    554.631    555.548    554.631    554.902    554.631
 20.270    553.000    555.610     -2.610    554.408    555.338    554.408    554.681    554.408
 20.370    566.000    555.400     10.600    554.182    555.125    554.182    554.457    554.182
 20.470    589.491    555.187     34.304    553.952    554.909    553.952    554.230    553.952
 20.570    546.000    554.974     -8.974    553.720    554.694    553.720    554.000    553.720
 20.670    558.000    554.768      3.232    553.484    554.485    553.484    553.767    553.484
 20.770    529.000    554.560    -25.560    553.245    554.274    553.245    553.531    553.245
 20.870    569.000    554.342     14.658    553.003    554.053    553.003    553.292    553.003
 20.970    558.000    554.119      3.881    552.758    553.827    552.758    553.050    552.758
 21.070    557.693    553.894      3.799    552.510    553.599    552.510    552.805    552.510
 21.170    529.191    553.669    -24.478    552.259    553.371    552.259    552.557    552.259
 21.270    592.345    553.457     38.888    552.005    553.156    552.005    552.306    552.005
 21.370    579.000    553.239     25.761    551.749    552.935    551.749    552.053    551.749
 21.470    520.000    553.014    -33.014    551.489    552.707    551.489    551.797    551.489
 21.570    591.012    552.809     38.203    551.227    552.498    551.227    551.538    551.227
 21.670    516.273    552.588    -36.316    550.963    552.274    550.963    551.277    550.963
 21.770    541.000    552.382    -11.382    550.695    552.065    550.695    551.013    550.695
 21.870    551.000    552.155     -1.155    550.425    551.834    550.425    550.747    550.425
 21.970    547.000    551.926     -4.926    550.153    551.600    550.153    550.478    550.153
 22.070    582.437    551.702     30.735    549.878    551.373    549.878    550.207    549.878
 22.170    553.000    551.519      1.481    549.601    551.186    549.601    549.934    549.601
 22.270    579.954    551.312     28.643    549.321    550.974    549.321    549.659    549.321
 22.370    513.298    551.101    -37.803    549.039    550.759    549.039    549.381    549.039
 22.470    527.000    550.884    -23.884    548.754    550.538    548.754    549.101    548.754
 22.570    568.000    550.669     17.331    548.467    550.319    548.467    548.819    548.467
 22.670    523.670    550.462    -26.793    548.178    550.107    548.178    548.534    548.178
 22.770    584.891    550.286     34.605    547.887    549.925    547.887    548.248    547.887
 22.870    550.000    550.135     -0.135    547.594    549.769    547.594    547.960    547.594
 22.970    568.000    549.957     18.043    547.298    549.586    547.298    547.670    547.298
 23.070    580.649    549.790     30.859    547.001    549.414    547.001    547.378    547.001
 23.170    538.000    549.643    -11.643    546.701    549.261    546.701    547.084    546.701
 23.270    512.000    549.517    -37.517    546.400    549.129    546.400    546.789    546.400
 23.370    559.420    549.424      9.996    546.097    549.030    546.097    546.492    546.097
 23.470    574.000    549.370     24.630    545.791    548.969    545.791    546.193    545.791
 23.570    521.605    549.373    -27.768    545.484    548.967    545.484    545.892    545.484
 23.670    582.000    549.429     32.571    545.175    549.015    545.175    545.590    545.175
 23.770    575.000    549.575     25.425    544.864    549.154    544.864    545.287    544.864
 23.870    542.774    549.851     -7.077    544.552    549.423    544.552    544.982    544.552
 23.970    554.000    550.324      3.676    544.238    549.888    544.238    544.676    544.238
 24.070    514.134    551.153    -37.019    543.922    550.710    543.922    544.368    543.922
 24.170    599.000    552.715     46.285    543.604    552.265    543.604    544.060    543.604
 24.270    559.000    555.838      3.162    543.285    555.381    543.285    543.750    543.285
 24.370    614.000    562.030     51.970    542.965    561.569    542.965    543.439    542.965
 24.470    561.397    573.237    -11.840    542.643    572.774    542.643    543.127    542.643
 24.570    547.956    590.607    -42.652    542.319    590.147    542.319    542.814    542.319
 24.670    646.000    612.127     33.873    541.994    611.672    541.994    542.500    541.994
 24.770    608.000    630.204    -22.204    541.668    629.750    541.668    542.185    541.668
 24.870    647.973    633.975     13.998    541.341    633.512    541.341    541.870    541.341
 24.970    645.000    620.190     24.810    541.012    619.705    541.012    541.554    541.012
 25.070    584.512    598.104    -13.592    540.681    597.589    540.681    541.238    540.681
 25.170    549.000    577.872    -28.872    540.350    577.326    540.350    540.921    540.350
 25.270    528.517    563.625    -35.109    540.017    563.054    540.017    540.604    540.017
 25.370    583.744    555.135     28.608    539.683    554.542    539.683    540.286    539.683
 25.470    605.000    550.526     54.474    539.348    549.911    539.348    539.969    539.348
 25.570    569.000    548.011     20.989    539.012    547.376    539.012    539.651    539.012
 25.670    582.000    546.492     35.508    538.675    545.837    538.675    539.334    538.675
 25.770    567.178    545.448     21.731    538.337    544.771    538.337    539.016    538.337
 25.870    540.000    544.661     -4.661    537.998    543.961    537.998    538.700    537.998
 25.970    584.000    544.041     39.959    537.658    543.317    537.658    538.384    537.658
 26.070    548.000    543.544      4.456    537.317    542.793    537.317    538.069    537.317
 26.170    568.275    543.143     25.132    536.975    542.365    536.975    537.754    536.975
 26.270    522.000    542.825    -20.825    536.632    542.017    536.632    537.441    536.632
 26.370    585.000    542.582     42.418    536.289    541.742    536.289    537.130    536.289
 26.470    543.000    542.409      0.591    535.945    541.533    535.945    536.821    535.945
 26.570    572.000    542.307     29.693    535.600    541.394    535.600    536.513    535.600
 26.670    511.560    542.283    -30.724    535.254    541.329    535.254    536.208    535.254
 26.770    587.000    542.347     44.653    534.907    541.348    534.907    535.906    534.907
 26.870    560.000    542.512     17.488    534.560    541.465    534.560    535.608    534.560
 26.970    545.000    542.802      2.198    534.213    541.702    534.213    535.313    534.213
 27.070    525.171    543.249    -18.079    533.864    542.090    533.864    535.023    533.864
 27.170    554.579    543.897     10.682    533.516    542.674    533.516    534.738    533.516
 27.270    529.000    544.815    -15.815    533.166    543.521    533.166    534.459    533.166
 27.370    590.000    546.109     43.891    532.816    544.736    532.816    534.188    532.816
 27.470    586.000    547.979     38.021    532.466    546.519    532.466    533.924    532.466
 27.570    553.000    550.932      2.068    532.115    549.375    532.115    533.670    532.115
 27.670    617.000    556.515     60.485    531.764    554.848    531.764    533.427    531.764
 27.770    563.000    569.055     -6.055    531.413    567.263    531.413    533.196    531.413
 27.870    653.000    597.794     55.206    531.061    595.858    531.061    532.979    531.061
 27.970    644.000    655.358    -11.358    530.709    653.252    530.709    532.779    530.709
 28.070    774.308    746.912     27.396    530.356    744.610    530.356    532.598    530.356
 28.170    840.000    852.286    -12.286    530.004    849.771    530.004    532.437    530.004
 28.270    942.000    919.060     22.940    529.651    916.328    529.651    532.301    529.651
 28.370    885.000    902.223    -17.223    529.298    899.274    529.298    532.191    529.298
 28.470    769.677    823.957    -54.280    528.945    820.763    528.945    532.111    528.945
 28.570    755.580    746.649      8.932    528.591    743.164    528.591    532.063    528.591
 28.670    725.899    714.813     11.087    528.238    710.990    528.238    532.049    528.238
 28.770    738.000    735.587      2.413    527.884    731.387    527.884    532.070    527.884
 28.870    838.776    784.294     54.482    527.531    779.683    527.531    532.125    527.531
 28.970    761.000    816.365    -55.365    527.177    811.324    527.177    532.210    527.177
 29.070    782.782    797.142    -14.361    526.824    791.654    526.824    532.318    526.824
 29.170    688.000    736.155    -48.155    526.470    730.205    526.470    532.434    526.470
 29.270    655.000    667.068    -12.068    526.117    660.660    526.117    532.539    526.117
 29.370    578.000    613.206    -35.206    525.763    606.373    525.763    532.607    525.763
 29.470    535.307    579.996    -44.689    525.410    572.805    525.410    532.607    525.410
 29.570    554.558    562.531     -7.974    525.057    555.081    525.057    532.509    525.057
 29.670    565.979    553.909     12.069    524.704    546.326    524.704    532.288    524.704
 29.770    572.000    549.336     22.664    524.351    541.757    524.351    531.930    524.351
 29.870    556.000    546.462      9.538    523.998    539.024    523.998    531.436    523.998
 29.970    557.000    544.373     12.627    523.646    537.198    523.646    530.821    523.646
 30.070    538.000    542.772     -4.772    523.294    535.955    523.294    530.110    523.294
 30.170    544.521    541.611      2.910    522.942    535.216    522.942    529.336    522.942
 30.270    597.000    541.028     55.972    522.591    535.089    522.591    528.528    522.591
 30.370    560.000    541.460     18.540    522.240    535.986    522.240    527.711    522.240
 30.470    557.084    543.830     13.254    521.889    538.809    521.889    526.905    521.889
 30.570    553.530    549.565      3.965    521.539    544.971    521.539    526.122    521.539
 30.670    581.000    560.021     20.979    521.189    555.820    521.189    525.371    521.189
 30.770    603.000    575.086     27.914    520.839    571.242    520.839    524.654    520.839
 30.870    642.000    591.315     50.685    520.490    587.793    520.490    523.973    520.490
 30.970    635.950    601.187     34.763    520.142    597.959    520.142    523.326    520.142
 31.070    592.000    597.996     -5.996    519.794    595.038    519.794    522.712    519.794
 31.170    597.000    583.593     13.407    519.446    580.882    519.446    522.128    519.446
 31.270    551.484    565.760    -14.277    519.100    563.270    519.100    521.571    519.100
 31.370    541.240    550.640     -9.400    518.753    548.344    518.753    521.039    518.753
 31.470    504.108    540.343    -36.235    518.408    538.216    518.408    520.528    518.408
 31.570    540.000    534.293      5.707    518.062    532.315    518.062    520.037    518.062
 31.670    559.000    531.008     27.992    517.718    529.161    517.718    519.562    517.718
 31.770    515.000    529.203    -14.203    517.374    527.472    517.374    519.103    517.374
 31.870    523.336    528.120     -4.784    517.031    526.493    517.031    518.657    517.031
 31.970    531.304    527.408      3.897    516.689    525.872    516.689    518.223    516.689
 32.070    556.000    526.925     29.075    516.347    525.471    516.347    517.799    516.347
 32.170    518.000    526.619     -8.619    516.006    525.239    516.006    517.385    516.006
 32.270    545.471    526.471     19.000    515.666    525.157    515.666    516.979    515.666
 32.370    555.000    526.479     28.521    515.327    525.225    515.327    516.580    515.327
 32.470    540.118    526.652     13.466    514.988    525.451    514.988    516.188    514.988
 32.570    571.605    527.010     44.595    514.650    525.858    514.650    515.802    514.650
 32.670    555.000    527.586     27.414    514.313    526.478    514.313    515.421    514.313
 32.770    486.000    528.429    -42.429    513.977    527.361    513.977    515.045    513.977
 32.870    527.000    529.610     -2.610    513.642    528.578    513.642    514.673    513.642
 32.970    503.843    531.235    -27.392    513.308    530.236    513.308    514.306    513.308
 33.070    503.000    533.475    -30.475    512.975    532.507    512.975    513.942    512.975
 33.170    512.544    536.653    -24.109    512.642    535.712    512.642    513.582    512.642
 33.270    576.366    541.474     34.892    512.311    540.558    512.311    513.225    512.311
 33.370    518.560    549.572    -31.012    511.981    548.678    511.981    512.872    511.981
 33.470    595.000    564.447     30.553    511.651    563.572    511.651    512.521    511.651
 33.570    594.000    592.385      1.615    511.323    591.525    511.323    512.173    511.323
 33.670    637.000    641.965     -4.965    510.996    641.117    510.996    511.827    510.996
 33.770    681.407    720.334    -38.926    510.669    719.493    510.669    511.485    510.669
 33.870    814.000    825.613    -11.613    510.344    824.779    510.344    511.144    510.344
 33.970    952.000    937.174     14.826    510.020    936.352    510.020    510.806    510.020
 34.070   1070.797   1011.592     59.206    509.697   1010.792    509.697    510.470    509.697
 34.170   1085.000   1006.893     78.107    509.375   1006.124    509.375    510.136    509.375
 34.270    892.823    926.077    -33.255    509.054    925.334    509.054    509.805    509.054
 34.370    779.000    813.082    -34.082    508.735    812.354    508.735    509.475    508.735
 34.470    756.085    709.260     46.825    508.416    708.540    508.416    509.148    508.416
 34.570    673.000    633.076     39.924    508.099    632.362    508.099    508.822    508.099
 34.670    587.000    585.183      1.817    507.783    584.472    507.783    508.498    507.783
 34.770    566.444    558.066      8.379    507.468    557.360    507.468    508.176    507.468
 34.870    529.000    543.292    -14.292    507.154    542.591    507.154    507.856    507.154
 34.970    533.000    534.866     -1.866    506.842    534.171    506.842    507.538    506.842
 35.070    556.579    529.507     27.073    506.531    528.816    506.531    507.222    506.531
 35.170    504.000    525.694    -21.694    506.221    525.008    506.221    506.907    506.221
 35.270    556.233    522.771     33.462    505.913    522.089    505.913    506.595    505.913
 35.370    535.000    520.433     14.567    505.605    519.754    505.605    506.284    505.605
 35.470    497.000    518.512    -21.512    505.300    517.838    505.300    505.975    505.300
 35.570    533.000    516.905     16.095    504.995    516.233    504.995    505.667    504.995
 35.670    512.000    515.538     -3.538    504.692    514.868    504.692    505.361    504.692
 35.770    489.519    514.358    -24.840    504.390    513.691    504.390    505.057    504.390
 35.870    522.000    513.328      8.672    504.089    512.663    504.089    504.755    504.089
 35.970    472.000    512.419    -40.419    503.790    511.755    503.790    504.455    503.790
 36.070    490.000    511.609    -21.609    503.493    510.946    503.493    504.156    503.493
 36.170    501.488    510.882     -9.394    503.196    510.220    503.196    503.859    503.196
 36.270    492.000    510.227    -18.227    502.902    509.565    502.902    503.563    502.902
 36.370    517.000    509.633      7.367    502.608    508.972    502.608    503.270    502.608
 36.470    523.000    509.096     13.904    502.316    508.435    502.316    502.978    502.316
 36.570    485.000    508.612    -23.612    502.026    507.950    502.026    502.688    502.026
 36.670    523.175    508.180     14.995    501.737    507.518    501.737    502.399    501.737
 36.770    524.000    507.805     16.195    501.449    507.143    501.449    502.112    501.449
 36.870    510.433    507.504      2.929    501.163    506.840    501.163    501.827    501.163
 36.970    496.427    507.316    -10.889    500.879    506.651    500.879    501.544    500.879
 37.070    481.000    507.331    -26.331    500.596    506.665    500.596    501.263    500.596
 37.170    518.832    507.717     11.114    500.314    507.049    500.314    500.983    500.314
 37.270    539.855    508.719     31.137    500.034    508.049    500.034    500.705    500.034
 37.370    527.000    510.582     16.418    499.756    509.911    499.756    500.429    499.756
 37.470    489.714    513.379    -23.665    499.479    512.706    499.479    500.155    499.479
 37.570    540.000    516.755     23.245    499.204    516.081    499.204    499.882    499.204
 37.670    497.783    519.719    -21.935    498.930    519.043    498.930    499.611    498.930
 37.770    564.018    520.825     43.193    498.658    520.148    498.658    499.342    498.658
 37.870    520.000    519.373      0.627    498.388    518.695    498.388    499.075    498.388
 37.970    481.536    516.228    -34.692    498.119    515.548    498.119    498.810    498.119
 38.070    507.000    512.662     -5.662    497.852    511.979    497.852    498.546    497.852
 38.170    524.000    509.407     14.593    497.586    508.719    497.586    498.285    497.586
 38.270    496.000    506.764    -10.764    497.322    506.071    497.322    498.025    497.322
 38.370    527.951    504.798     23.154    497.060    504.098    497.060    497.767    497.060
 38.470    534.000    503.407     30.593    496.800    502.701    496.800    497.511    496.800
 38.570    477.000    502.435    -25.435    496.541    501.722    496.541    497.256    496.541
 38.670    514.000    501.738     12.262    496.283    501.019    496.283    497.004    496.283
 38.770    523.000    501.212     21.788    496.028    500.488    496.028    496.754    496.028
 38.870    484.000    500.789    -16.789    495.774    500.060    495.774    496.505    495.774
 38.970    454.000    500.428    -46.428    495.522    499.693    495.522    496.258    495.522
 39.070    503.000    500.106      2.894    495.272    499.364    495.272    496.014    495.272
 39.170    480.000    499.810    -19.810    495.023    499.062    495.023    495.771    495.023
 39.270    468.000    499.533    -31.533    494.776    498.780    494.776    495.530    494.776
 39.370    534.000    499.274     34.726    494.531    498.514    494.531    495.291    494.531
 39.470    487.000    499.028    -12.028    494.287    498.262    494.287    495.054    494.287
 39.570    541.557    498.795     42.761    494.045    498.022    494.045    494.819    494.045
 39.670    515.559    498.575     16.984    493.805    497.794    493.805    494.587    493.805
 39.770    527.000    498.365     28.635    493.567    497.578    493.567    494.356    493.567
 39.870    494.000    498.167     -4.167    493.331    497.372    493.331    494.127    493.331
 39.970    508.352    497.980     10.372    493.096    497.177    493.096    493.900    493.096
 40.070    461.136    497.805    -36.669    492.863    496.994    492.863    493.675    492.863
 40.170    491.000    497.642     -6.642    492.632    496.822    492.632    493.452    492.632
 40.270    494.000    497.491     -3.491    492.403    496.663    492.403    493.231    492.403
 40.370    496.283    497.354     -1.071    492.175    496.518    492.175    493.013    492.175
 40.470    513.000    497.233     15.767    491.950    496.387    491.950    492.796    491.950
 40.570    509.000    497.128     11.872    491.726    496.273    491.726    492.582    491.726
 40.670    475.000    497.043    -22.043    491.504    496.178    491.504    492.369    491.504
 40.770    490.000    496.980     -6.980    491.283    496.105    491.283    492.159    491.283
 40.870    517.610    496.942     20.669    491.065    496.057    491.065    491.951    491.065
 40.970    521.000    496.934     24.066    490.848    496.039    490.848    491.745    490.848
 41.070    514.000    496.963     17.037    490.634    496.056    490.634    491.541    490.634
 41.170    469.000    497.035    -28.035    490.421    496.117    490.421    491.340    490.421
 41.270    471.000    497.162    -26.162    490.210    496.233    490.210    491.141    490.210
 41.370    477.000    497.357    -20.357    490.001    496.416    490.001    490.944    490.001
 41.470    506.000    497.641      8.359    489.793    496.687    489.793    490.749    489.793
 41.570    487.000    498.044    -11.044    489.588    497.078    489.588    490.556    489.588
 41.670    466.000    498.622    -32.622    489.384    497.643    489.384    490.366    489.384
 41.770    530.017    499.486     30.531    489.182    498.494    489.182    490.178    489.182
 41.870    507.000    500.870      6.130    488.982    499.864    488.982    489.992    488.982
 41.970    480.000    503.243    -23.243    488.784    502.223    488.784    489.809    488.784
 42.070    521.050    507.445     13.605    488.588    506.412    488.588    489.628    488.588
 42.170    541.166    514.730     26.436    488.394    513.685    488.394    489.450    488.394
 42.270    495.472    526.538    -31.066    488.202    525.482    488.202    489.274    488.202
 42.370    484.000    543.832    -59.832    488.011    542.768    488.011    489.100    488.011
 42.470    546.000    566.059    -20.059    487.823    564.990    487.823    488.929    487.823
 42.570    609.000    589.950     19.050    487.636    588.878    487.636    488.761    487.636
 42.670    575.000    608.809    -33.809    487.451    607.730    487.451    488.595    487.451
 42.770    596.000    614.465    -18.465    487.268    613.374    487.268    488.431    487.268
 42.870    552.000    603.708    -51.708    487.087    602.592    487.087    488.271    487.087
 42.970    608.000    581.991     26.009    486.908    580.843    486.908    488.113    486.908
 43.070    532.057    557.730    -25.673    486.731    556.545    486.731    487.957    486.731
 43.170    502.137    536.608    -34.471    486.556    535.387    486.556    487.805    486.556
 43.270    502.915    520.882    -17.967    486.382    519.629    486.382    487.655    486.382
 43.370    552.488    510.473     42.015    486.211    509.188    486.211    487.508    486.211
 43.470    569.000    504.147     64.853    486.041    502.832    486.041    487.364    486.041
 43.570    465.000    500.462    -35.462    485.873    499.118    485.873    487.223    485.873
 43.670    513.000    498.283     14.717    485.708    496.910    485.708    487.085    485.708
 43.770    500.000    496.902      3.098    485.544    495.500    485.544    486.950    485.544
 43.870    497.000    495.943      1.057    485.382    494.510    485.382    486.818    485.382
 43.970    513.230    495.225     18.005    485.222    493.760    485.222    486.690    485.222
 44.070    477.000    494.662    -17.662    485.064    493.163    485.064    486.564    485.064
 44.170    452.249    494.209    -41.960    484.907    492.676    484.907    486.443    484.907
 44.270    507.000    493.842     13.158    484.753    492.272    484.753    486.325    484.753
 44.370    470.000    493.542    -23.542    484.601    491.934    484.601    486.210    484.601
 44.470    492.000    493.298     -1.298    484.450    491.650    484.450    486.099    484.450
 44.570    511.000    493.100     17.900    484.302    491.411    484.302    485.992    484.302
 44.670    475.000    492.943    -17.943    484.155    491.210    484.155    485.890    484.155
 44.770    502.000    492.821      9.179    484.010    491.042    484.010    485.791    484.010
 44.870    496.000    492.731      3.269    483.868    490.902    483.868    485.697    483.868
 44.970    496.000    492.669      3.331    483.727    490.790    483.727    485.607    483.727
 45.070    502.645    492.635     10.009    483.588    490.702    483.588    485.522    483.588
 45.170    468.000    492.627    -24.627    483.451    490.637    483.451    485.442    483.451
 45.270    455.066    492.645    -37.579    483.316    490.594    483.316    485.367    483.316
 45.370    518.000    492.688     25.312    483.182    490.573    483.182    485.298    483.182
 45.470    535.018    492.757     42.261    483.051    490.574    483.051    485.234    483.051
 45.570    496.000    492.853      3.147    482.922    490.598    482.922    485.177    482.922
 45.670    452.000    492.976    -40.976    482.794    490.645    482.794    485.126    482.794
 45.770    509.000    493.129     15.871    482.668    490.716    482.668    485.082    482.668
 45.870    475.000    493.314    -18.314    482.545    490.814    482.545    485.045    482.545
 45.970    497.065    493.534      3.531    482.423    490.941    482.423    485.017    482.423
 46.070    448.000    493.793    -45.793    482.303    491.100    482.303    484.996    482.303
 46.170    457.410    494.095    -36.685    482.185    491.295    482.185    484.985    482.185
 46.270    497.156    494.446      2.710    482.069    491.531    482.069    484.984    482.069
 46.370    460.000    494.854    -34.854    481.955    491.815    481.955    484.994    481.955
 46.470    534.495    495.329     39.166    481.842    492.156    481.842    485.015    481.842
 46.570    504.479    495.884      8.595    481.732    492.566    481.732    485.050    481.732
 46.670    463.000    496.539    -33.539    481.623    493.063    481.623    485.098    481.623
 46.770    468.000    497.326    -29.326    481.516    493.679    481.516    485.163    481.516
 46.870    500.306    498.307      1.999    481.412    494.473    481.412    485.245    481.412
 46.970    482.000    499.602    -17.602    481.309    495.563    481.309    485.346    481.309
 47.070    504.000    501.439      2.561    481.208    497.174    481.208    485.470    481.208
 47.170    536.486    504.216     32.270    481.108    499.701    481.108    485.619    481.108
 47.270    533.000    508.531     24.469    481.011    503.740    481.011    485.795    481.011
 47.370    564.000    515.127     48.873    480.916    510.028    480.916    486.003    480.916
 47.470    554.786    524.668     30.118    480.822    519.224    480.822    486.248    480.822
 47.570    510.675    537.336    -26.661    480.730    531.507    480.730    486.533    480.730
 47.670    519.000    552.340    -33.340    480.640    546.080    480.640    486.865    480.640
 47.770    600.978    567.429     33.550    480.552    560.687    480.552    487.250    480.552
 47.870    553.332    578.832    -25.500    480.466    571.553    480.466    487.695    480.466
 47.970    576.000    582.627     -6.627    480.381    574.752    480.381    488.208    480.381
 48.070    583.000    577.705      5.295    480.299    569.164    480.299    488.797    480.299
 48.170    574.000    566.945      7.055    480.218    557.657    480.218    489.471    480.218
 48.270    545.000    554.642     -9.642    480.139    544.515    480.139    490.240    480.139
 48.370    530.433    543.957    -13.524    480.062    532.889    480.062    491.113    480.062
 48.470    525.000    536.426    -11.426    479.987    524.303    479.987    492.099    479.987
 48.570    572.000    532.357     39.643    479.913    519.061    479.913    493.204    479.913
 48.670    528.000    531.346     -3.346    479.842    516.753    479.842    494.432    479.842
 48.770    546.918    532.746     14.172    479.772    516.734    479.772    495.782    479.772
 48.870    538.000    535.985      2.015    479.704    518.445    479.704    497.244    479.704
 48.970    505.000    540.737    -35.737    479.637    521.577    479.637    498.798    479.637
 49.070    586.000    546.979     39.021    479.573    526.148    479.573    500.405    479.573
 49.170    529.093    555.145    -26.052    479.510    532.647    479.510    502.009    479.510
 49.270    582.052    566.580     15.472    479.449    542.501    479.449    503.529    479.449
 49.370    606.821    584.643     22.178    479.390    559.165    479.390    504.867    479.390
 49.470    590.000    616.666    -26.666    479.333    590.081    479.333    505.913    479.333
 49.570    716.330    676.321     40.009    479.277    649.019    479.277    506.564    479.277
 49.670    824.369    784.470     39.898    479.223    756.912    479.223    506.750    479.223
 49.770   1003.426    965.139     38.287    479.171    937.809    479.171    506.446    479.171
 49.870   1202.203   1233.986    -31.783    479.121   1207.340    479.121    505.683    479.121
 49.970   1579.414   1581.197     -1.784    479.072   1555.628    479.072    504.539    479.072
 50.070   1926.541   1956.294    -29.753    479.025   1932.102    479.025    503.118    479.025
 50.170   2313.558   2264.898     48.660    478.980   2242.292    478.980    501.528    478.980
 50.270   2426.652   2394.401     32.251    478.936   2373.497    478.936    499.867    478.936
 50.370   2293.000   2286.350      6.650    478.894   2267.158    478.894    498.212    478.894
 50.470   2011.283   1991.152     20.131    478.854   1973.583    478.854    496.618    478.854
 50.570   1620.000   1620.045     -0.045    478.816   1603.955    478.816    495.119    478.816
 50.670   1217.141   1271.269    -54.128    478.779   1256.505    478.779    493.735    478.779
 50.770    989.000   1000.174    -11.174    478.744    986.596    478.744    492.474    478.744
 50.870    782.190    819.950    -37.760    478.711    807.436    478.711    491.336    478.711
 50.970    734.000    715.693     18.307    478.679    704.135    478.679    490.318    478.679
 51.070    693.182    661.486     31.696    478.649    650.785    478.649    489.412    478.649
 51.170    643.000    633.006      9.994    478.620    623.068    478.620    488.610    478.620
 51.270    646.000    613.831     32.169    478.594    604.566    478.594    487.902    478.594
 51.370    598.000    596.578      1.422    478.569    587.904    478.569    487.280    478.569
 51.470    578.726    580.008     -1.282    478.545    571.850    478.545    486.733    478.545
 51.570    541.000    565.130    -24.130    478.523    557.422    478.523    486.255    478.523
 51.670    547.000    552.971     -5.971    478.503    545.655    478.503    485.836    478.503
 51.770    569.000    543.937     25.063    478.484    536.962    478.484    485.472    478.484
 51.870    527.000    537.856    -10.856    478.467    531.179    478.467    485.154    478.467
 51.970    534.000    534.233     -0.233    478.452    527.814    478.452    484.879    478.452
 52.070    558.000    532.517     25.483    478.438    526.322    478.438    484.640    478.438
 52.170    503.000    532.288    -29.288    478.426    526.285    478.426    484.435    478.426
 52.270    507.864    533.347    -25.482    478.415    527.508    478.415    484.260    478.415
 52.370    497.682    535.779    -38.098    478.406    530.080    478.406    484.111    478.406
 52.470    574.000    540.061     33.939    478.398    534.480    478.398    483.986    478.398
 52.570    559.000    547.275     11.725    478.392    541.790    478.392    483.883    478.392
 52.670    531.775    559.440    -27.665    478.387    554.034    478.387    483.800    478.387
 52.770    573.786    579.841     -6.055    478.384    574.497    478.384    483.735    478.384
 52.870    583.758    613.062    -29.304    478.383    607.765    478.383    483.688    478.383
 52.970    679.000    664.365     14.635    478.383    659.102    478.383    483.657    478.383
 53.070    798.000    738.038     59.962    478.384    732.796    478.384    483.641    478.384
 53.170    817.000    834.883    -17.883    478.387    829.651    478.387    483.639    478.387
 53.270    892.136    949.311    -57.175    478.392    944.080    478.392    483.652    478.392
 53.370   1085.000   1066.615     18.385    478.398   1061.376    478.398    483.678    478.398
 53.470   1165.000   1161.751      3.249    478.405   1156.493    478.405    483.717    478.405
 53.570   1157.000   1205.015    -48.015    478.414   1199.727    478.414    483.770    478.414
 53.670   1211.000   1179.770     31.230    478.424   1174.436    478.424    483.835    478.424
 53.770   1084.000   1096.585    -12.585    478.436   1091.184    478.436    483.914    478.436
 53.870    987.000    983.543      3.457    478.449    978.056    478.449    484.005    478.449
 53.970    844.000    867.623    -23.623    478.464    862.035    478.464    484.109    478.464
 54.070    773.000    766.249      6.751    478.480    760.546    478.480    484.227    478.480
 54.170    707.245    687.222     20.023    478.497    681.393    478.497    484.359    478.497
 54.270    605.000    631.188    -26.188    478.516    625.223    478.516    484.504    478.516
 54.370    587.000    594.549     -7.549    478.536    588.437    478.536    484.665    478.536
 54.470    611.586    572.145     39.442    478.557    565.874    478.557    484.840    478.557
 54.570    585.649    559.136     26.513    478.580    552.694    478.580    485.032    478.580
 54.670    529.945    551.886    -21.940    478.604    545.258    478.604    485.240    478.604
 54.770    592.000    548.057     43.943    478.630    541.228    478.630    485.467    478.630
 54.870    562.000    546.328     15.672    478.657    539.280    478.657    485.712    478.657
 54.970    562.000    546.022     15.978    478.685    538.736    478.685    485.977    478.685
 55.070    570.000    546.831     23.169    478.714    539.288    478.714    486.264    478.714
 55.170    578.285    548.642     29.643    478.745    540.820    478.745    486.574    478.745
 55.270    596.000    551.453     44.547    478.777    543.328    478.777    486.909    478.777
 55.370    537.000    555.347    -18.347    478.810    546.893    478.810    487.271    478.810
 55.470    584.000    560.508     23.492    478.845    551.697    478.845    487.663    478.845
 55.570    546.000    567.296    -21.296    478.881    558.096    478.881    488.087    478.881
 55.670    607.000    576.411     30.589    478.918    566.789    478.918    488.547    478.918
 55.770    659.000    589.245     69.755    478.956    579.161    478.956    489.047    478.956
 55.870    606.864    608.470     -1.607    478.996    597.881    478.996    489.590    478.996
 55.970    603.000    638.906    -35.906    479.037    627.763    479.037    490.182    479.037
 56.070    738.202    688.432     49.770    479.079    676.680    479.079    490.829    479.079
 56.170    757.000    768.420    -11.420    479.122    755.997    479.122    491.538    479.122
 56.270    875.161    892.774    -17.613    479.166    879.612    479.166    492.316    479.166
 56.370   1056.000   1074.720    -18.720    479.212   1060.745    479.212    493.173    479.212
 56.470   1311.000   1321.176    -10.176    479.258   1306.312    479.258    494.119    479.258
 56.570   1574.000   1625.717    -51.717    479.306   1609.880    479.306    495.167    479.306
 56.670   1914.000   1961.956    -47.956    479.355   1945.054    479.355    496.330    479.355
 56.770   2223.000   2279.431    -56.431    479.405   2261.360    479.405    497.624    479.405
 56.870   2563.000   2507.062     55.938    479.456   2487.692    479.456    499.066    479.456
 56.970   2515.000   2575.992    -60.992    479.509   2555.148    479.509    500.677    479.509
 57.070   2379.828   2461.889    -82.061    479.562   2439.343    479.562    502.478    479.562
 57.170   2117.284   2205.205    -87.921    479.616   2180.695    479.616    504.492    479.616
 57.270   1817.608   1880.158    -62.550    479.672   1853.409    479.672    506.745    479.672
 57.370   1517.000   1553.854    -36.854    479.729   1524.581    479.729    509.264    479.729
 57.470   1274.000   1269.889      4.111    479.786   1237.798    479.786    512.076    479.786
 57.570    999.000   1048.455    -49.455    479.845   1013.233    479.845    515.209    479.845
 57.670    886.000    891.638     -5.638    479.904    852.950    479.904    518.689    479.904
 57.770    785.318    790.452     -5.134    479.965    747.941    479.965    522.540    479.965
 57.870    758.000    731.814     26.186    480.027    685.104    480.027    526.780    480.027
 57.970    703.000    703.740     -0.740    480.090    652.442    480.090    531.416    480.090
 58.070    743.000    697.969     45.031    480.153    641.698    480.153    536.442    480.153
 58.170    688.000    710.334    -22.334    480.218    648.735    480.218    541.828    480.218
 58.270    725.000    739.689    -14.689    480.283    672.465    480.283    547.509    480.283
 58.370    730.000    786.188    -56.188    480.350    713.150    480.350    553.383    480.350
 58.470    785.000    849.475    -64.475    480.417    770.592    480.417    559.289    480.417
 58.570    882.000    927.075    -45.075    480.486    842.534    480.486    565.011    480.486
 58.670    925.000   1013.274    -88.274    480.555    923.537    480.555    570.277    480.555
 58.770   1149.000   1099.445     49.555    480.625   1005.286    480.625    574.775    480.625
 58.870   1164.000   1176.716    -12.716    480.696   1079.224    480.696    578.191    480.696
 58.970   1287.000   1238.309     48.691    480.768   1138.838    480.768    580.255    480.768
 59.070   1241.891   1278.190    -36.299    480.841   1178.269    480.841    580.793    480.841
 59.170   1352.452   1290.306     62.146    480.914   1191.503    480.914    579.762    480.914
 59.270   1270.000   1273.450     -3.450    480.989   1177.226    480.989    577.263    480.989
 59.370   1327.000   1235.913     91.087    481.064   1143.506    481.064    573.517    481.064
 59.470   1230.000   1191.939     38.061    481.140   1104.287    481.140    568.820    481.140
 59.570   1107.217   1155.237    -48.020    481.217   1072.962    481.217    563.491    481.217
 59.670   1130.000   1136.926     -6.926    481.294   1060.355    481.294    557.828    481.294
 59.770   1193.000   1146.248     46.752    481.373   1075.458    481.373    552.083    481.373
 59.870   1233.004   1189.143     43.861    481.452   1124.022    481.452    546.447    481.452
 59.970   1243.382   1264.227    -20.844    481.532   1204.536    481.532    541.055    481.532
 60.070   1354.413   1359.611     -5.198    481.612   1305.031    481.612    535.994    481.612
 60.170   1496.000   1452.602     43.398    481.694   1402.774    481.694    531.311    481.694
 60.270   1469.738   1513.288    -43.550    481.776   1467.839    481.776    527.026    481.776
 60.370   1594.000   1514.706     79.294    481.858   1473.260    481.858    523.138    481.858
 60.470   1489.000   1447.665     41.335    481.942   1409.847    481.942    519.636    481.942
 60.570   1275.275   1326.587    -51.312    482.026   1292.032    482.026    516.500    482.026
 60.670   1182.867   1178.806      4.061    482.110   1147.165    482.110    513.703    482.110
 60.770   1016.465   1030.484    -14.020    482.196   1001.436    482.196    511.219    482.196
 60.870    867.000    900.000    -33.000    482.282    873.250    482.282    509.019    482.282
 60.970    760.000    797.051    -37.051    482.368    772.334    482.368    507.078    482.368
 61.070    704.000    724.189    -20.189    482.456    701.271    482.456    505.367    482.456
 61.170    706.000    679.529     26.471    482.543    658.202    482.543    503.861    482.543
 61.270    630.000    659.750    -29.750    482.632    639.829    482.632    502.536    482.632
 61.370    616.826    662.489    -45.664    482.721    643.815    482.721    501.369    482.721
 61.470    714.000    687.481     26.519    482.810    669.913    482.810    500.339    482.810
 61.570    751.687    736.247     15.440    482.900    719.665    482.900    499.426    482.900
 61.670    759.283    810.547    -51.264    482.991    794.850    482.991    498.612    482.991
 61.770    893.408    910.041    -16.633    483.082    895.147    483.082    497.881    483.082
 61.870   1072.634   1029.852     42.782    483.173   1015.697    483.173    497.218    483.173
 61.970   1083.000   1158.676    -75.676    483.265   1145.212    483.265    496.611    483.265
 62.070   1308.744   1277.961     30.783    483.358   1265.155    483.358    496.051    483.358
 62.170   1367.000   1363.482      3.518    483.451   1351.309    483.451    495.530    483.451
 62.270   1436.532   1392.249     44.283    483.544   1380.685    483.544    495.046    483.544
 62.370   1322.000   1354.827    -32.827    483.638   1343.841    483.638    494.594    483.638
 62.470   1239.708   1262.109    -22.401    483.733   1251.662    483.733    494.173    483.733
 62.570   1147.823   1137.642     10.181    483.827   1127.696    483.827    493.783    483.827
 62.670   1011.000   1005.307      5.693    483.922    995.825    483.922    493.423    483.922
 62.770    927.340    882.856     44.484    484.018    873.802    484.018    493.091    484.018
 62.870    740.000    780.634    -40.634    484.114    771.976    484.114    492.788    484.114
 62.970    711.000    702.378      8.622    484.210    694.089    484.210    492.512    484.210
 63.070    626.000    646.932    -20.932    484.306    638.985    484.306    492.261    484.306
 63.170    566.861    610.356    -43.495    484.403    602.728    484.403    492.035    484.403
 63.270    589.129    587.887      1.242    484.500    580.556    484.500    491.833    484.500
 63.370    548.000    575.319    -27.319    484.598    568.264    484.598    491.651    484.598
 63.470    611.510    569.697     41.813    484.696    562.898    484.696    491.490    484.696
 63.570    631.000    569.494     61.506    484.794    562.934    484.794    491.348    484.794
 63.670    588.000    574.495     13.505    484.892    568.154    484.892    491.223    484.892
 63.770    578.000    585.539     -7.539    484.991    579.401    484.991    491.114    484.991
 63.870    641.291    604.193     37.098    485.089    598.240    485.089    491.020    485.089
 63.970    649.000    632.294     16.706    485.188    626.510    485.188    490.940    485.188
 64.070    695.000    671.334     23.666    485.288    665.706    485.288    490.873    485.288
 64.170    713.385    721.720     -8.335    485.387    716.233    485.387    490.819    485.387
 64.270    809.000    781.977     27.023    485.487    776.619    485.487    490.775    485.487
 64.370    859.000    848.043     10.957    485.587    842.808    485.587    490.741    485.587
 64.470    930.000    912.835     17.165    485.687    907.717    485.687    490.718    485.687
 64.570    979.000    966.654     12.346    485.787    961.652    485.787    490.703    485.787
 64.670   1018.204    999.542     18.663    485.887    994.655    485.887    490.697    485.887
 64.770   1028.000   1005.424     22.576    485.987   1000.651    485.987    490.698    485.987
 64.870    934.000    984.840    -50.840    486.088    980.179    486.088    490.707    486.088
 64.970    966.000    943.869     22.131    486.188    939.313    486.188    490.723    486.188
 65.070    883.000    891.153     -8.153    486.289    886.695    486.289    490.746    486.289
 65.170    840.000    835.123      4.877    486.389    830.754    486.389    490.775    486.389
 65.270    768.000    782.004    -14.004    486.490    777.715    486.490    490.809    486.490
 65.370    751.000    735.044     15.956    486.591    730.824    486.591    490.850    486.591
 65.470    665.000    695.042    -30.042    486.692    690.879    486.692    490.896    486.692
 65.570    657.869    661.606     -3.737    486.792    657.492    486.792    490.946    486.792
 65.670    594.000    634.182    -40.182    486.893    630.108    486.893    491.002    486.893
 65.770    607.000    612.278     -5.278    486.994    608.238    486.994    491.063    486.994
 65.870    549.000    595.342    -46.342    487.095    591.331    487.095    491.128    487.095
 65.970    569.407    582.739    -13.332    487.195    578.753    487.195    491.198    487.195
 66.070    564.421    573.833     -9.412    487.296    569.869    487.296    491.272    487.296
 66.170    590.000    568.053     21.947    487.397    564.108    487.397    491.351    487.397
 66.270    512.000    564.911    -52.911    487.497    560.982    487.497    491.433    487.497
 66.370    545.000    564.023    -19.023    487.597    560.108    487.597    491.520    487.597
 66.470    573.000    565.138      7.862    487.698    561.231    487.698    491.611    487.698
 66.570    579.512    568.198     11.314    487.798    564.297    487.798    491.706    487.798
 66.670    562.000    573.451    -11.451    487.898    569.552    487.898    491.806    487.898
 66.770    549.713    581.605    -31.893    487.998    577.704    487.998    491.909    487.998
 66.870    597.000    594.072      2.928    488.097    590.164    488.097    492.017    488.097
 66.970    591.464    613.267    -21.803    488.197    609.348    488.197    492.128    488.197
 67.070    643.000    642.944      0.056    488.296    639.010    488.296    492.244    488.296
 67.170    684.730    688.384     -3.654    488.395    684.431    488.395    492.364    488.395
 67.270    744.000    756.265    -12.265    488.494    752.290    488.494    492.489    488.494
 67.370    851.505    853.934     -2.430    488.593    849.936    488.593    492.619    488.593
 67.470   1009.331    987.947     21.384    488.691    983.925    488.691    492.753    488.691
 67.570   1123.000   1161.914    -38.914    488.790   1157.871    488.790    492.892    488.790
 67.670   1406.305   1374.009     32.296    488.888   1369.950    488.888    493.036    488.888
 67.770   1586.000   1614.637    -28.637    488.985   1610.568    488.985    493.185    488.985
 67.870   1890.000   1864.719     25.281    489.083   1860.646    489.083    493.340    489.083
 67.970   2143.000   2095.125     47.875    489.180   2091.053    489.180    493.501    489.180
 68.070   2291.000   2268.998     22.002    489.276   2264.926    489.276    493.668    489.276
 68.170   2332.000   2350.526    -18.526    489.373   2346.444    489.373    493.842    489.373
 68.270   2207.000   2320.244   -113.244    489.469   2316.127    489.469    494.022    489.469
 68.370   2253.000   2185.941     67.059    489.565   2181.750    489.565    494.211    489.565
 68.470   2060.000   1977.833     82.167    489.660   1973.526    489.660    494.407    489.660
 68.570   1827.000   1733.597     93.403    489.755   1729.138    489.755    494.611    489.755
 68.670   1464.000   1486.384    -22.384    489.849   1481.749    489.849    494.825    489.849
 68.770   1342.000   1259.968     82.032    489.943   1255.139    489.943    495.049    489.943
 68.870   1118.000   1068.209     49.791    490.037   1063.178    490.037    495.283    490.037
 68.970    890.213    916.305    -26.092    490.130    911.068    490.130    495.529    490.130
 69.070    756.737    802.883    -46.146    490.223    797.435    490.223    495.787    490.223
 69.170    732.000    722.481      9.519    490.316    716.819    490.316    496.060    490.316
 69.270    688.000    667.913     20.087    490.407    662.032    490.407    496.348    490.407
 69.370    638.656    632.070      6.586    490.499    625.958    490.499    496.652    490.499
 69.470    648.000    608.964     39.036    490.590    602.609    490.590    496.976    490.590
 69.570    602.572    594.114      8.458    490.680    587.499    490.680    497.319    490.680
 69.670    577.000    584.466     -7.466    490.770    577.568    490.770    497.686    490.770
 69.770    570.000    578.093     -8.093    490.859    570.888    490.859    498.080    490.859
 69.870    572.000    573.857     -1.857    490.948    566.317    490.948    498.502    490.948
 69.970    570.000    571.126     -1.126    491.036    563.216    491.036    498.958    491.036
 70.070    587.000    569.567     17.433    491.124    561.248    491.124    499.453    491.124
 70.170    564.000    569.028     -5.028    491.211    560.257    491.211    499.992    491.211
 70.270    598.865    569.480     29.384    491.297    560.204    491.297    500.581    491.297
 70.370    571.281    571.002      0.279    491.383    561.162    491.383    501.230    491.383
 70.470    601.000    573.813     27.187    491.468    563.340    491.468    501.947    491.468
 70.570    572.000    578.342     -6.342    491.553    567.155    491.553    502.743    491.553
 70.670    611.043    585.337     25.706    491.637    573.343    491.637    503.632    491.637
 70.770    619.000    596.024     22.976    491.720    583.114    491.720    504.629    491.720
 70.870    610.000    612.275     -2.275    491.803    598.322    491.803    505.750    491.803
 70.970    684.134    636.750     47.384    491.884    621.609    491.884    507.015    491.884
 71.070    652.000    672.930    -20.930    491.966    656.432    491.966    508.445    491.966
 71.170    721.000    724.921     -3.921    492.046    706.875    492.046    510.064    492.046
 71.270    746.000    796.951    -50.951    492.126    777.142    492.126    511.894    492.126
 71.370    921.000    892.509     28.491    492.205    870.696    492.205    513.964    492.205
 71.470   1049.863   1013.193     36.670    492.283    989.110    492.283    516.297    492.283
 71.570   1121.000   1157.447    -36.447    492.361   1130.804    492.361    518.920    492.361
 71.670   1285.000   1319.412    -34.412    492.437   1289.902    492.437    521.854    492.437
 71.770   1482.281   1488.102     -5.821    492.513   1455.400    492.513    525.118    492.513
 71.870   1656.000   1647.124      8.876    492.589   1610.897    492.589    528.723    492.589
 71.970   1749.000   1775.688    -26.688    492.663   1735.606    492.663    532.670    492.663
 72.070   1837.000   1852.400    -15.400    492.736   1808.147    492.736    536.944    492.736
 72.170   1932.000   1862.416     69.584    492.809   1813.705    492.809    541.509    492.809
 72.270   1778.957   1804.371    -25.414    492.881   1750.976    492.881    546.297    492.881
 72.370   1693.000   1691.097      1.903    492.952   1632.895    492.952    551.201    492.952
 72.470   1519.140   1543.343    -24.203    493.022   1480.358    493.022    556.068    493.022
 72.570   1499.000   1382.175    116.825    493.091   1314.644    493.091    560.690    493.091
 72.670   1204.000   1224.573    -20.573    493.160   1152.985    493.160    564.814    493.160
 72.770   1100.000   1082.113     17.887    493.227   1007.241    493.227    568.160    493.227
 72.870    966.000    961.167      4.833    493.294    884.053    493.294    570.462    493.294
 72.970    817.000    863.721    -46.721    493.359    785.612    493.359    571.513    493.359
 73.070    775.000    788.533    -13.533    493.424    710.777    493.424    571.217    493.424
 73.170    753.000    732.418     20.582    493.488    656.326    493.488    569.609    493.488
 73.270    646.285    691.411    -45.126    493.551    618.137    493.551    566.849    493.551
 73.370    701.000    661.644     39.356    493.612    592.097    493.612    563.180    493.612
 73.470    632.000    639.861     -7.861    493.673    574.671    493.673    558.882    493.673
 73.570    591.000    623.605    -32.605    493.733    563.132    493.733    554.223    493.733
 73.670    647.461    611.188     36.274    493.792    555.562    493.792    549.434    493.792
 73.770    556.000    601.541    -45.541    493.850    550.714    493.850    544.694    493.850
 73.870    561.000    594.030    -33.030    493.907    547.825    493.907    540.131    493.907
 73.970    555.000    588.284    -33.284    493.963    546.438    493.963    535.830    493.963
 74.070    580.401    584.055     -3.654    494.017    546.257    494.017    531.841    494.017
 74.170    629.000    581.124     47.876    494.071    547.037    494.071    528.188    494.071
 74.270    545.001    579.235    -34.234    494.124    548.515    494.124    524.879    494.124
 74.370    566.033    578.056    -12.023    494.175    550.367    494.175    521.905    494.175
 74.470    638.000    577.166     60.834    494.226    552.185    494.226    519.251    494.226
 74.570    536.680    576.078    -39.398    494.275    553.505    494.275    516.898    494.275
 74.670    670.000    574.326     95.674    494.323    553.881    494.323    514.820    494.323
 74.770    622.000    571.606     50.394    494.370    553.036    494.370    512.992    494.370
 74.870    531.074    567.910    -36.836    494.416    550.987    494.416    511.389    494.416
 74.970    527.853    563.523    -35.670    494.461    548.045    494.461    509.985    494.461
 75.070    548.720    558.922    -10.201    494.505    544.710    494.505    508.756    494.505
 75.170    604.000    554.626     49.374    494.548    541.527    494.548    507.679    494.548
 75.270    619.000    551.148     67.852    494.589    539.026    494.589    506.736    494.589
 75.370    508.997    548.977    -39.981    494.629    537.718    494.629    505.908    494.629
 75.470    574.000    548.595     25.405    494.668    538.098    494.668    505.178    494.668
 75.570    556.000    550.475      5.525    494.706    540.655    494.706    504.533    494.706
 75.670    541.000    555.077    -14.077    494.743    545.860    494.743    503.960    494.743
 75.770    595.000    562.801     32.199    494.778    554.123    494.778    503.450    494.778
 75.870    565.324    573.915     -8.591    494.812    565.721    494.812    502.994    494.812
 75.970    651.000    588.456     62.544    494.845    580.698    494.845    502.584    494.845
 76.070    596.000    606.114    -10.114    494.877    598.750    494.877    502.214    494.877
 76.170    627.000    626.136      0.864    494.908    619.130    494.908    501.879    494.908
 76.270    643.000    647.243     -4.243    494.937    640.565    494.937    501.574    494.937
 76.370    648.988    667.604    -18.616    494.965    661.227    494.965    501.296    494.965
 76.470    728.428    684.885     43.543    494.991    678.786    494.991    501.041    494.991
 76.570    672.258    696.530    -24.272    495.017    690.690    495.017    500.807    495.017
 76.670    697.568    700.406     -2.838    495.041    694.809    495.041    500.591    495.041
 76.770    683.000    695.650    -12.650    495.063    690.280    495.063    500.391    495.063
 76.870    628.000    683.085    -55.085    495.085    677.928    495.085    500.206    495.085
 76.970    667.000    664.812      2.188    495.105    659.854    495.105    500.034    495.105
 77.070    633.000    643.363    -10.363    495.124    638.591    495.124    499.875    495.124
 77.170    637.000    621.048     15.952    495.141    616.448    495.141    499.725    495.141
 77.270    624.634    599.668     24.966    495.157    595.229    495.157    499.586    495.157
 77.370    573.194    580.452     -7.258    495.172    576.162    495.172    499.455    495.172
 77.470    530.444    564.090    -33.646    495.185    559.939    495.185    499.332    495.185
 77.570    529.000    550.809    -21.809    495.197    546.787    495.197    499.217    495.197
 77.670    496.000    540.480    -44.480    495.208    536.579    495.208    499.108    495.208
 77.770    497.000    532.746    -35.746    495.217    528.957    495.217    499.005    495.217
 77.870    527.000    527.134     -0.134    495.224    523.451    495.224    498.908    495.224
 77.970    531.000    523.159      7.841    495.231    519.575    495.231    498.815    495.231
 78.070    564.177    520.384     43.793    495.236    516.892    495.236    498.727    495.236
 78.170    517.000    518.453     -1.453    495.239    515.049    495.239    498.644    495.239
 78.270    507.207    517.101     -9.894    495.241    513.779    495.241    498.564    495.241
 78.370    509.000    516.141     -7.141    495.242    512.896    495.242    498.488    495.242
 78.470    506.961    515.452     -8.491    495.241    512.279    495.241    498.415    495.241
 78.570    492.000    514.960    -22.960    495.239    511.854    495.239    498.345    495.239
 78.670    481.000    514.625    -33.625    495.235    511.583    495.235    498.277    495.235
 78.770    530.077    514.431     15.647    495.230    511.448    495.230    498.213    495.230
 78.870    509.000    514.377     -5.377    495.223    511.450    495.223    498.150    495.223
 78.970    489.977    514.475    -24.498    495.215    511.600    495.215    498.090    495.215
 79.070    511.515    514.745     -3.230    495.205    511.919    495.205    498.032    495.205
 79.170    506.000    515.215     -9.215    495.194    512.433    495.194    497.975    495.194
 79.270    575.000    515.914     59.086    495.181    513.174    495.181    497.921    495.181
 79.370    498.923    516.879    -17.956    495.167    514.178    495.167    497.867    495.167
 79.470    545.000    518.152     26.848    495.151    515.486    495.151    497.816    495.151
 79.570    535.000    519.781     15.219    495.134    517.148    495.134    497.765    495.134
 79.670    534.000    521.833     12.167    495.115    519.231    495.115    497.716    495.115
 79.770    491.000    524.402    -33.402    495.094    521.827    495.094    497.667    495.094
 79.870    506.000    527.614    -21.614    495.072    525.065    495.072    497.619    495.072
 79.970    541.515    531.648      9.867    495.049    529.122    495.049    497.572    495.049
 80.070    563.000    536.739     26.261    495.024    534.236    495.024    497.525    495.024
 80.170    509.000    543.197    -34.197    494.997    540.716    494.997    497.477    494.997
 80.270    545.000    551.399     -6.399    494.969    548.939    494.969    497.430    494.969
 80.370    596.191    561.750     34.440    494.939    559.312    494.939    497.381    494.939
 80.470    589.564    574.595     14.969    494.908    572.178    494.908    497.331    494.908
 80.570    635.000    590.111     44.889    494.875    587.717    494.875    497.279    494.875
 80.670    593.000    608.205    -15.205    494.841    605.835    494.841    497.225    494.841
 80.770    597.000    628.412    -31.412    494.804    626.068    494.804    497.168    494.804
 80.870    639.000    650.019    -11.019    494.767    647.703    494.767    497.109    494.767
 80.970    628.061    671.867    -43.806    494.727    669.581    494.727    497.046    494.727
 81.070    691.000    692.630     -1.630    494.686    690.375    494.686    496.981    494.686
 81.170    681.000    710.990    -29.990    494.644    708.768    494.644    496.914    494.644
 81.270    671.000    725.810    -54.810    494.599    723.621    494.599    496.844    494.599
 81.370    784.000    736.217     47.783    494.554    734.061    494.554    496.772    494.554
 81.470    755.000    741.663     13.337    494.506    739.540    494.506    496.699    494.506
 81.570    762.000    741.969     20.031    494.457    739.877    494.457    496.624    494.457
 81.670    694.000    737.307    -43.307    494.406    735.243    494.406    496.548    494.406
 81.770    697.000    728.130    -31.130    494.354    726.093    494.354    496.471    494.354
 81.870    698.000    715.158    -17.158    494.300    713.145    494.300    496.394    494.300
 81.970    748.975    699.376     49.599    494.244    697.384    494.244    496.316    494.244
 82.070    704.302    681.931     22.371    494.186    679.957    494.186    496.238    494.186
 82.170    682.000    663.905     18.095    494.127    661.948    494.127    496.159    494.127
 82.270    688.000    646.115     41.885    494.066    644.171    494.066    496.080    494.066
 82.370    579.000    629.049    -50.049    494.004    627.117    494.004    496.000    494.004
 82.470    644.872    612.965     31.906    493.940    611.043    493.940    495.920    493.940
 82.570    539.000    598.046    -59.046    493.874    596.132    493.874    495.840    493.874
 82.670    577.000    584.494     -7.494    493.807    582.586    493.807    495.759    493.807
 82.770    565.023    572.551     -7.528    493.737    570.647    493.737    495.678    493.737
 82.870    527.000    562.437    -35.437    493.666    560.537    493.666    495.596    493.666
 82.970    520.000    554.324    -34.324    493.594    552.426    493.594    495.513    493.594
 83.070    540.000    548.316     -8.316    493.520    546.419    493.520    495.430    493.520
 83.170    580.000    544.444     35.556    493.444    542.546    493.444    495.346    493.444
 83.270    522.000    542.657    -20.657    493.366    540.759    493.366    495.262    493.366
 83.370    519.000    542.815    -23.815    493.286    540.915    493.286    495.177    493.286
 83.470    539.000    544.678     -5.678    493.205    542.775    493.205    495.090    493.205
 83.570    580.327    547.898     32.428    493.122    545.992    493.122    495.003    493.122
 83.670    578.628    552.026     26.602    493.038    550.117    493.038    494.915    493.038
 83.770    547.000    556.517     -9.517    492.952    554.604    492.952    494.827    492.952
 83.870    551.105    560.753     -9.648    492.864    558.838    492.864    494.737    492.864
 83.970    561.000    564.092     -3.092    492.774    562.175    492.774    494.646    492.774
 84.070    600.155    565.948     34.207    492.682    564.030    492.682    494.554    492.682
 84.170    565.000    565.916     -0.916    492.589    563.998    492.589    494.462    492.589
 84.270    553.044    563.883    -10.840    492.494    561.967    492.494    494.368    492.494
 84.370    549.708    560.052    -10.344    492.398    558.138    492.398    494.273    492.398
 84.470    536.817    554.854    -18.038    492.299    552.942    492.299    494.177    492.299
 84.570    527.000    548.818    -21.818    492.199    546.908    492.199    494.080    492.199
 84.670    547.000    542.456      4.544    492.097    540.547    492.097    493.982    492.097
 84.770    555.000    536.207     18.793    491.994    534.298    491.994    493.883    491.994
 84.870    519.438    530.405    -10.967    491.889    528.495    491.889    493.783    491.889
 84.970    543.847    525.276     18.571    491.782    523.364    491.782    493.681    491.782
 85.070    503.000    520.944    -17.944    491.673    519.028    491.673    493.579    491.673
 85.170    503.000    517.442    -14.442    491.562    515.521    491.562    493.475    491.562
 85.270    524.000    514.738      9.262    491.450    512.811    491.450    493.371    491.450
 85.370    543.000    512.758     30.242    491.336    510.824    491.336    493.265    491.336
 85.470    492.000    511.408    -19.408    491.220    509.465    491.220    493.158    491.220
 85.570    524.000    510.597     13.403    491.103    508.644    491.103    493.050    491.103
 85.670    499.610    510.252    -10.642    490.984    508.289    490.984    492.942    490.984
 85.770    551.000    510.328     40.672    490.863    508.353    490.863    492.832    490.863
 85.870    525.000    510.817     14.183    490.740    508.830    490.740    492.721    490.740
 85.970    475.543    511.749    -36.205    490.616    509.747    490.616    492.609    490.616
 86.070    521.000    513.189      7.811    490.489    511.173    490.489    492.496    490.489
 86.170    487.000    515.241    -28.241    490.361    513.208    490.361    492.382    490.361
 86.270    459.000    518.032    -59.032    490.232    515.981    490.232    492.267    490.232
 86.370    517.312    521.709     -4.398    490.100    519.638    490.100    492.151    490.100
 86.470    524.000    526.416     -2.416    489.967    524.323    489.967    492.034    489.967
 86.570    524.984    532.274     -7.290    489.832    530.157    489.832    491.917    489.832
 86.670    551.000    539.355     11.645    489.696    537.212    489.696    491.798    489.696
 86.770    586.584    547.652     38.931    489.558    545.482    489.558    491.679    489.558
 86.870    607.000    557.050     49.950    489.418    554.850    489.418    491.559    489.418
 86.970    601.365    567.299     34.065    489.276    565.068    489.276    491.438    489.276
 87.070    572.000    577.998     -5.998    489.132    575.735    489.132    491.317    489.132
 87.170    576.000    588.586    -12.586    488.987    586.292    488.987    491.194    488.987
 87.270    610.000    598.359     11.641    488.840    596.033    488.840    491.072    488.840
 87.370    655.000    606.509     48.491    488.692    604.153    488.692    490.948    488.692
 87.470    639.000    612.240     26.760    488.541    609.857    488.541    490.824    488.541
 87.570    590.026    614.943    -24.917    488.389    612.534    488.389    490.700    488.389
 87.670    657.645    614.372     43.273    488.235    611.939    488.235    490.575    488.235
 87.770    575.105    610.728    -35.623    488.080    608.274    488.080    490.450    488.080
 87.870    644.000    604.588     39.412    487.923    602.112    487.923    490.325    487.923
 87.970    583.154    596.745    -13.591    487.764    594.247    487.764    490.199    487.764
 88.070    583.001    588.059     -5.058    487.603    585.539    487.603    490.073    487.603
 88.170    660.000    579.360     80.640    487.441    576.814    487.441    489.948    487.441
 88.270    602.490    571.385     31.105    487.277    568.812    487.277    489.822    487.277
 88.370    577.000    564.737     12.263    487.111    562.133    487.111    489.697    487.111
 88.470    528.000    559.857    -31.857    486.944    557.220    486.944    489.572    486.944
 88.570    580.000    557.008     22.992    486.775    554.336    486.775    489.448    486.775
 88.670    522.000    556.274    -34.274    486.604    553.563    486.604    489.324    486.604
 88.770    579.598    557.562     22.035    486.432    554.810    486.432    489.201    486.432
 88.870    590.000    560.621     29.379    486.258    557.824    486.258    489.079    486.258
 88.970    582.000    565.052     16.948    486.082    562.208    486.082    488.959    486.082
 89.070    546.751    570.337    -23.586    485.905    567.443    485.905    488.840    485.905
 89.170    589.325    575.858     13.467    485.726    572.910    485.726    488.722    485.726
 89.270    602.912    580.935     21.978    485.545    577.928    485.545    488.607    485.545
 89.370    574.000    584.876    -10.876    485.363    581.806    485.363    488.495    485.363
 89.470    552.977    587.076    -34.099    485.179    583.936    485.179    488.385    485.179
 89.570    578.000    587.122     -9.122    484.994    583.905    484.994    488.278    484.994
 89.670    526.000    584.893    -58.893    484.807    581.593    484.807    488.175    484.807
 89.770    556.000    580.578    -24.578    484.618    577.186    484.618    488.077    484.618
 89.870    535.679    574.599    -38.920    484.427    571.107    484.427    487.983    484.427
 89.970    572.000    567.495      4.505    484.235    563.893    484.235    487.895    484.235
 90.070    533.103    559.813    -26.710    484.042    556.094    484.042    487.812    484.042
 90.170    520.000    552.046    -32.046    483.847    548.200    483.847    487.737    483.847
 90.270    568.000    544.596     23.404    483.650    540.614    483.650    487.670    483.650
 90.370    489.000    537.766    -48.766    483.452    533.638    483.452    487.611    483.452
 90.470    480.000    531.757    -51.757    483.252    527.473    483.252    487.561    483.252
 90.570    543.000    526.679     16.321    483.050    522.227    483.050    487.522    483.050
 90.670    534.005    522.561     11.444    482.847    517.929    482.847    487.495    482.847
 90.770    505.000    519.371    -14.371    482.643    514.545    482.643    487.480    482.643
 90.870    488.000    517.038    -29.038    482.437    512.004    482.437    487.480    482.437
 90.970    530.000    515.470     14.530    482.229    510.212    482.229    487.494    482.229
 91.070    470.897    514.576    -43.679    482.020    509.076    482.020    487.524    482.020
 91.170    546.160    514.258     31.902    481.809    508.499    481.809    487.572    481.809
 91.270    473.195    514.504    -41.310    481.597    508.465    481.597    487.638    481.597
 91.370    490.000    515.285    -25.285    481.383    508.944    481.383    487.724    481.383
 91.470    493.173    516.615    -23.442    481.168    509.952    481.168    487.831    481.168
 91.570    519.374    518.556      0.818    480.951    511.546    480.951    487.959    480.951
 91.670    502.000    521.207    -19.207    480.733    513.827    480.733    488.110    480.733
 91.770    530.000    524.704      5.296    480.514    516.928    480.514    488.284    480.514
 91.870    493.775    529.211    -35.435    480.293    521.013    480.293    488.482    480.293
 91.970    574.000    534.910     39.090    480.070    526.266    480.070    488.703    480.070
 92.070    547.000    541.990      5.010    479.846    532.874    479.846    488.948    479.846
 92.170    593.000    550.626     42.374    479.621    541.013    479.621    489.216    479.621
 92.270    517.000    560.961    -43.961    479.394    550.829    479.394    489.503    479.394
 92.370    528.000    573.086    -45.086    479.166    562.415    479.166    489.809    479.166
 92.470    603.000    587.015     15.985    478.936    575.789    478.936    490.130    478.936
 92.570    623.000    602.671     20.329    478.705    590.877    478.705    490.460    478.705
 92.670    622.000    619.864      2.136    478.473    607.499    478.473    490.794    478.473
 92.770    651.000    638.282     12.718    478.239    625.349    478.239    491.123    478.239
 92.870    669.059    657.484     11.574    478.004    643.997    478.004    491.439    478.004
 92.970    645.222    676.913    -31.692    477.768    662.895    477.768    491.729    477.768
 93.070    690.000    695.938     -5.938    477.530    681.426    477.530    491.982    477.530
 93.170    669.670    713.944    -44.274    477.291    698.990    477.291    492.185    477.291
 93.270    756.000    730.453     25.547    477.051    715.118    477.051    492.325    477.051
 93.370    739.015    745.222     -6.207    476.809    729.582    476.809    492.390    476.809
 93.470    753.659    758.273     -4.615    476.566    742.412    476.566    492.370    476.566
 93.570    755.216    769.818    -14.602    476.322    753.827    476.322    492.258    476.322
 93.670    762.000    780.137    -18.137    476.077    764.110    476.077    492.051    476.077
 93.770    797.000    789.482      7.518    475.830    773.514    475.830    491.749    475.830
 93.870    825.000    798.060     26.940    475.582    782.239    475.582    491.356    475.582
 93.970    777.181    806.083    -28.902    475.333    790.490    475.333    490.883    475.333
 94.070    834.448    813.836     20.612    475.083    798.541    475.083    490.338    475.083
 94.170    879.000    821.674     57.326    474.831    806.733    474.831    489.734    474.831
 94.270    840.000    829.930     10.070    474.578    815.389    474.578    489.085    474.578
 94.370    856.422    838.741     17.681    474.324    824.630    474.324    488.404    474.324
 94.470    905.085    847.918     57.168    474.069    834.256    474.069    487.703    474.069
 94.570    893.000    856.883     36.117    473.813    843.680    473.813    486.992    473.813
 94.670    851.373    864.693    -13.320    473.556    851.950    473.556    486.281    473.556
 94.770    868.072    870.141     -2.070    473.298    857.849    473.298    485.578    473.298
 94.870    890.000    871.934     18.066    473.038    860.079    473.038    484.888    473.038
 94.970    896.618    868.953     27.665    472.778    857.516    472.778    484.216    472.778
 95.070    885.000    860.539     24.461    472.516    849.498    472.516    483.567    472.516
 95.170    794.892    846.694    -51.802    472.253    836.022    472.253    482.942    472.253
 95.270    859.000    828.104     30.896    471.990    817.773    471.990    482.343    471.990
 95.370    811.021    805.999      5.023    471.725    795.978    471.725    481.771    471.725
 95.470    755.414    782.059    -26.645    471.459    772.318    471.459    481.227    471.459
 95.570    707.038    757.952    -50.914    471.193    748.461    471.193    480.711    471.193
 95.670    747.000    735.370     11.630    470.925    726.098    470.925    480.223    470.925
 95.770    707.000    715.913     -8.913    470.656    706.829    470.656    479.763    470.656
 95.870    674.440    701.038    -26.598    470.387    692.114    470.387    479.329    470.387
 95.970    698.000    692.030      5.970    470.116    683.237    470.116    478.923    470.116
 96.070    684.000    689.985     -5.985    469.845    681.294    469.845    478.542    469.845
 96.170    671.049    695.827    -24.778    469.573    687.213    469.573    478.188    469.573
 96.270    723.000    710.256     12.744    469.300    701.692    469.300    477.858    469.300
 96.370    690.690    733.753    -43.063    469.026    725.213    469.026    477.553    469.026
 96.470    778.000    766.549     11.451    468.751    758.009    468.751    477.272    468.751
 96.570    820.000    808.581     11.419    468.475    800.017    468.475    477.015    468.475
 96.670    888.000    859.427     28.573    468.199    850.815    468.199    476.781    468.199
 96.770    890.977    918.240    -27.262    467.922    909.557    467.922    476.572    467.922
 96.870   1019.110    983.687     35.423    467.644    974.911    467.644    476.387    467.644
 96.970   1064.000   1053.900     10.100    467.365   1045.007    467.365    476.227    467.365
 97.070   1105.000   1126.444    -21.444    467.086   1117.412    467.086    476.091    467.086
 97.170   1151.000   1198.330    -47.330    466.805   1189.134    466.805    475.982    466.805
 97.270   1230.000   1266.061    -36.061    466.525   1256.677    466.525    475.900    466.525
 97.370   1265.000   1325.791    -60.791    466.243   1316.193    466.243    475.846    466.243
 97.470   1401.000   1373.634     27.366    465.961   1363.795    465.961    475.823    465.961
 97.570   1476.000   1406.150     69.850    465.678   1396.039    465.678    475.832    465.678
 97.670   1461.470   1420.946     40.524    465.395   1410.528    465.395    475.875    465.395
 97.770   1432.615   1417.166     15.449    465.111   1406.402    465.111    475.955    465.111
 97.870   1366.000   1395.649    -29.649    464.827   1384.497    464.827    476.074    464.827
 97.970   1409.477   1358.685     50.792    464.542   1347.098    464.542    476.236    464.542
 98.070   1251.522   1309.510    -57.987    464.256   1297.437    464.256    476.444    464.256
 98.170   1298.164   1251.789     46.375    463.970   1239.176    463.970    476.702    463.970
 98.270   1241.827   1189.224     52.603    463.684   1176.013    463.684    477.013    463.684
 98.370   1159.000   1125.312     33.688    463.397   1111.442    463.397    477.381    463.397
 98.470    995.000   1063.216    -68.216    463.110   1048.622    463.110    477.810    463.110
 98.570    964.625   1005.705    -41.080    462.822    990.319    462.822    478.305    462.822
 98.670    962.000    955.139      6.861    462.534    938.890    462.534    478.870    462.534
 98.770    954.770    913.480     41.290    462.245    896.292    462.245    479.509    462.245
 98.870    915.778    882.307     33.470    461.956    864.102    461.956    480.226    461.956
 98.970    815.440    862.839    -47.399    461.667    843.535    461.667    481.026    461.667
 99.070    878.662    855.965     22.697    461.378    835.476    461.378    481.912    461.378
 99.170    860.000    862.319     -2.319    461.088    840.558    461.088    482.887    461.088
 99.270    879.000    882.211     -3.211    460.798    859.088    460.798    483.954    460.798
 99.370    951.429    915.700     35.729    460.508    891.123    460.508    485.116    460.508
 99.470    995.000    962.568     32.432    460.217    936.444    460.217    486.373    460.217
 99.570    976.000   1022.286    -46.286    459.926    994.523    459.926    487.726    459.926
 99.670   1072.000   1093.964    -21.964    459.636   1064.472    459.636    489.172    459.636
 99.770   1111.828   1176.292    -64.465    459.345   1144.985    459.345    490.709    459.345
 99.870   1249.000   1267.483    -18.483    459.054   1234.280    459.054    492.331    459.054
 99.970   1366.000   1365.218      0.782    458.763   1330.046    458.763    494.029    458.763
100.070   1564.000   1466.629     97.371    458.472   1429.427    458.472    495.793    458.472
100.170   1545.000   1568.341    -23.341    458.180   1529.063    458.180    497.605    458.180
100.270   1634.224   1666.616    -32.392    457.889   1625.236    457.889    499.447    457.889
100.370   1737.793   1757.616    -19.823    457.598   1714.133    457.598    501.293    457.598
100.470   1864.000   1837.750     26.250    457.307   1792.191    457.307    503.111    457.307
100.570   1979.772   1903.989     75.783    457.016   1856.414    457.016    504.867    457.016
100.670   2025.000   1954.014     70.986    456.725   1904.526    456.725    506.518    456.725
100.770   2025.422   1986.195     39.227    456.434   1934.940    456.434    508.019    456.434
100.870   1985.110   1999.472    -14.362    456.144   1946.643    456.144    509.322    456.144
100.970   1964.000   1993.342    -29.342    455.853   1939.178    455.853    510.381    455.853
101.070   1945.430   1968.050    -22.620    455.563   1912.833    455.563    511.152    455.563
101.170   1913.000   1924.869    -11.869    455.273   1868.918    455.273    511.598    455.273
101.270   1871.000   1866.267      4.733    454.983   1809.928    454.983    511.692    454.983
101.370   1826.000   1795.796     30.204    454.694   1739.428    454.694    511.420    454.694
101.470   1662.171   1717.683    -55.511    454.405   1661.648    454.405    510.782    454.405
101.570   1533.000   1636.295   -103.295    454.116   1580.941    454.116    509.793    454.116
101.670   1558.000   1555.657      2.343    453.828   1501.306    453.828    508.480    453.828
101.770   1560.000   1479.116     80.884    453.540   1426.055    453.540    506.880    453.540
101.870   1418.000   1409.179      8.821    453.252   1357.651    453.252    505.036    453.252
101.970   1414.055   1347.453     66.602    452.965   1297.658    452.965    502.995    452.965
102.070   1343.147   1294.671     48.477    452.679   1246.759    452.679    500.806    452.679
102.170   1247.000   1250.741     -3.741    452.393   1204.819    452.393    498.513    452.393
102.270   1227.477   1214.837     12.640    452.107   1170.970    452.107    496.159    452.107
102.370   1136.000   1185.506    -49.506    451.822   1143.723    451.822    493.778    451.822
102.470   1170.000   1160.823      9.177    451.538   1121.123    451.538    491.402    451.538
102.570   1173.418   1138.593     34.824    451.255   1100.950    451.255    489.057    451.255
102.670   1097.000   1116.615    -19.615    450.972   1080.980    450.972    486.762    450.972
102.770   1069.227   1092.968    -23.741    450.690   1059.277    450.690    484.532    450.690
102.870   1030.000   1066.275    -36.275    450.408   1034.452    450.408    482.380    450.408
102.970    979.000   1035.849    -56.849    450.128   1005.808    450.128    480.315    450.128
103.070    982.000   1001.672    -19.672    449.848    973.321    449.848    478.340    449.848
103.170    944.435    964.327    -19.892    449.569    937.571    449.569    476.461    449.569
103.270    903.000    924.681    -21.681    449.291    899.424    449.291    474.677    449.291
103.370    886.000    883.771      2.229    449.013    859.915    449.013    472.991    449.013
103.470    816.206    842.653    -26.446    448.737    820.103    448.737    471.399    448.737
103.570    838.027    802.309     35.718    448.462    780.973    448.462    469.901    448.462
103.670    781.000    763.599     17.401    448.188    743.387    448.188    468.492    448.188
103.770    705.502    727.229    -21.726    447.914    708.054    447.914    467.171    447.914
103.870    743.410    693.731     49.679    447.642    675.512    447.642    465.934    447.642
103.970    681.000    663.467     17.533    447.371    646.126    447.371    464.775    447.371
104.070    692.000    636.626     55.374    447.101    620.090    447.101    463.692    447.101
104.170    633.000    613.243     19.757    446.833    597.443    446.833    462.679    446.833
104.270    613.140    593.225     19.915    446.565    578.097    446.565    461.733    446.565
104.370    585.635    576.376      9.259    446.299    561.859    446.299    460.848    446.299
104.470    514.526    562.429    -47.903    446.034    548.469    446.034    460.022    446.034
104.570    517.505    551.080    -33.574    445.770    537.623    445.770    459.249    445.770
104.670    573.000    542.007     30.993    445.508    529.007    445.508    458.526    445.508
104.770    561.000    534.903     26.097    445.247    522.315    445.247    457.850    445.247
104.870    533.724    529.482      4.242    444.988    517.267    444.988    457.216    444.988
104.970    515.000    525.499    -10.499    444.730    513.618    444.730    456.621    444.730
105.070    538.000    522.753     15.247    444.474    511.172    444.474    456.062    444.474
105.170    526.000    521.087      4.913    444.219    509.774    444.219    455.537    444.219
105.270    546.000    520.392     25.608    443.965    509.319    443.965    455.042    443.965
105.370    564.705    520.603     44.102    443.714    509.742    443.714    454.576    443.714
105.470    494.738    521.691    -26.953    443.464    511.018    443.464    454.136    443.464
105.570    490.671    523.661    -32.990    443.215    513.153    443.215    453.721    443.215
105.670    541.000    526.545     14.455    442.969    516.181    442.969    453.328    442.969
105.770    545.000    530.395     14.605    442.724    520.156    442.724    452.956    442.724
105.870    559.949    535.271     24.678    442.481    525.138    442.481    452.605    442.481
105.970    505.426    541.230    -35.805    442.240    531.188    442.240    452.271    442.240
106.070    522.000    548.317    -26.317    442.000    538.348    442.000    451.956    442.000
106.170    531.664    556.547    -24.884    441.763    546.637    441.763    451.657    441.763
106.270    566.000    565.897      0.103    441.528    556.032    441.528    451.374    441.528
106.370    616.449    576.297     40.152    441.294    566.464    441.294    451.106    441.294
106.470    571.000    587.624    -16.624    441.063    577.809    441.063    450.853    441.063
106.570    646.365    599.697     46.668    440.834    589.890    440.834    450.614    440.834
106.670    631.864    612.281     19.583    440.607    602.469    440.607    450.389    440.607
106.770    613.000    625.084    -12.084    440.382    615.257    440.382    450.178    440.382
106.870    639.000    637.767      1.233    440.159    627.914    440.159    449.980    440.159
106.970    645.000    649.952     -4.952    439.939    640.063    439.939    449.796    439.939
107.070    628.000    661.242    -33.242    439.721    651.308    439.721    449.624    439.721
107.170    638.000    671.250    -33.250    439.505    661.260    439.505    449.465    439.505
107.270    714.228    679.641     34.588    439.292    669.584    439.292    449.320    439.292
107.370    693.000    686.178      6.822    439.081    676.045    439.081    449.187    439.081
107.470    619.000    690.769    -71.769    438.873    680.551    438.873    449.068    438.873
107.570    706.000    693.492     12.508    438.667    683.178    438.667    448.963    438.667
107.670    672.687    694.583    -21.895    438.463    684.162    438.463    448.871    438.463
107.770    691.000    694.397     -3.397    438.263    683.859    438.263    448.792    438.263
107.870    676.000    693.356    -17.356    438.065    682.688    438.065    448.728    438.065
107.970    667.000    691.884    -24.884    437.869    681.075    437.869    448.679    437.869
108.070    731.138    690.360     40.778    437.677    679.398    437.677    448.644    437.677
108.170    655.739    689.091    -33.352    437.487    677.962    437.487    448.625    437.487
108.270    673.845    688.280    -14.435    437.300    676.971    437.300    448.623    437.300
108.370    700.000    688.017     11.983    437.116    676.515    437.116    448.636    437.116
108.470    664.000    688.278    -24.278    436.934    676.568    436.934    448.668    436.934
108.570    671.000    688.927    -17.927    436.756    676.993    436.756    448.717    436.756
108.670    724.748    689.720     35.028    436.581    677.546    436.581    448.785    436.581
108.770    700.000    690.322      9.678    436.409    677.892    436.409    448.874    436.409
108.870    663.000    690.366    -27.366    436.240    677.660    436.240    448.984    436.240
108.970    711.000    689.442     21.558    436.074    676.442    436.074    449.116    436.074
109.070    658.527    687.194    -28.667    435.911    673.878    435.911    449.271    435.911
109.170    718.000    683.354     34.646    435.752    669.700    435.752    449.452    435.752
109.270    650.747    677.793    -27.047    435.596    663.777    435.596    449.659    435.596
109.370    684.000    670.538     13.462    435.443    656.133    435.443    449.895    435.443
109.470    619.000    661.754    -42.754    435.294    646.933    435.294    450.162    435.294
109.570    692.000    651.712     40.288    435.148    636.445    435.148    450.460    435.148
109.670    637.000    640.746     -3.746    435.005    625.001    435.005    450.794    435.005
109.770    636.846    629.210      7.636    434.867    612.954    434.867    451.164    434.867
109.870    653.000    617.454     35.546    434.731    600.649    434.731    451.575    434.731
109.970    594.135    605.800    -11.665    434.600    588.407    434.600    452.028    434.600
110.070    618.821    594.532     24.289    434.472    576.509    434.472    452.527    434.472
110.170    582.449    583.893     -1.443    434.348    565.193    434.348    453.076    434.348
110.270    551.000    574.077    -23.077    434.227    554.653    434.227    453.677    434.227
110.370    604.000    565.234     38.766    434.111    545.032    434.111    454.335    434.111
110.470    573.141    557.464     15.676    433.998    536.429    433.998    455.053    433.998
110.570    555.092    550.827      4.265    433.890    528.896    433.890    455.836    433.890
110.670    599.000    545.339     53.661    433.785    522.449    433.785    456.689    433.785
110.770    533.000    540.986     -7.986    433.684    517.066    433.684    457.616    433.684
110.870    585.000    537.723     47.277    433.588    512.699    433.588    458.621    433.588
110.970    488.906    535.487    -46.580    433.496    509.279    433.496    459.711    433.496
111.070    563.000    534.198     28.802    433.408    506.722    433.408    460.889    433.408
111.170    558.793    533.772     25.021    433.324    504.937    433.324    462.162    433.324
111.270    564.482    534.119     30.363    433.245    503.830    433.245    463.535    433.245
111.370    561.370    535.153     26.218    433.170    503.310    433.170    465.014    433.170
111.470    532.357    536.792     -4.435    433.099    503.289    433.099    466.602    433.099
111.570    498.431    538.963    -40.532    433.033    503.688    433.033    468.307    433.033
111.670    542.000    541.600      0.400    432.971    504.437    432.971    470.133    432.971
111.770    552.000    544.649      7.351    432.914    505.476    432.914    472.086    432.914
111.870    544.000    548.066     -4.066    432.862    506.756    432.862    474.169    432.862
111.970    504.000    551.816    -47.816    432.814    508.240    432.814    476.388    432.814
112.070    550.910    555.878     -4.968    432.772    509.901    432.772    478.745    432.772
112.170    518.777    560.241    -41.464    432.734    511.726    432.734    481.246    432.734
112.270    561.000    564.907     -3.907    432.701    513.713    432.701    483.891    432.701
112.370    586.000    569.885     16.115    432.672    515.872    432.672    486.682    432.672
112.470    605.576    575.199     30.377    432.649    518.224    432.649    489.621    432.649
112.570    516.000    580.877    -64.877    432.631    520.799    432.631    492.706    432.631
112.670    534.000    586.961    -52.961    432.618    523.640    432.618    495.935    432.618
112.770    537.000    593.501    -56.501    432.610    526.804    432.610    499.304    432.610
112.870    612.000    600.564     11.436    432.608    530.360    432.608    502.807    432.608
112.970    585.000    608.231    -23.231    432.611    534.401    432.611    506.436    432.611
113.070    612.000    616.609     -4.609    432.619    539.045    432.619    510.179    432.619
113.170    595.036    625.836    -30.801    432.632    544.443    432.632    514.020    432.632
113.270    628.478    636.090     -7.612    432.651    550.792    432.651    517.943    432.651
113.370    625.000    647.603    -22.603    432.676    558.347    432.676    521.924    432.676
113.470    670.000    660.673      9.327    432.706    567.434    432.706    525.936    432.706
113.570    664.000    675.685    -11.685    432.741    578.467    432.741    529.947    432.741
113.670    687.000    693.124     -6.124    432.783    591.972    432.783    533.920    432.783
113.770    698.000    713.604    -15.604    432.830    608.604    432.830    537.812    432.830
113.870    751.000    737.883     13.117    432.883    629.168    432.883    541.575    432.883
113.970    727.000    766.890    -39.890    432.942    654.644    432.942    545.158    432.942
114.070    829.065    801.739     27.327    433.007    686.203    433.007    548.506    433.007
114.170    855.163    843.746     11.417    433.078    725.216    433.078    551.561    433.078
114.270    931.000    894.408     36.592    433.155    773.237    433.155    554.268    433.155
114.370    943.214    955.534    -12.320    433.238    832.129    433.238    556.572    433.238
114.470   1031.000   1029.052      1.948    433.328    903.869    433.328    558.424    433.328
114.570   1063.000   1117.051    -54.051    433.424    990.586    433.424    559.783    433.424
114.670   1225.000   1221.746      3.254    433.526   1094.526    433.526    560.619    433.526
114.770   1376.000   1345.396     30.604    433.634   1217.967    433.634    560.914    433.634
114.870   1544.000   1490.206     53.794    433.749   1363.119    433.749    560.662    433.749
114.970   1704.632   1658.212     46.420    433.870   1532.010    433.870    559.874    433.870
115.070   1913.000   1851.148     61.852    433.999   1726.352    433.999    558.570    433.999
115.170   2053.087   2070.294    -17.206    434.133   1947.392    434.133    556.785    434.133
115.270   2317.534   2316.324      1.210    434.275   2195.761    434.275    554.563    434.275
115.370   2544.000   2589.152    -45.152    434.423   2471.324    434.423    551.954    434.423
115.470   2899.000   2887.792     11.208    434.578   2773.041    434.578    549.015    434.578
115.570   3326.000   3210.236    115.764    434.740   3098.848    434.740    545.801    434.740
115.670   3518.000   3553.364    -35.364    434.909   3445.571    434.909    542.369    434.909
115.770   3840.433   3912.892    -72.459    435.086   3808.873    435.086    538.775    435.086
115.870   4203.000   4283.361    -80.361    435.269   4183.245    435.269    535.068    435.269
115.970   4692.873   4658.166     34.707    435.459   4562.037    435.459    531.295    435.459
116.070   5000.000   5029.640    -29.640    435.657   4937.543    435.657    527.497    435.657
116.170   5323.277   5389.187    -65.910    435.862   5301.131    435.862    523.710    435.862
116.270   5638.581   5727.478    -88.897    436.075   5643.442    436.075    519.965    436.075
116.370   6180.115   6034.739    145.375    436.295   5954.676    436.295    516.287    436.295
116.470   6274.000   6301.147    -27.147    436.522   6224.986    436.522    512.698    436.522
116.570   6619.000   6517.359    101.641    436.758   6445.011    436.758    509.215    436.758
116.670   6772.000   6675.170     96.830    437.001   6606.530    437.001    505.852    437.001
116.770   6802.323   6768.229     34.094    437.251   6703.176    437.251    502.621    437.251
116.870   6739.464   6792.694    -53.230    437.510   6731.095    437.510    499.527    437.510
116.970   6752.000   6747.674      4.326    437.776   6689.387    437.776    496.578    437.776
117.070   6597.000   6635.332    -38.332    438.051   6580.206    438.051    493.777    438.051
117.170   6516.000   6460.615     55.385    438.333   6408.493    438.333    491.126    438.333
117.270   6180.359   6230.698    -50.339    438.624   6181.422    438.624    488.625    438.624
117.370   5999.000   5954.276     44.724    438.922   5907.688    438.922    486.273    438.922
117.470   5725.000   5640.862     84.138    439.230   5596.805    439.230    484.069    439.230
117.570   5098.000   5300.183   -202.183    439.545   5258.504    439.545    482.010    439.545
117.670   4862.000   4941.710    -79.710    439.869   4902.260    439.869    480.092    439.869
117.770   4538.000   4574.318    -36.318    440.201   4536.956    440.201    478.313    440.201
117.870   4223.000   4206.049     16.951    440.542   4170.637    440.542    476.667    440.542
117.970   3858.000   3843.945     14.055    440.892   3810.355    440.892    475.150    440.892
118.070   3590.167   3493.957     96.211    441.250   3462.067    441.250    473.757    441.250
118.170   3263.281   3160.893    102.388    441.617   3130.589    441.617    472.483    441.617
118.270   2953.000   2848.427    104.573    441.993   2819.601    441.993    471.322    441.993
118.370   2582.000   2559.142     22.858    442.378   2531.696    442.378    470.270    442.378
118.470   2233.516   2294.620    -61.103    442.772   2268.459    442.772    469.321    442.772
118.570   2111.123   2055.542     55.582    443.175   2030.581    443.175    468.470    443.175
118.670   1843.000   1841.820      1.180    443.587   1817.980    443.587    467.712    443.587
118.770   1650.000   1652.728     -2.728    444.008   1629.934    444.008    467.041    444.008
118.870   1444.000   1487.032    -43.032    444.439   1465.215    444.439    466.454    444.439
118.970   1365.000   1343.127     21.873    444.879   1322.224    444.879    465.944    444.879
119.070   1252.782   1219.159     33.623    445.329   1199.110    445.329    465.509    445.329
119.170   1122.000   1113.138      8.862    445.788   1093.888    445.788    465.143    445.788
119.270   1036.000   1023.038     12.962    446.257   1004.535    446.257    464.843    446.257
119.370    909.808    946.876    -37.068    446.735    929.073    446.735    464.604    446.735
119.470    883.000    882.774      0.226    447.224    865.626    447.224    464.424    447.224
119.570    827.598    829.000     -1.402    447.722    812.465    447.722    464.298    447.722
119.670    771.837    783.997    -12.160    448.230    768.036    448.230    464.224    448.230
119.770    739.000    746.390     -7.390    448.749    730.966    448.749    464.199    448.749
119.870    720.711    714.989      5.723    449.277    700.067    449.277    464.220    449.277
119.970    662.000    688.778    -26.778    449.816    674.328    449.816    464.284    449.816
120.070    645.003    666.906    -21.903    450.365    652.897    450.365    464.390    450.365
120.170    633.000    648.662    -15.662    450.924    635.066    450.924    464.535    450.924
120.270    626.000    633.464     -7.464    451.494    620.255    451.494    464.718    451.494
120.370    612.879    620.836     -7.957    452.074    607.989    452.074    464.936    452.074
120.470    654.544    610.393     44.151    452.665    597.884    452.665    465.187    452.665
120.570    618.000    601.824     16.176    453.267    589.633    453.267    465.472    453.267
120.670    598.000    594.879      3.121    453.880    582.985    453.880    465.787    453.880
120.770    595.000    589.357      5.643    454.503    577.741    454.503    466.132    454.503
120.870    594.684    585.095      9.589    455.137    573.740    455.137    466.507    455.137
120.970    579.000    581.963     -2.963    455.783    570.852    455.783    466.908    455.783
121.070    604.463    579.851     24.612    456.439    568.969    456.439    467.337    456.439
121.170    569.000    578.670     -9.670    457.107    568.002    457.107    467.791    457.107
121.270    594.000    578.340     15.660    457.786    567.873    457.786    468.271    457.786
121.370    560.000    578.791    -18.791    458.476    568.511    458.476    468.774    458.476
121.470    585.000    579.941      5.059    459.178    569.838    459.178    469.302    459.178
121.570    592.000    581.738     10.262    459.892    571.800    459.892    469.852    459.892
121.670    573.000    584.145    -11.145    460.617    574.363    460.617    470.424    460.617
121.770    587.018    587.075     -0.057    461.354    577.438    461.354    471.017    461.354
121.870    574.000    590.453    -16.453    462.103    580.953    462.103    471.632    462.103
121.970    596.000    594.201      1.799    462.863    584.830    462.863    472.266    462.863
122.070    614.609    598.235     16.374    463.636    588.985    463.636    472.920    463.636
122.170    615.000    602.462     12.538    464.421    593.328    464.421    473.592    464.421
122.270    605.000    606.787     -1.787    465.218    597.762    465.218    474.282    465.218
122.370    578.377    611.103    -32.726    466.027    602.184    466.027    474.989    466.027
122.470    598.613    615.303    -16.690    466.849    606.485    466.849    475.712    466.849
122.570    602.235    619.274    -17.039    467.683    610.554    467.683    476.451    467.683
122.670    637.000    622.905     14.095    468.529    614.281    468.529    477.205    468.529
122.770    622.000    626.089     -4.089    469.388    617.559    469.388    477.972    469.388
122.870    598.000    628.729    -30.729    470.260    620.292    470.260    478.753    470.260
122.970    626.000    630.742     -4.742    471.145    622.399    471.145    479.545    471.145
123.070    661.000    632.067     28.933    472.043    623.819    472.043    480.349    472.043
123.170    608.820    632.667    -23.847    472.954    624.517    472.954    481.164    472.954
123.270    649.000    632.533     16.467    473.878    624.482    473.878    481.989    473.878
123.370    677.610    631.679     45.931    474.815    623.730    474.815    482.824    474.815
123.470    616.049    630.144    -14.095    475.765    622.301    475.765    483.668    475.765
123.570    609.000    627.984    -18.984    476.729    620.250    476.729    484.521    476.729
123.670    644.073    625.268     18.805    477.706    617.647    477.706    485.384    477.706
123.770    620.323    622.073     -1.750    478.697    614.568    478.697    486.256    478.697
123.870    611.000    618.479     -7.479    479.702    611.095    479.702    487.137    479.702
123.970    589.392    614.568    -25.176    480.720    607.309    480.720    488.028    480.720
124.070    618.000    610.420      7.580    481.752    603.289    481.752    488.929    481.752
124.170    636.055    606.111     29.944    482.798    599.111    482.798    489.841    482.798
124.270    556.000    601.712    -45.712    483.858    594.845    483.858    490.764    483.858
124.370    575.000    597.286    -22.286    484.933    590.555    484.933    491.699    484.933
124.470    632.000    592.890     39.110    486.021    586.297    486.021    492.647    486.021
124.570    548.534    588.572    -40.038    487.124    582.117    487.124    493.609    487.124
124.670    590.000    584.374      5.626    488.242    578.058    488.242    494.584    488.242
124.770    636.000    580.326     55.674    489.374    574.149    489.374    495.574    489.374
124.870    576.000    576.456     -0.456    490.520    570.417    490.520    496.580    490.520
124.970    606.071    572.782     33.289    491.682    566.881    491.682    497.601    491.682
