neutron_powder_diffraction_0147
R_wp: 3.870
Temperature (K): 1074.000
Counts: 83553.00
Wavelength (Ã…): 2.52098
COMMENTS
Test file for demonstrating the .xyy file format in Reel1.0
END OF HEADER
   tth       Y_obs     Y_calc      Y_res    Background    Phase_1_Nuc    Phase_1_Mag    Phase_2_Nuc    Phase_2_Mag
  9.970    666.000    576.253     89.747    575.488    576.192    575.488    575.549    575.488
 10.070    600.000    576.325     23.675    575.498    576.263    575.498    575.559    575.498
 10.170    593.000    576.400     16.600    575.503    576.338    575.503    575.564    575.503
 10.270    551.379    576.481    -25.101    575.503    576.419    575.503    575.565    575.503
 10.370    585.000    576.571      8.429    575.498    576.509    575.498    575.560    575.498
 10.470    572.000    576.671     -4.671    575.488    576.609    575.488    575.550    575.488
 10.570    562.136    576.787    -14.650    575.473    576.724    575.473    575.535    575.473
 10.670    625.000    576.922     48.078    575.453    576.859    575.453    575.515    575.453
 10.770    586.000    577.084      8.916    575.428    577.021    575.428    575.490    575.428
 10.870    583.000    577.284      5.716    575.398    577.220    575.398    575.461    575.398
 10.970    586.000    577.536      8.464    575.363    577.468    575.363    575.430    575.363
 11.070    601.615    577.855     23.760    575.324    577.785    575.324    575.393    575.324
 11.170    562.285    578.269    -15.984    575.280    578.198    575.280    575.349    575.280
 11.270    576.587    578.822     -2.235    575.231    578.751    575.231    575.300    575.231
 11.370    597.000    579.589     17.411    575.177    579.516    575.177    575.247    575.177
 11.470    580.000    580.735     -0.735    575.120    580.662    575.120    575.190    575.120
 11.570    632.000    582.712     49.288    575.057    582.637    575.057    575.128    575.057
 11.670    643.000    586.730     56.270    574.990    586.652    574.990    575.061    574.990
 11.770    634.000    595.431     38.569    574.919    595.348    574.919    574.990    574.919
 11.870    654.000    612.811     41.189    574.843    612.718    574.843    574.915    574.843
 11.970    669.014    641.677     27.337    574.764    641.568    574.764    574.835    574.764
 12.070    664.000    678.091    -14.091    574.679    677.961    574.679    574.752    574.679
 12.170    665.904    706.410    -40.506    574.591    706.263    574.591    574.663    574.591
 12.270    684.000    707.239    -23.239    574.498    707.091    574.498    574.571    574.498
 12.370    679.000    679.765     -0.765    574.402    679.632    574.402    574.475    574.402
 12.470    655.000    643.034     11.966    574.301    642.922    574.301    574.374    574.301
 12.570    632.155    613.368     18.787    574.196    613.272    574.196    574.270    574.196
 12.670    556.000    595.239    -39.239    574.087    595.153    574.087    574.162    574.087
 12.770    575.792    586.019    -10.227    573.975    585.938    573.975    574.049    573.975
 12.870    603.190    581.666     21.524    573.858    581.587    573.858    573.933    573.858
 12.970    558.089    579.448    -21.359    573.738    579.370    573.738    573.813    573.738
 13.070    548.000    578.096    -30.096    573.613    578.018    573.613    573.689    573.613
 13.170    613.199    577.137     36.061    573.485    577.059    573.485    573.561    573.485
 13.270    557.000    576.398    -19.398    573.354    576.320    573.354    573.430    573.354
 13.370    559.000    575.801    -16.801    573.218    575.723    573.218    573.295    573.218
 13.470    575.921    575.303      0.618    573.079    575.225    573.079    573.156    573.079
 13.570    549.060    574.876    -25.817    572.937    574.798    572.937    573.014    572.937
 13.670    595.000    574.501     20.499    572.790    574.423    572.790    572.868    572.790
 13.770    543.395    574.165    -30.770    572.641    574.086    572.641    572.719    572.641
 13.870    558.400    573.858    -15.459    572.488    573.779    572.488    572.566    572.488
 13.970    556.000    573.574    -17.574    572.331    573.495    572.331    572.410    572.331
 14.070    542.162    573.308    -31.146    572.171    573.228    572.171    572.250    572.171
 14.170    574.000    573.056      0.944    572.008    572.976    572.008    572.088    572.008
 14.270    532.000    572.812    -40.812    571.841    572.732    571.841    571.922    571.841
 14.370    553.000    572.575    -19.575    571.672    572.494    571.672    571.752    571.672
 14.470    616.000    572.343     43.657    571.499    572.262    571.499    571.580    571.499
 14.570    556.426    572.116    -15.690    571.323    572.034    571.323    571.404    571.323
 14.670    606.000    571.892     34.108    571.143    571.810    571.143    571.225    571.143
 14.770    519.000    571.670    -52.670    570.961    571.587    570.961    571.043    570.961
 14.870    530.499    571.450    -40.951    570.776    571.367    570.776    570.858    570.776
 14.970    539.000    571.230    -32.230    570.587    571.147    570.587    570.670    570.587
 15.070    545.897    571.012    -25.114    570.396    570.928    570.396    570.480    570.396
 15.170    619.000    570.793     48.207    570.202    570.709    570.202    570.286    570.202
 15.270    504.000    570.574    -66.574    570.005    570.489    570.005    570.089    570.005
 15.370    553.000    570.355    -17.355    569.805    570.269    569.805    569.890    569.805
 15.470    586.000    570.134     15.866    569.602    570.049    569.602    569.687    569.602
 15.570    521.000    569.913    -48.913    569.396    569.827    569.396    569.482    569.396
 15.670    548.000    569.691    -21.691    569.188    569.605    569.188    569.275    569.188
 15.770    566.000    569.468     -3.468    568.977    569.381    568.977    569.064    568.977
 15.870    612.641    569.243     43.398    568.764    569.155    568.764    568.851    568.764
 15.970    585.000    569.016     15.984    568.548    568.928    568.548    568.636    568.548
 16.070    539.000    568.788    -29.788    568.329    568.700    568.329    568.417    568.329
 16.170    612.000    568.559     43.441    568.108    568.470    568.108    568.197    568.108
 16.270    549.000    568.328    -19.328    567.884    568.238    567.884    567.973    567.884
 16.370    525.000    568.095    -43.095    567.658    568.005    567.658    567.748    567.658
 16.470    621.000    567.861     53.139    567.429    567.770    567.429    567.520    567.429
 16.570    610.723    567.625     43.098    567.198    567.534    567.198    567.289    567.198
 16.670    550.000    567.390    -17.390    566.965    567.298    566.965    567.057    566.965
 16.770    560.000    567.152     -7.152    566.730    567.058    566.730    566.824    566.730
 16.870    541.459    566.912    -25.453    566.492    566.816    566.492    566.587    566.492
 16.970    593.000    566.669     26.331    566.252    566.573    566.252    566.348    566.252
 17.070    540.059    566.424    -26.366    566.009    566.328    566.009    566.106    566.009
 17.170    567.000    566.178      0.822    565.765    566.081    565.765    565.862    565.765
 17.270    533.000    565.931    -32.931    565.518    565.833    565.518    565.616    565.518
 17.370    551.000    565.681    -14.681    565.270    565.583    565.270    565.368    565.270
 17.470    526.022    565.430    -39.408    565.019    565.331    565.019    565.118    565.019
 17.570    545.000    565.177    -20.177    564.766    565.077    564.766    564.866    564.766
 17.670    555.000    564.922     -9.922    564.512    564.821    564.512    564.612    564.512
 17.770    507.000    564.666    -57.666    564.255    564.565    564.255    564.356    564.255
 17.870    544.000    564.409    -20.409    563.997    564.307    563.997    564.098    563.997
 17.970    542.000    564.150    -22.150    563.736    564.048    563.736    563.839    563.736
 18.070    580.000    563.890     16.110    563.474    563.786    563.474    563.577    563.474
 18.170    565.000    563.627      1.373    563.210    563.523    563.210    563.314    563.210
 18.270    595.000    563.363     31.637    562.944    563.258    562.944    563.049    562.944
 18.370    592.708    563.098     29.610    562.676    562.992    562.676    562.782    562.676
 18.470    554.000    562.831     -8.831    562.407    562.725    562.407    562.513    562.407
 18.570    599.005    562.563     36.442    562.136    562.456    562.136    562.243    562.136
 18.670    591.070    562.294     28.777    561.864    562.186    561.864    561.971    561.864
 18.770    575.916    562.023     13.893    561.589    561.914    561.589    561.698    561.589
 18.870    546.039    561.751    -15.711    561.314    561.641    561.314    561.423    561.314
 18.970    564.000    561.477      2.523    561.036    561.367    561.036    561.147    561.036
 19.070    572.335    561.204     11.131    560.758    561.093    560.758    560.869    560.758
 19.170    555.000    560.943     -5.943    560.477    560.830    560.477    560.589    560.477
 19.270    528.823    560.676    -31.853    560.196    560.563    560.196    560.308    560.196
 19.370    523.665    560.399    -36.735    559.912    560.286    559.912    560.026    559.912
 19.470    530.626    560.121    -29.494    559.628    560.006    559.628    559.743    559.628
 19.570    596.000    559.841     36.159    559.342    559.725    559.342    559.458    559.342
 19.670    593.794    559.560     34.233    559.055    559.444    559.055    559.171    559.055
 19.770    593.000    559.279     33.721    558.766    559.161    558.766    558.884    558.766
 19.870    551.714    558.997     -7.282    558.477    558.878    558.477    558.595    558.477
 19.970    549.000    558.714     -9.714    558.186    558.594    558.186    558.305    558.186
 20.070    556.000    558.430     -2.430    557.893    558.309    557.893    558.014    557.893
 20.170    553.000    558.145     -5.145    557.600    558.023    557.600    557.722    557.600
 20.270    522.708    557.860    -35.152    557.306    557.737    557.306    557.428    557.306
 20.370    527.810    557.583    -29.772    557.010    557.459    557.010    557.134    557.010
 20.470    584.018    557.381     26.637    556.713    557.256    556.713    556.838    556.713
 20.570    598.957    557.116     41.840    556.416    556.990    556.416    556.542    556.416
 20.670    557.000    556.831      0.169    556.117    556.703    556.117    556.244    556.117
 20.770    543.000    556.544    -13.544    555.817    556.415    555.817    555.946    555.817
 20.870    595.455    556.257     39.198    555.517    556.127    555.517    555.647    555.517
 20.970    545.000    555.970    -10.970    555.215    555.838    555.215    555.346    555.215
 21.070    494.000    555.682    -61.682    554.912    555.550    554.912    555.045    554.912
 21.170    550.527    555.395     -4.868    554.609    555.261    554.609    554.743    554.609
 21.270    577.000    555.108     21.892    554.305    554.973    554.305    554.440    554.305
 21.370    536.000    554.822    -18.822    554.000    554.685    554.000    554.137    554.000
 21.470    527.000    554.536    -27.536    553.694    554.398    553.694    553.832    553.694
 21.570    562.000    554.253      7.747    553.387    554.113    553.387    553.527    553.387
 21.670    563.728    553.972      9.756    553.080    553.831    553.080    553.221    553.080
 21.770    582.818    553.690     29.127    552.772    553.547    552.772    552.915    552.772
 21.870    567.513    553.411     14.102    552.463    553.266    552.463    552.608    552.463
 21.970    552.000    553.133     -1.133    552.154    552.986    552.154    552.300    552.154
 22.070    513.407    552.880    -39.473    551.844    552.731    551.844    551.992    551.844
 22.170    530.000    552.676    -22.676    551.533    552.526    551.533    551.683    551.533
 22.270    582.239    552.425     29.815    551.222    552.273    551.222    551.374    551.222
 22.370    589.000    552.157     36.843    550.910    552.003    550.910    551.064    550.910
 22.470    527.000    551.891    -24.891    550.598    551.735    550.598    550.754    550.598
 22.570    562.000    551.631     10.369    550.285    551.472    550.285    550.443    550.285
 22.670    544.000    551.375     -7.375    549.972    551.215    549.972    550.132    549.972
 22.770    544.000    551.127     -7.127    549.658    550.965    549.658    549.821    549.658
 22.870    571.000    550.887     20.113    549.344    550.722    549.344    549.509    549.344
 22.970    583.878    550.656     33.222    549.029    550.489    549.029    549.197    549.029
 23.070    573.137    550.438     22.699    548.714    550.269    548.714    548.885    548.714
 23.170    569.000    550.236     18.764    548.399    550.063    548.399    548.572    548.399
 23.270    560.000    550.052      9.948    548.084    549.877    548.084    548.259    548.084
 23.370    532.990    549.893    -16.904    547.768    549.715    547.768    547.946    547.768
 23.470    554.080    549.767      4.314    547.452    549.586    547.452    547.633    547.452
 23.570    542.000    549.681     -7.681    547.135    549.497    547.135    547.320    547.135
 23.670    524.453    549.650    -25.198    546.818    549.464    546.818    547.006    546.818
 23.770    544.343    549.697     -5.354    546.502    549.507    546.502    546.693    546.502
 23.870    584.548    549.854     34.694    546.185    549.660    546.185    546.379    546.185
 23.970    578.937    550.184     28.753    545.867    549.987    545.867    546.066    545.867
 24.070    587.025    550.840     36.185    545.550    550.641    545.550    545.753    545.550
 24.170    546.000    552.224     -6.224    545.233    552.021    545.233    545.439    545.233
 24.270    557.712    555.343      2.369    544.915    555.139    544.915    545.126    544.915
 24.370    605.355    562.142     43.213    544.598    561.938    544.598    544.813    544.598
 24.470    619.106    575.067     44.039    544.280    574.867    544.280    544.500    544.280
 24.570    609.000    595.077     13.923    543.962    594.888    543.962    544.187    543.962
 24.670    601.557    618.200    -16.642    543.645    618.021    543.645    543.875    543.645
 24.770    675.000    633.322     41.678    543.327    633.149    543.327    543.563    543.327
 24.870    587.428    629.604    -42.175    543.009    629.423    543.009    543.251    543.009
 24.970    612.389    609.984      2.405    542.692    609.783    542.692    542.940    542.692
 25.070    621.913    586.656     35.258    542.375    586.432    542.375    542.629    542.375
 25.170    568.000    568.348     -0.348    542.057    568.104    542.057    542.319    542.057
 25.270    589.965    557.090     32.876    541.740    556.830    541.740    542.009    541.740
 25.370    558.430    551.165      7.265    541.423    550.894    541.423    541.700    541.423
 25.470    580.000    548.199     31.801    541.106    547.917    541.106    541.392    541.106
 25.570    554.000    546.580      7.420    540.789    546.288    540.789    541.084    540.789
 25.670    561.000    545.546     15.454    540.473    545.243    540.473    540.777    540.473
 25.770    557.000    544.798     12.202    540.157    544.485    540.157    540.471    540.157
 25.870    574.000    544.212     29.788    539.841    543.888    539.841    540.167    539.841
 25.970    539.000    543.730     -4.730    539.525    543.394    539.525    539.863    539.525
 26.070    576.477    543.309     33.168    539.210    542.959    539.210    539.560    539.210
 26.170    575.000    542.952     32.048    538.895    542.588    538.895    539.259    538.895
 26.270    510.497    542.653    -32.155    538.580    542.273    538.580    538.960    538.580
 26.370    541.000    542.405     -1.405    538.265    542.009    538.265    538.662    538.265
 26.470    534.260    542.208     -7.948    537.951    541.794    537.951    538.366    537.951
 26.570    518.000    542.074    -24.074    537.638    541.640    537.638    538.072    537.638
 26.670    552.000    542.009      9.991    537.324    541.553    537.324    537.780    537.324
 26.770    528.869    541.985    -13.116    537.012    541.505    537.012    537.491    537.012
 26.870    537.000    542.032     -5.032    536.699    541.526    536.699    537.205    536.699
 26.970    564.699    542.171     22.528    536.387    541.636    536.387    536.922    536.387
 27.070    538.968    542.424     -3.456    536.076    541.857    536.076    536.643    536.076
 27.170    531.000    542.827    -11.827    535.765    542.223    535.765    536.368    535.765
 27.270    549.000    543.432      5.568    535.454    542.788    535.454    536.098    535.454
 27.370    567.994    544.332     23.663    535.144    543.642    535.144    535.833    535.144
 27.470    515.233    545.657    -30.424    534.835    544.916    534.835    535.575    534.835
 27.570    583.792    547.797     35.995    534.526    546.997    534.526    535.324    534.526
 27.670    593.000    552.147     40.853    534.218    551.279    534.218    535.083    534.218
 27.770    537.270    563.409    -26.139    533.911    562.461    533.911    534.852    533.911
 27.870    621.428    593.423     28.004    533.604    592.377    533.604    534.633    533.604
 27.970    634.018    660.369    -26.350    533.297    659.197    533.297    534.430    533.297
 28.070    766.114    771.907     -5.793    532.992    770.582    532.992    534.246    532.992
 28.170    867.919    896.092    -28.173    532.687    894.597    532.687    534.086    532.687
 28.270    910.000    957.133    -47.133    532.382    955.467    532.382    533.955    532.382
 28.370    828.000    905.551    -77.551    532.079    903.709    532.079    533.864    532.079
 28.470    805.488    794.102     11.386    531.776    792.030    531.776    533.825    531.776
 28.570    722.752    707.602     15.150    531.473    705.204    531.473    533.861    531.473
 28.670    661.185    689.945    -28.760    531.172    687.097    531.172    534.006    531.172
 28.770    721.154    735.927    -14.772    530.871    732.470    530.871    534.311    530.871
 28.870    776.438    804.911    -28.473    530.571    800.626    530.571    534.846    530.571
 28.970    825.000    837.409    -12.409    530.272    831.981    530.272    535.705    530.272
 29.070    808.014    798.547      9.468    529.974    791.540    529.974    536.995    529.974
 29.170    676.000    718.510    -42.510    529.677    709.385    529.677    538.815    529.677
 29.270    615.517    644.358    -28.841    529.380    632.526    529.380    541.221    529.380
 29.370    620.000    597.643     22.357    529.084    582.590    529.084    544.142    529.084
 29.470    654.000    575.895     78.105    528.789    557.442    528.789    547.243    528.789
 29.570    564.696    567.852     -3.156    528.495    546.570    528.495    549.777    528.495
 29.670    549.082    564.329    -15.248    528.202    541.797    528.202    550.733    528.202
 29.770    542.559    560.900    -18.341    527.910    539.262    527.910    549.547    527.910
 29.870    603.000    556.646     46.354    527.619    537.622    527.619    546.642    527.619
 29.970    582.000    552.147     29.853    527.328    536.472    527.328    543.002    527.328
 30.070    564.000    548.085     15.915    527.039    535.684    527.039    539.438    527.039
 30.170    562.000    544.838     17.162    526.750    535.238    526.750    536.349    526.750
 30.270    522.000    542.632    -20.632    526.463    535.250    526.463    533.842    526.463
 30.370    513.482    541.882    -28.400    526.177    536.175    526.177    531.879    526.177
 30.470    520.985    543.677    -22.692    525.891    539.195    525.891    530.366    525.891
 30.570    531.032    550.071    -19.040    525.607    546.469    525.607    529.196    525.607
 30.670    579.000    563.280     15.720    525.323    560.307    525.323    528.273    525.323
 30.770    598.000    583.069     14.931    525.041    580.551    525.041    527.521    525.041
 30.870    612.000    603.507      8.493    524.760    601.330    524.760    526.886    524.760
 30.970    598.319    612.789    -14.470    524.479    610.882    524.479    526.331    524.479
 31.070    610.000    603.152      6.848    524.200    601.475    524.200    525.833    524.200
 31.170    572.435    581.788     -9.353    523.922    580.305    523.922    525.376    523.922
 31.270    533.550    560.496    -26.946    523.645    559.173    523.645    524.952    523.645
 31.370    566.000    545.449     20.551    523.369    544.258    523.369    524.552    523.369
 31.470    531.000    537.015     -6.015    523.094    535.933    523.094    524.173    523.094
 31.570    528.000    532.935     -4.935    522.821    531.944    522.821    523.810    522.821
 31.670    514.000    531.001    -17.001    522.548    530.087    522.548    523.460    522.548
 31.770    516.450    529.960    -13.510    522.277    529.113    522.277    523.122    522.277
 31.870    540.741    529.295     11.446    522.007    528.506    522.007    522.794    522.007
 31.970    523.499    528.830     -5.332    521.738    528.092    521.738    522.475    521.738
 32.070    531.000    528.506      2.494    521.470    527.813    521.470    522.163    521.470
 32.170    537.935    528.298      9.637    521.204    527.645    521.204    521.857    521.204
 32.270    528.000    528.200     -0.200    520.938    527.581    520.938    521.556    520.938
 32.370    519.619    528.212     -8.594    520.674    527.624    520.674    521.261    520.674
 32.470    545.334    528.343     16.992    520.411    527.783    520.411    520.971    520.411
 32.570    509.000    528.608    -19.608    520.150    528.073    520.150    520.684    520.150
 32.670    559.000    529.034     29.966    519.889    528.521    519.889    520.401    519.889
 32.770    537.000    529.660      7.340    519.630    529.167    519.630    520.122    519.630
 32.870    495.921    530.541    -34.620    519.373    530.066    519.373    519.846    519.373
 32.970    528.045    531.761     -3.716    519.116    531.302    519.116    519.573    519.116
 33.070    542.000    533.449      8.551    518.861    533.005    518.861    519.303    518.861
 33.170    519.000    535.844    -16.844    518.607    535.413    518.607    519.035    518.607
 33.270    555.000    539.501     15.499    518.354    539.082    518.354    518.770    518.354
 33.370    570.438    545.927     24.510    518.103    545.519    518.103    518.508    518.103
 33.470    581.000    559.021     21.979    517.853    558.621    517.853    518.247    517.853
 33.570    589.000    587.066      1.934    517.604    586.669    517.604    517.989    517.604
 33.670    634.000    642.875     -8.875    517.357    642.477    517.357    517.733    517.357
 33.770    781.000    737.684     43.316    517.111    737.278    517.111    517.479    517.111
 33.870    910.000    867.208     42.792    516.866    866.793    516.866    517.228    516.866
 33.970   1016.000    996.276     19.724    516.623    995.858    516.623    516.978    516.623
 34.070   1088.850   1059.284     29.566    516.381   1058.881    516.381    516.730    516.381
 34.170    973.111   1011.974    -38.863    516.141   1011.602    516.141    516.484    516.141
 34.270    920.488    888.994     31.493    515.901    888.652    515.901    516.240    515.901
 34.370    749.000    756.297     -7.297    515.664    755.971    515.664    515.997    515.664
 34.470    631.000    654.502    -23.502    515.428    654.181    515.428    515.757    515.428
 34.570    609.485    592.167     17.319    515.193    591.847    515.193    515.518    515.193
 34.670    561.000    559.708      1.292    514.959    559.389    514.959    515.281    514.959
 34.770    564.000    544.103     19.897    514.727    543.785    514.727    515.046    514.727
 34.870    561.000    536.279     24.721    514.497    535.963    514.497    514.813    514.497
 34.970    514.000    531.720    -17.720    514.268    531.406    514.268    514.581    514.268
 35.070    536.737    528.609      8.128    514.040    528.298    514.040    514.351    514.040
 35.170    511.000    526.272    -15.272    513.814    525.963    513.814    514.122    513.814
 35.270    491.908    524.430    -32.522    513.589    524.123    513.589    513.896    513.589
 35.370    547.000    522.936     24.064    513.366    522.631    513.366    513.671    513.366
 35.470    528.811    521.700      7.111    513.144    521.396    513.144    513.448    513.144
 35.570    528.000    520.659      7.341    512.924    520.357    512.924    513.226    512.924
 35.670    493.000    519.769    -26.769    512.705    519.468    512.705    513.006    512.705
 35.770    537.277    518.998     18.280    512.487    518.697    512.487    512.788    512.487
 35.870    523.000    518.321      4.679    512.272    518.021    512.272    512.571    512.272
 35.970    478.285    517.722    -39.437    512.057    517.423    512.057    512.356    512.057
 36.070    496.000    517.187    -21.187    511.844    516.889    511.844    512.143    511.844
 36.170    489.000    516.707    -27.707    511.633    516.409    511.633    511.931    511.633
 36.270    530.000    516.274     13.726    511.423    515.976    511.423    511.721    511.423
 36.370    507.000    515.883     -8.883    511.215    515.585    511.215    511.513    511.215
 36.470    538.000    515.531     22.469    511.009    515.234    511.009    511.306    511.009
 36.570    502.235    515.218    -12.983    510.803    514.920    510.803    511.101    510.803
 36.670    468.000    514.945    -46.945    510.600    514.646    510.600    510.898    510.600
 36.770    549.987    514.719     35.268    510.398    514.420    510.398    510.696    510.398
 36.870    492.000    514.563    -22.563    510.197    514.263    510.197    510.496    510.197
 36.970    526.127    514.533     11.594    509.998    514.234    509.998    510.298    509.998
 37.070    508.000    514.758     -6.758    509.801    514.458    509.801    510.102    509.801
 37.170    489.155    515.466    -26.311    509.605    515.165    509.605    509.907    509.605
 37.270    530.061    516.959     13.102    509.411    516.657    509.411    509.713    509.411
 37.370    497.424    519.465    -22.041    509.218    519.162    509.218    509.522    509.218
 37.470    489.000    522.860    -33.860    509.027    522.557    509.027    509.332    509.027
 37.570    485.000    526.373    -41.373    508.837    526.070    508.837    509.143    508.837
 37.670    492.000    528.563    -36.563    508.650    528.260    508.650    508.957    508.650
 37.770    502.000    528.231    -26.231    508.463    527.929    508.463    508.772    508.463
 37.870    530.000    525.679      4.321    508.278    525.377    508.278    508.589    508.278
 37.970    525.000    522.210      2.790    508.095    521.908    508.095    508.407    508.095
 38.070    526.000    518.858      7.142    507.914    518.555    507.914    508.227    507.914
 38.170    526.000    516.065      9.935    507.734    515.759    507.734    508.049    507.734
 38.270    528.000    513.963     14.037    507.555    513.653    507.555    507.873    507.555
 38.370    493.000    512.503    -19.503    507.379    512.188    507.379    507.698    507.379
 38.470    482.671    511.532    -28.861    507.204    511.214    507.204    507.525    507.204
 38.570    480.160    510.891    -30.731    507.030    510.570    507.030    507.353    507.030
 38.670    472.051    510.451    -38.400    506.858    510.126    506.858    507.184    506.858
 38.770    517.000    510.123      6.877    506.688    509.796    506.688    507.016    506.688
 38.870    490.000    509.857    -19.857    506.519    509.527    506.519    506.850    506.519
 38.970    482.149    509.625    -27.476    506.352    509.293    506.352    506.685    506.352
 39.070    489.000    509.416    -20.416    506.187    509.081    506.187    506.523    506.187
 39.170    456.000    509.223    -53.223    506.023    508.885    506.023    506.362    506.023
 39.270    501.000    509.043     -8.043    505.861    508.702    505.861    506.202    505.861
 39.370    525.000    508.874     16.126    505.700    508.530    505.700    506.045    505.700
 39.470    531.000    508.715     22.285    505.542    508.368    505.542    505.889    505.542
 39.570    524.000    508.565     15.435    505.384    508.215    505.384    505.735    505.384
 39.670    478.217    508.424    -30.206    505.229    508.070    505.229    505.582    505.229
 39.770    505.646    508.291     -2.644    505.075    507.934    505.075    505.432    505.075
 39.870    497.997    508.166    -10.169    504.923    507.806    504.923    505.283    504.923
 39.970    508.000    508.050     -0.050    504.772    507.686    504.772    505.136    504.772
 40.070    467.000    507.942    -40.942    504.623    507.574    504.623    504.991    504.623
 40.170    493.000    507.843    -14.843    504.475    507.471    504.475    504.847    504.475
 40.270    464.000    507.753    -43.753    504.330    507.378    504.330    504.705    504.330
 40.370    515.000    507.674      7.326    504.186    507.294    504.186    504.565    504.186
 40.470    487.000    507.606    -20.606    504.043    507.222    504.043    504.427    504.043
 40.570    508.000    507.551      0.449    503.902    507.163    503.902    504.291    503.902
 40.670    543.000    507.510     35.490    503.763    507.118    503.763    504.156    503.763
 40.770    515.805    507.486      8.318    503.626    507.089    503.626    504.023    503.626
 40.870    478.000    507.482    -29.482    503.490    507.080    503.490    503.892    503.490
 40.970    475.192    507.500    -32.308    503.356    507.094    503.356    503.763    503.356
 41.070    523.000    507.547     15.453    503.223    507.135    503.223    503.635    503.223
 41.170    456.000    507.627    -51.627    503.092    507.210    503.092    503.510    503.092
 41.270    529.000    507.750     21.250    502.963    507.328    502.963    503.386    502.963
 41.370    523.000    507.927     15.073    502.835    507.500    502.835    503.264    502.835
 41.470    499.000    508.175     -9.175    502.709    507.741    502.709    503.144    502.709
 41.570    474.883    508.519    -33.635    502.585    508.079    502.585    503.026    502.585
 41.670    551.000    509.007     41.993    502.462    508.562    502.462    502.909    502.462
 41.770    508.235    509.746     -1.511    502.341    509.295    502.341    502.795    502.341
 41.870    468.000    510.989    -42.989    502.222    510.532    502.222    502.682    502.222
 41.970    461.000    513.307    -52.307    502.104    512.844    502.104    502.571    502.104
 42.070    541.000    517.801     23.199    501.988    517.333    501.988    502.462    501.988
 42.170    508.586    526.182    -17.597    501.874    525.710    501.874    502.355    501.874
 42.270    529.000    540.342    -11.342    501.761    539.869    501.761    502.250    501.761
 42.370    543.000    561.176    -18.176    501.650    560.706    501.650    502.147    501.650
 42.470    545.602    586.893    -41.290    501.540    586.427    501.540    502.045    501.540
 42.570    599.000    611.547    -12.547    501.432    611.086    501.432    501.946    501.432
 42.670    620.000    625.596     -5.596    501.326    625.137    501.326    501.849    501.326
 42.770    622.000    621.795      0.205    501.222    621.328    501.222    501.753    501.222
 42.870    593.000    602.344     -9.344    501.119    601.860    501.119    501.660    501.119
 42.970    612.933    576.300     36.633    501.017    575.792    501.017    501.568    501.017
 43.070    548.603    551.996     -3.393    500.918    551.464    500.918    501.479    500.918
 43.170    543.000    533.640      9.360    500.819    533.087    500.819    501.392    500.819
 43.270    507.000    521.789    -14.789    500.723    521.217    500.723    501.306    500.723
 43.370    510.213    514.997     -4.784    500.628    514.408    500.628    501.223    500.628
 43.470    503.000    511.369     -8.369    500.535    510.766    500.535    501.142    500.535
 43.570    476.560    509.428    -32.868    500.443    508.811    500.443    501.063    500.443
 43.670    503.000    508.301     -5.301    500.354    507.670    500.354    500.987    500.354
 43.770    526.000    507.562     18.438    500.265    506.917    500.265    500.912    500.265
 43.870    491.000    507.027    -16.027    500.179    506.367    500.179    500.840    500.179
 43.970    502.000    506.617     -4.617    500.093    505.941    500.093    500.770    500.093
 44.070    525.000    506.294     18.706    500.010    505.602    500.010    500.702    500.010
 44.170    491.681    506.037    -14.356    499.928    505.329    499.928    500.637    499.928
 44.270    465.750    505.832    -40.082    499.848    505.106    499.848    500.574    499.848
 44.370    512.000    505.669      6.331    499.769    504.925    499.769    500.514    499.769
 44.470    477.000    505.541    -28.541    499.692    504.778    499.692    500.456    499.692
 44.570    493.546    505.443    -11.897    499.617    504.659    499.617    500.401    499.617
 44.670    519.000    505.370     13.630    499.543    504.565    499.543    500.348    499.543
 44.770    514.292    505.320      8.972    499.470    504.493    499.470    500.298    499.470
 44.870    529.000    505.291     23.709    499.400    504.440    499.400    500.252    499.400
 44.970    527.488    505.282     22.206    499.331    504.405    499.331    500.208    499.331
 45.070    534.000    505.290     28.710    499.263    504.386    499.263    500.167    499.263
 45.170    519.000    505.316     13.684    499.197    504.384    499.197    500.129    499.197
 45.270    471.485    505.360    -33.875    499.133    504.398    499.133    500.095    499.133
 45.370    544.085    505.421     38.663    499.070    504.427    499.070    500.064    499.070
 45.470    477.521    505.500    -27.980    499.009    504.472    499.009    500.037    499.009
 45.570    495.000    505.598    -10.598    498.949    504.533    498.949    500.014    498.949
 45.670    464.609    505.716    -41.107    498.891    504.612    498.891    499.995    498.891
 45.770    451.000    505.854    -54.854    498.834    504.709    498.834    499.980    498.834
 45.870    466.203    506.016    -39.813    498.779    504.826    498.779    499.969    498.779
 45.970    525.000    506.203     18.797    498.726    504.964    498.726    499.964    498.726
 46.070    515.000    506.419      8.581    498.674    505.128    498.674    499.964    498.674
 46.170    476.000    506.666    -30.666    498.623    505.319    498.623    499.970    498.623
 46.270    515.000    506.950      8.050    498.574    505.542    498.574    499.982    498.574
 46.370    508.569    507.278      1.291    498.527    505.803    498.527    500.001    498.527
 46.470    532.627    507.656     24.972    498.481    506.109    498.481    500.027    498.481
 46.570    524.127    508.096     16.031    498.437    506.471    498.437    500.061    498.437
 46.670    541.148    508.614     32.534    498.394    506.903    498.394    500.104    498.394
 46.770    493.361    509.241    -15.879    498.353    507.435    498.353    500.158    498.353
 46.870    533.000    510.035     22.965    498.313    508.124    498.313    500.222    498.313
 46.970    526.000    511.128     14.872    498.275    509.102    498.275    500.299    498.275
 47.070    498.150    512.798    -14.648    498.238    510.643    498.238    500.390    498.238
 47.170    494.000    515.564    -21.564    498.203    513.264    498.203    500.498    498.203
 47.270    517.562    520.240     -2.678    498.169    517.776    498.169    500.624    498.169
 47.370    521.748    527.815     -6.067    498.137    525.166    498.137    500.772    498.137
 47.470    525.000    539.046    -14.046    498.106    536.185    498.106    500.945    498.106
 47.570    560.000    553.775      6.225    498.077    550.672    498.077    501.147    498.077
 47.670    549.000    570.218    -21.218    498.049    566.839    498.049    501.384    498.049
 47.770    617.000    584.591     32.409    498.022    580.897    498.022    501.663    498.022
 47.870    567.000    591.851    -24.851    497.997    587.798    497.997    501.993    497.997
 47.970    599.000    589.032      9.968    497.974    584.565    497.974    502.388    497.974
 48.070    551.000    578.160    -27.160    497.952    573.203    497.952    502.867    497.952
 48.170    570.000    564.158      5.842    497.931    558.602    497.931    503.457    497.931
 48.270    518.000    551.311    -33.311    497.912    545.000    497.912    504.202    497.912
 48.370    567.108    541.979     25.129    497.894    534.692    497.894    505.168    497.894
 48.470    535.717    536.809     -1.092    497.878    528.224    497.878    506.454    497.878
 48.570    533.645    535.403     -1.758    497.863    525.060    497.863    508.200    497.863
 48.670    538.000    537.040      0.960    497.849    524.292    497.849    510.593    497.849
 48.770    521.000    541.161    -20.161    497.837    525.135    497.837    513.859    497.837
 48.870    560.000    547.536     12.464    497.826    527.116    497.826    518.244    497.826
 48.970    548.000    556.232     -8.232    497.817    530.082    497.817    523.964    497.817
 49.070    568.000    567.537      0.463    497.809    534.201    497.809    531.141    497.809
 49.170    540.000    582.047    -42.047    497.802    540.150    497.802    539.695    497.802
 49.270    592.947    601.197     -8.250    497.797    549.799    497.797    549.189    497.797
 49.370    646.000    628.632     17.368    497.793    567.787    497.793    558.627    497.793
 49.470    673.322    672.810      0.512    497.791    604.241    497.791    566.338    497.791
 49.570    787.000    750.308     36.692    497.790    677.723    497.790    570.333    497.790
 49.670    870.000    886.906    -16.906    497.790    815.282    497.790    569.340    497.790
 49.770   1148.000   1110.778     37.222    497.791   1044.742    497.791    563.713    497.791
 49.870   1496.000   1434.204     61.796    497.794   1376.702    497.794    555.146    497.794
 49.970   1848.000   1829.638     18.362    497.798   1781.706    497.798    545.570    497.798
 50.070   2202.032   2215.302    -13.270    497.804   2176.590    497.804    536.393    497.804
 50.170   2470.000   2468.862      1.138    497.811   2438.273    497.811    528.371    497.811
 50.270   2478.807   2485.649     -6.842    497.819   2461.773    497.819    521.783    497.819
 50.370   2198.895   2255.532    -56.636    497.828   2236.915    497.828    516.621    497.828
 50.470   1830.000   1872.900    -42.900    497.839   1858.227    497.839    512.717    497.839
 50.570   1437.550   1464.307    -26.757    497.851   1452.506    497.851    509.837    497.851
 50.670   1033.000   1122.024    -89.024    497.864   1112.291    497.864    507.740    497.864
 50.770    857.000    883.740    -26.740    497.879    875.504    497.879    506.213    497.879
 50.870    739.000    742.768     -3.768    497.895    735.642    497.895    505.088    497.895
 50.970    643.000    670.354    -27.354    497.912    664.074    497.912    504.241    497.912
 51.070    625.000    635.493    -10.493    497.930    629.876    497.930    503.587    497.930
 51.170    612.000    615.679     -3.679    497.950    610.593    497.950    503.070    497.950
 51.270    600.000    599.512      0.488    497.971    594.859    497.971    502.654    497.971
 51.370    608.000    583.934     24.066    497.993    579.637    497.993    502.312    497.993
 51.470    547.574    569.585    -22.011    498.016    565.588    498.016    502.031    498.016
 51.570    585.000    557.645     27.355    498.040    553.901    498.040    501.797    498.040
 51.670    565.331    548.709     16.623    498.066    545.180    498.066    501.603    498.066
 51.770    517.000    542.684    -25.684    498.093    539.341    498.093    501.442    498.093
 51.870    503.750    539.055    -35.306    498.121    535.871    498.121    501.310    498.121
 51.970    573.136    537.199     35.938    498.150    534.151    498.150    501.201    498.150
 52.070    557.000    536.614     20.386    498.180    533.683    498.180    501.114    498.180
 52.170    494.455    537.025    -42.570    498.212    534.194    498.212    501.045    498.212
 52.270    529.000    538.396     -9.396    498.245    535.650    498.245    500.993    498.245
 52.370    535.000    540.978     -5.978    498.278    538.304    498.278    500.955    498.278
 52.470    590.000    545.476     44.524    498.313    542.861    498.313    500.930    498.313
 52.570    571.000    553.402     17.598    498.350    550.836    498.350    500.917    498.350
 52.670    557.000    567.578    -10.578    498.387    565.051    498.387    500.914    498.387
 52.770    633.835    592.569     41.266    498.425    590.071    498.425    500.922    498.425
 52.870    668.000    634.521     33.479    498.465    632.045    498.465    500.939    498.465
 52.970    703.000    699.782      3.218    498.505    697.318    498.505    500.964    498.505
 53.070    793.000    791.988      1.012    498.547    789.532    498.547    500.998    498.547
 53.170    921.000    908.149     12.851    498.590    905.694    498.590    501.039    498.590
 53.270   1039.000   1034.961      4.039    498.633   1032.505    498.633    501.088    498.633
 53.370   1212.000   1147.119     64.881    498.678   1144.660    498.678    501.144    498.678
 53.470   1183.999   1211.802    -27.803    498.724   1209.338    498.724    501.207    498.724
 53.570   1181.000   1205.027    -24.027    498.771   1202.552    498.771    501.277    498.771
 53.670   1102.000   1129.810    -27.810    498.819   1127.313    498.819    501.354    498.819
 53.770    976.325   1013.373    -37.048    498.868   1010.842    498.868    501.438    498.868
 53.870    902.515    887.778     14.737    498.918    885.201    498.918    501.528    498.918
 53.970    787.000    776.117     10.883    498.969    773.486    498.969    501.626    498.969
 54.070    687.252    689.581     -2.329    499.021    686.889    499.021    501.731    499.021
 54.170    630.000    629.654      0.346    499.074    626.897    499.074    501.844    499.074
 54.270    594.000    591.947      2.053    499.129    589.119    499.129    501.964    499.129
 54.370    601.000    570.002     30.998    499.184    567.098    499.184    502.092    499.184
 54.470    558.000    557.918      0.082    499.240    554.932    499.240    502.229    499.240
 54.570    570.440    551.470     18.970    499.297    548.395    499.297    502.375    499.297
 54.670    570.669    548.107     22.562    499.354    544.934    499.354    502.529    499.354
 54.770    525.859    546.484    -20.626    499.413    543.205    499.413    502.694    499.413
 54.870    577.000    545.963     31.037    499.473    542.568    499.473    502.869    499.473
 54.970    554.000    546.267      7.733    499.534    542.746    499.534    503.056    499.534
 55.070    547.000    547.293     -0.293    499.595    543.635    499.595    503.255    499.595
 55.170    523.000    549.023    -26.023    499.658    545.215    499.658    503.467    499.658
 55.270    536.678    551.496    -14.818    499.721    547.525    499.721    503.694    499.721
 55.370    555.083    554.805      0.277    499.786    550.655    499.786    503.937    499.786
 55.470    551.000    559.129     -8.129    499.851    554.784    499.851    504.196    499.851
 55.570    574.000    564.814      9.186    499.917    560.256    499.917    504.475    499.917
 55.670    559.000    572.584    -13.584    499.984    567.793    499.984    504.776    499.984
 55.770    600.000    583.998     16.002    500.052    578.950    500.052    505.099    500.052
 55.870    594.000    602.291     -8.291    500.120    596.961    500.120    505.449    500.120
 55.970    679.137    633.666     45.471    500.190    628.022    500.190    505.828    500.190
 56.070    698.000    688.702      9.298    500.260    682.709    500.260    506.241    500.260
 56.170    792.754    782.920      9.834    500.331    776.539    500.331    506.690    500.331
 56.270    900.908    934.927    -34.019    500.403    928.113    500.403    507.182    500.403
 56.370   1179.000   1160.705     18.295    500.476   1153.408    500.476    507.723    500.476
 56.470   1470.951   1464.220      6.731    500.549   1456.392    500.549    508.319    500.549
 56.570   1765.000   1826.979    -61.979    500.623   1818.571    500.623    508.979    500.623
 56.670   2161.000   2200.655    -39.655    500.698   2191.615    500.698    509.714    500.698
 56.770   2422.207   2507.660    -85.453    500.774   2497.931    500.774    510.535    500.774
 56.870   2678.000   2659.996     18.004    500.850   2649.500    500.850    511.459    500.850
 56.970   2546.478   2605.086    -58.608    500.928   2593.703    500.928    512.506    500.928
 57.070   2302.000   2364.361    -62.361    501.006   2351.912    501.006    513.702    501.006
 57.170   2093.000   2015.501     77.499    501.084   2001.756    501.084    515.086    501.084
 57.270   1640.352   1644.171     -3.818    501.164   1628.854    501.164    516.710    501.164
 57.370   1260.228   1313.209    -52.981    501.244   1295.982    501.244    518.655    501.244
 57.470   1050.000   1054.821     -4.821    501.324   1035.240    501.324    521.040    501.324
 57.570    897.000    874.835     22.165    501.406    852.285    501.406    524.044    501.406
 57.670    805.000    762.325     42.675    501.488    735.940    501.488    527.927    501.488
 57.770    656.303    700.092    -43.788    501.571    668.642    501.571    533.050    501.571
 57.870    706.000    672.440     33.560    501.654    634.222    501.654    539.887    501.654
 57.970    667.000    668.937     -1.937    501.738    621.662    501.738    549.017    501.738
 58.070    657.000    684.843    -27.843    501.823    625.574    501.823    561.086    501.823
 58.170    728.000    719.649      8.351    501.908    644.811    501.908    576.729    501.908
 58.270    744.126    774.856    -30.730    501.994    680.369    501.994    596.454    501.994
 58.370    866.000    851.653     14.347    502.080    733.221    502.080    620.477    502.080
 58.470    884.000    948.840    -64.840    502.167    802.446    502.167    648.519    502.167
 58.570   1055.000   1061.217     -6.217    502.255    883.903    502.255    679.526    502.255
 58.670   1171.000   1178.939     -7.939    502.343    969.957    502.343    711.287    502.343
 58.770   1258.602   1288.918    -30.316    502.432   1051.239    502.432    740.086    502.432
 58.870   1351.000   1377.850    -26.850    502.521   1119.475    502.521    760.887    502.521
 58.970   1465.000   1434.392     30.608    502.611   1168.177    502.611    768.837    502.611
 59.070   1517.957   1450.204     67.754    502.701   1191.145    502.701    761.791    502.701
 59.170   1469.000   1423.371     45.629    502.792   1184.490    502.792    741.716    502.792
 59.270   1399.896   1362.366     37.530    502.883   1151.900    502.883    713.393    502.883
 59.370   1323.664   1284.129     39.535    502.975   1105.249    502.975    681.884    502.975
 59.470   1245.233   1207.269     37.964    503.068   1059.361    503.068    650.979    503.068
 59.570   1158.000   1148.051      9.949    503.160   1028.225    503.160    622.954    503.160
 59.670   1126.000   1120.564      5.436    503.254   1024.825    503.254    598.914    503.254
 59.770   1189.000   1135.646     53.354    503.347   1059.692    503.347    579.172    503.347
 59.870   1226.000   1196.282     29.718    503.442   1136.009    503.442    563.530    503.442
 59.970   1396.000   1293.173    102.827    503.536   1244.981    503.536    551.494    503.536
 60.070   1435.272   1403.548     31.724    503.631   1364.476    503.631    542.432    503.631
 60.170   1492.000   1493.881     -1.881    503.727   1461.627    503.727    535.698    503.727
 60.270   1508.727   1528.860    -20.132    503.822   1501.712    503.822    530.710    503.822
 60.370   1513.000   1487.987     25.013    503.919   1464.706    503.919    526.990    503.919
 60.470   1353.127   1377.909    -24.781    504.015   1357.602    504.015    524.174    504.015
 60.570   1278.000   1226.008     51.992    504.112   1208.028    504.112    522.001    504.112
 60.670   1115.315   1064.103     51.211    504.209   1047.969    504.209    520.296    504.209
 60.770   1006.000    917.230     88.770    504.307    902.576    504.307    518.940    504.307
 60.870    801.000    799.773      1.227    504.405    786.312    504.405    517.859    504.405
 60.970    711.429    716.120     -4.691    504.504    703.615    504.504    517.005    504.504
 61.070    706.646    663.892     42.754    504.602    652.140    504.602    516.347    504.602
 61.170    693.000    638.100     54.900    504.701    626.928    504.701    515.862    504.701
 61.270    670.000    634.710     35.290    504.800    623.960    504.800    515.530    504.800
 61.370    605.934    652.631    -46.698    504.900    642.170    504.900    515.329    504.900
 61.470    693.000    693.894     -0.894    505.000    683.611    505.000    515.233    505.000
 61.570    731.000    762.133    -31.133    505.100    751.955    505.100    515.205    505.100
 61.670    839.519    859.767    -20.248    505.200    849.673    505.200    515.193    505.200
 61.770   1001.000    984.598     16.402    505.301    974.632    505.301    515.134    505.301
 61.870   1078.000   1126.851    -48.851    505.402   1117.123    505.402    514.969    505.402
 61.970   1229.000   1267.744    -38.744    505.503   1258.405    505.503    514.666    505.503
 62.070   1371.372   1380.736     -9.364    505.604   1371.932    505.604    514.234    505.604
 62.170   1434.000   1437.816     -3.816    505.705   1429.653    505.705    513.718    505.705
 62.270   1370.656   1422.049    -51.394    505.807   1414.577    505.807    513.169    505.807
 62.370   1296.000   1338.024    -42.024    505.909   1331.233    505.909    512.634    505.909
 62.470   1268.092   1208.590     59.501    506.011   1202.431    506.011    512.142    506.011
 62.570   1036.000   1062.146    -26.146    506.113   1056.547    506.113    511.709    506.113
 62.670    942.000    922.467     19.533    506.215    917.352    506.215    511.340    506.215
 62.770    805.765    804.609      1.156    506.318    799.905    506.318    511.037    506.318
 62.870    680.000    714.737    -34.737    506.420    710.376    506.420    510.793    506.420
 62.970    608.000    652.056    -44.056    506.523    647.985    506.523    510.602    506.523
 63.070    606.000    611.724     -5.724    506.626    607.897    506.626    510.456    506.626
 63.170    594.748    587.639      7.109    506.729    584.020    506.729    510.348    506.729
 63.270    581.000    574.368      6.632    506.832    570.928    506.832    510.269    506.832
 63.370    580.000    568.057     11.943    506.935    564.773    506.935    510.213    506.935
 63.470    617.000    566.593     50.407    507.038    563.447    507.038    510.177    507.038
 63.570    526.897    569.419    -42.523    507.141    566.394    507.141    510.156    507.141
 63.670    561.309    577.256    -15.946    507.244    574.338    507.244    510.147    507.244
 63.770    650.000    591.810     58.190    507.347    588.988    507.347    510.149    507.347
 63.870    587.044    615.390    -28.346    507.451    612.650    507.451    510.160    507.451
 63.970    705.000    650.283     54.717    507.554    647.614    507.554    510.178    507.554
 64.070    717.652    697.882     19.770    507.657    695.274    507.657    510.203    507.657
 64.170    796.000    757.643     38.357    507.760    755.087    507.760    510.234    507.760
 64.270    802.093    826.123    -24.030    507.864    823.613    507.864    510.271    507.864
 64.370    899.000    896.370      2.630    507.967    893.905    507.967    510.313    507.967
 64.470    968.000    958.166      9.834    508.070    955.748    508.070    510.359    508.070
 64.570    988.861   1000.171    -11.310    508.173    997.809    508.173    510.410    508.173
 64.670   1065.000   1014.312     50.688    508.276   1012.012    508.276    510.464    508.276
 64.770   1001.998    999.353      2.645    508.379    997.121    508.379    510.522    508.379
 64.870   1000.000    960.468     39.532    508.482    958.304    508.482    510.584    508.482
 64.970    947.535    906.438     41.097    508.585    904.339    508.585    510.649    508.585
 65.070    866.000    846.780     19.220    508.687    844.740    508.687    510.716    508.687
 65.170    800.488    789.222     11.265    508.790    787.232    508.790    510.787    508.790
 65.270    757.000    738.283     18.717    508.892    736.334    508.892    510.860    508.892
 65.370    713.304    695.478     17.827    508.995    693.561    508.995    510.936    508.995
 65.470    620.576    660.570    -39.994    509.097    658.678    509.097    511.014    509.097
 65.570    621.168    632.755    -11.586    509.199    630.881    509.199    511.095    509.199
 65.670    581.265    611.123    -29.858    509.301    609.264    509.301    511.177    509.301
 65.770    566.000    594.736    -28.736    509.402    592.889    509.402    511.262    509.402
 65.870    576.000    582.696     -6.696    509.504    580.859    509.504    511.349    509.504
 65.970    541.001    574.217    -33.216    509.605    572.389    509.605    511.437    509.605
 66.070    569.574    568.644      0.930    509.706    566.824    509.706    511.528    509.706
 66.170    581.000    565.439     15.561    509.807    563.626    509.807    511.621    509.807
 66.270    591.457    564.168     27.289    509.908    562.361    509.908    511.715    509.908
 66.370    528.000    564.514    -36.514    510.008    562.711    510.008    511.811    510.008
 66.470    527.000    566.315    -39.315    510.108    564.515    510.108    511.909    510.108
 66.570    605.000    569.633     35.367    510.208    567.833    510.208    512.009    510.208
 66.670    586.000    574.877     11.123    510.308    573.076    510.308    512.110    510.308
 66.770    563.000    583.018    -20.018    510.407    581.213    510.407    512.214    510.407
 66.870    624.702    595.926     28.776    510.506    594.113    510.506    512.319    510.506
 66.970    596.065    616.822    -20.758    510.605    615.000    510.605    512.426    510.605
 67.070    623.339    650.742    -27.403    510.703    648.907    510.703    512.535    510.703
 67.170    699.768    704.764     -4.996    510.801    702.911    510.801    512.646    510.801
 67.270    766.000    787.649    -21.649    510.899    785.778    510.899    512.759    510.899
 67.370    880.000    908.522    -28.522    510.997    906.629    510.997    512.874    510.997
 67.470   1095.000   1074.398     20.602    511.094   1072.484    511.094    512.991    511.094
 67.570   1304.000   1286.841     17.159    511.190   1284.911    511.190    513.110    511.190
 67.670   1521.000   1538.501    -17.501    511.287   1536.563    511.287    513.232    511.287
 67.770   1843.000   1810.533     32.467    511.383   1808.599    511.383    513.357    511.383
 67.870   2031.000   2071.847    -40.847    511.478   2069.930    511.478    513.484    511.478
 67.970   2199.000   2281.567    -82.567    511.573   2279.678    511.573    513.614    511.573
 68.070   2473.000   2397.594     75.406    511.668   2395.736    511.668    513.747    511.668
 68.170   2417.000   2392.426     24.574    511.762   2390.588    511.762    513.883    511.762
 68.270   2314.468   2267.463     47.005    511.856   2265.617    511.856    514.022    511.856
 68.370   2106.000   2052.142     53.858    511.950   2050.251    511.950    514.166    511.950
 68.470   1860.000   1788.925     71.075    512.043   1786.958    512.043    514.313    512.043
 68.570   1568.000   1518.040     49.960    512.135   1515.973    512.135    514.465    512.135
 68.670   1247.000   1269.570    -22.570    512.227   1267.388    512.227    514.622    512.227
 68.770   1032.000   1061.330    -29.330    512.319   1059.027    512.319    514.784    512.319
 68.870    857.000    899.802    -42.802    512.410    897.378    512.410    514.952    512.410
 68.970    740.634    782.831    -42.197    512.501    780.287    512.501    515.126    512.501
 69.070    713.000    703.110      9.890    512.591    700.447    512.591    515.307    512.591
 69.170    671.136    651.471     19.664    512.680    648.691    512.680    515.496    512.680
 69.270    640.511    619.259     21.252    512.769    616.359    512.769    515.693    512.769
 69.370    588.000    599.556    -11.556    512.858    596.530    512.858    515.900    512.858
 69.470    586.000    587.474     -1.474    512.946    584.313    512.946    516.117    512.946
 69.570    597.000    579.885     17.115    513.033    576.579    513.033    516.346    513.033
 69.670    583.127    574.949      8.178    513.120    571.486    513.120    516.588    513.120
 69.770    599.000    571.653     27.347    513.206    568.018    513.206    516.845    513.206
 69.870    537.852    569.469    -31.617    513.292    565.645    513.292    517.118    513.292
 69.970    507.000    568.132    -61.132    513.377    564.100    513.377    517.411    513.377
 70.070    570.000    567.523      2.477    513.461    563.260    513.461    517.725    513.461
 70.170    602.614    567.602     35.012    513.545    563.084    513.545    518.063    513.545
 70.270    578.000    568.408      9.592    513.628    563.605    513.628    518.430    513.628
 70.370    560.000    570.065    -10.065    513.711    564.945    513.711    518.829    513.711
 70.470    566.000    572.850     -6.850    513.792    567.374    513.792    519.265    513.792
 70.570    574.000    577.295     -3.295    513.874    571.418    513.874    519.746    513.874
 70.670    574.944    584.351     -9.406    513.954    578.017    513.954    520.280    513.954
 70.770    564.000    595.609    -31.609    514.034    588.752    514.034    520.879    514.034
 70.870    618.007    613.551      4.456    514.113    606.086    514.113    521.559    514.113
 70.970    610.000    641.730    -31.730    514.192    633.546    514.192    522.347    514.192
 71.070    637.000    684.761    -47.761    514.270    675.711    514.270    523.277    514.270
 71.170    735.000    747.940    -12.940    514.347    737.818    514.347    524.407    514.347
 71.270    822.000    836.346    -14.346    514.423    824.865    514.423    525.817    514.423
 71.370    932.000    953.448    -21.448    514.499    940.205    514.499    527.628    514.499
 71.470   1050.086   1099.365    -49.278    514.574   1083.791    514.574    530.003    514.574
 71.570   1264.000   1269.190     -5.190    514.648   1250.500    514.648    533.165    514.648
 71.670   1445.995   1451.833     -5.838    514.721   1428.968    514.721    537.391    514.721
 71.770   1562.000   1629.731    -67.731    514.794   1601.308    514.794    543.008    514.794
 71.870   1813.000   1780.023     32.977    514.866   1744.315    514.866    550.370    514.866
 71.970   1908.902   1878.438     30.464    514.937   1833.382    514.937    559.811    514.937
 72.070   1938.627   1906.835     31.792    515.007   1850.104    515.007    571.591    515.007
 72.170   1805.864   1861.459    -55.595    515.077   1790.610    515.077    585.819    515.077
 72.270   1705.617   1755.008    -49.391    515.146   1667.713    515.146    602.371    515.146
 72.370   1616.529   1610.172      6.357    515.213   1504.545    515.213    620.801    515.213
 72.470   1452.000   1450.708      1.292    515.281   1325.721    515.281    640.250    515.281
 72.570   1308.215   1295.725     12.490    515.347   1151.713    515.347    659.354    515.347
 72.670   1147.000   1157.505    -10.505    515.412    996.710    515.412    676.210    515.412
 72.770   1012.000   1041.468    -29.468    515.477    868.396    515.477    688.554    515.477
 72.870    995.658    947.557     48.101    515.540    768.801    515.540    694.302    515.540
 72.970    791.000    872.562    -81.562    515.603    695.816    515.603    692.353    515.603
 73.070    737.000    812.416    -75.416    515.665    644.965    515.665    683.119    515.665
 73.170    752.000    763.565    -11.565    515.726    610.986    515.726    668.307    515.726
 73.270    707.000    723.358    -16.358    515.786    588.972    515.786    650.174    515.786
 73.370    689.000    689.943     -0.943    515.846    574.963    515.846    630.828    515.846
 73.470    625.000    662.096    -37.096    515.904    566.105    515.904    611.897    515.904
 73.570    586.000    639.046    -53.046    515.961    560.533    515.961    594.478    515.961
 73.670    638.000    620.315     17.685    516.018    557.132    516.018    579.206    516.018
 73.770    606.000    605.557      0.443    516.073    555.285    516.073    566.353    516.073
 73.870    589.000    594.438     -5.438    516.128    554.664    516.128    555.913    516.128
 73.970    568.000    586.566    -18.566    516.182    555.072    516.182    547.691    516.182
 74.070    564.000    581.459    -17.459    516.234    556.332    516.234    541.381    516.234
 74.170    623.050    578.544     44.506    516.286    558.221    516.286    536.634    516.286
 74.270    603.000    577.171     25.829    516.337    560.433    516.337    533.105    516.337
 74.370    563.949    576.638    -12.689    516.387    562.569    516.387    530.492    516.387
 74.470    601.175    576.234     24.941    516.436    564.165    516.436    528.545    516.436
 74.570    548.326    575.326    -27.000    516.483    564.781    516.483    527.071    516.483
 74.670    625.000    573.500     51.500    516.530    564.141    516.530    525.933    516.530
 74.770    596.193    570.668     25.525    516.576    562.256    516.576    525.029    516.576
 74.870    606.000    567.066     38.934    516.621    559.431    516.621    524.294    516.621
 74.970    588.654    563.126     25.529    516.664    556.141    516.664    523.681    516.664
 75.070    589.000    559.341     29.659    516.707    552.914    516.707    523.160    516.707
 75.170    616.000    556.200     59.800    516.749    550.256    516.749    522.712    516.749
 75.270    579.000    554.173     24.827    516.789    548.654    516.789    522.322    516.789
 75.370    575.000    553.727     21.273    516.829    548.584    516.829    521.979    516.829
 75.470    550.000    555.343     -5.343    516.868    550.536    516.868    521.677    516.868
 75.570    562.000    559.524      2.476    516.905    555.016    516.905    521.409    516.905
 75.670    595.049    566.758     28.291    516.941    562.519    516.941    521.170    516.941
 75.770    578.000    577.442      0.558    516.977    573.444    516.977    520.957    516.977
 75.870    600.777    591.752      9.025    517.011    587.972    517.011    520.766    517.011
 75.970    634.000    609.493     24.507    517.044    605.909    517.044    520.595    517.044
 76.070    628.000    629.954     -1.954    517.076    626.548    517.076    520.441    517.076
 76.170    625.543    651.816    -26.273    517.107    648.571    517.107    520.302    517.107
 76.270    709.000    673.126     35.874    517.136    670.029    517.136    520.176    517.136
 76.370    645.000    691.390    -46.390    517.165    688.432    517.165    520.061    517.165
 76.470    706.000    703.895      2.105    517.193    701.066    517.193    519.957    517.193
 76.570    753.000    708.368     44.632    517.219    705.663    517.219    519.862    517.219
 76.670    725.000    703.863     21.137    517.244    701.275    517.244    519.776    517.244
 76.770    675.350    691.213    -15.863    517.268    688.737    517.268    519.696    517.268
 76.870    694.000    672.616     21.384    517.291    670.245    517.291    519.623    517.291
 76.970    638.000    650.766    -12.766    517.313    648.493    517.313    519.556    517.313
 77.070    616.138    628.160    -12.022    517.333    625.977    517.333    519.494    517.333
 77.170    580.000    606.758    -26.758    517.353    604.658    517.353    519.436    517.353
 77.270    558.584    587.878    -29.293    517.371    585.855    517.371    519.383    517.371
 77.370    556.000    572.204    -16.204    517.388    570.252    517.388    519.333    517.388
 77.470    568.000    559.881      8.119    517.404    557.994    517.404    519.286    517.404
 77.570    481.000    550.655    -69.655    517.418    548.827    517.418    519.243    517.418
 77.670    486.000    544.039    -58.039    517.432    542.267    517.432    519.201    517.432
 77.770    510.302    539.463    -29.161    517.444    537.743    517.444    519.162    517.444
 77.870    497.101    536.381    -39.281    517.455    534.709    517.455    519.126    517.455
 77.970    502.657    534.336    -31.680    517.465    532.709    517.465    519.091    517.465
 78.070    510.000    532.980    -22.980    517.473    531.395    517.473    519.057    517.473
 78.170    533.605    532.069      1.536    517.481    530.524    517.481    519.025    517.481
 78.270    510.000    531.442    -21.442    517.487    529.934    517.487    518.994    517.487
 78.370    526.000    530.987     -4.987    517.491    529.513    517.491    518.965    517.491
 78.470    555.000    530.663     24.337    517.495    529.221    517.495    518.936    517.495
 78.570    526.742    530.477     -3.735    517.497    529.065    517.497    518.909    517.497
 78.670    519.000    530.402    -11.402    517.498    529.017    517.498    518.883    517.498
 78.770    517.000    530.442    -13.442    517.498    529.082    517.498    518.858    517.498
 78.870    510.000    530.616    -20.616    517.497    529.278    517.497    518.834    517.497
 78.970    502.000    530.947    -28.947    517.494    529.629    517.494    518.811    517.494
 79.070    544.340    531.464     12.875    517.490    530.163    517.490    518.790    517.490
 79.170    482.000    532.196    -50.196    517.484    530.907    517.484    518.772    517.484
 79.270    518.000    533.175    -15.175    517.478    531.895    517.478    518.756    517.478
 79.370    500.476    534.427    -33.951    517.470    533.151    517.470    518.742    517.470
 79.470    565.000    535.978     29.022    517.461    534.702    517.461    518.733    517.461
 79.570    552.000    537.863     14.137    517.450    536.581    517.450    518.727    517.450
 79.670    523.417    540.133    -16.715    517.438    538.840    517.438    518.726    517.438
 79.770    596.000    542.872     53.128    517.425    541.562    517.425    518.729    517.425
 79.870    550.000    546.217      3.783    517.411    544.885    517.411    518.737    517.411
 79.970    525.000    550.381    -25.381    517.395    549.022    517.395    518.749    517.395
 80.070    561.190    555.674      5.516    517.378    554.283    517.378    518.765    517.378
 80.170    507.000    562.502    -55.502    517.359    561.076    517.359    518.782    517.359
 80.270    601.000    571.320     29.680    517.339    569.860    517.339    518.799    517.339
 80.370    579.000    582.540     -3.540    517.318    581.048    517.318    518.812    517.318
 80.470    563.000    596.419    -33.419    517.296    594.902    517.296    518.819    517.296
 80.570    657.235    612.958     44.276    517.272    611.426    517.272    518.814    517.272
 80.670    641.000    631.826      9.174    517.247    630.293    517.247    518.795    517.247
 80.770    691.000    652.321     38.679    517.220    650.803    517.220    518.758    517.220
 80.870    663.489    673.397     -9.908    517.192    671.912    517.192    518.704    517.192
 80.970    689.000    693.777     -4.777    517.163    692.338    517.163    518.635    517.163
 81.070    708.000    712.128     -4.128    517.132    710.746    517.132    518.555    517.132
 81.170    702.189    727.246    -25.057    517.100    725.926    517.100    518.467    517.100
 81.270    760.237    738.151     22.086    517.067    736.895    517.067    518.376    517.067
 81.370    790.000    744.167     45.833    517.032    742.974    517.032    518.284    517.032
 81.470    761.452    744.986     16.466    516.996    743.851    516.996    518.193    516.996
 81.570    770.000    740.682     29.318    516.959    739.601    516.959    518.106    516.959
 81.670    744.000    731.682     12.318    516.920    730.647    516.920    518.022    516.920
 81.770    797.000    718.751     78.249    516.880    717.756    516.880    517.942    516.880
 81.870    744.166    702.975     41.191    516.838    702.013    516.838    517.866    516.838
 81.970    662.092    685.608    -23.516    516.795    684.674    516.795    517.793    516.795
 82.070    664.929    667.814     -2.885    516.750    666.901    516.750    517.724    516.750
 82.170    691.000    650.449     40.551    516.705    649.553    516.705    517.658    516.705
 82.270    649.444    634.013     15.431    516.657    633.130    516.657    517.594    516.657
 82.370    600.000    618.740    -18.740    516.609    617.866    516.609    517.531    516.609
 82.470    588.000    604.752    -16.752    516.559    603.885    516.559    517.469    516.559
 82.570    625.011    592.173     32.838    516.507    591.310    516.507    517.408    516.507
 82.670    601.000    581.158     19.842    516.454    580.296    516.454    517.347    516.454
 82.770    576.000    571.861      4.139    516.400    570.999    516.400    517.286    516.400
 82.870    595.301    564.409     30.892    516.344    563.547    516.344    517.225    516.344
 82.970    548.492    558.891    -10.399    516.287    558.027    516.287    517.163    516.287
 83.070    587.231    555.345     31.886    516.229    554.478    516.229    517.100    516.229
 83.170    538.000    553.744    -15.744    516.169    552.873    516.169    517.037    516.169
 83.270    594.355    553.980     40.375    516.107    553.105    516.107    516.973    516.107
 83.370    530.000    555.847    -25.847    516.045    554.967    516.045    516.907    516.045
 83.470    520.912    559.029    -38.117    515.981    558.145    515.981    516.841    515.981
 83.570    565.000    563.104      1.896    515.915    562.215    515.915    516.774    515.915
 83.670    534.231    567.553    -33.321    515.848    566.659    515.848    516.705    515.848
 83.770    544.000    571.783    -27.783    515.779    570.886    515.779    516.636    515.779
 83.870    580.000    575.180      4.820    515.709    574.280    515.709    516.566    515.709
 83.970    591.813    577.181     14.632    515.638    576.281    515.638    516.494    515.638
 84.070    530.000    577.394    -47.394    515.565    576.494    515.565    516.422    515.565
 84.170    551.000    575.697    -24.697    515.491    574.799    515.491    516.348    515.491
 84.270    583.000    572.270     10.730    515.416    571.376    515.416    516.273    515.416
 84.370    568.000    567.521      0.479    515.338    566.630    515.338    516.197    515.338
 84.470    580.751    561.959     18.792    515.260    561.071    515.260    516.120    515.260
 84.570    595.000    556.087     38.913    515.180    555.202    515.180    516.042    515.180
 84.670    608.000    550.339     57.661    515.099    549.457    515.099    515.963    515.099
 84.770    570.124    545.045     25.079    515.016    544.164    515.016    515.882    515.016
 84.870    570.159    540.422     29.737    514.932    539.541    514.932    515.801    514.932
 84.970    521.000    536.579    -15.579    514.846    535.698    514.846    515.718    514.846
 85.070    523.410    533.533    -10.122    514.759    532.650    514.759    515.635    514.759
 85.170    551.000    531.232     19.768    514.671    530.347    514.671    515.550    514.671
 85.270    526.000    529.589     -3.589    514.581    528.701    514.581    515.464    514.581
 85.370    552.000    528.499     23.501    514.489    527.607    514.489    515.377    514.489
 85.470    514.324    527.868    -13.544    514.396    526.971    514.396    515.289    514.396
 85.570    511.000    527.624    -16.624    514.302    526.722    514.302    515.199    514.302
 85.670    557.000    527.730     29.270    514.206    526.822    514.206    515.109    514.206
 85.770    538.000    528.187      9.813    514.109    527.273    514.109    515.018    514.109
 85.870    520.000    529.039     -9.039    514.011    528.117    514.011    514.925    514.011
 85.970    539.000    530.372      8.628    513.911    529.441    513.911    514.831    513.911
 86.070    504.962    532.313    -27.351    513.810    531.373    513.810    514.737    513.810
 86.170    550.000    535.023     14.977    513.707    534.073    513.707    514.641    513.707
 86.270    553.341    538.684     14.657    513.603    537.721    513.603    514.544    513.603
 86.370    535.000    543.478     -8.478    513.497    542.501    513.497    514.447    513.497
 86.470    528.000    549.558    -21.558    513.390    548.565    513.390    514.348    513.390
 86.570    525.916    557.016    -31.100    513.281    556.005    513.281    514.248    513.281
 86.670    558.000    565.839     -7.839    513.171    564.809    513.171    514.148    513.171
 86.770    585.173    575.878      9.295    513.060    574.827    513.060    514.046    513.060
 86.870    617.636    586.814     30.822    512.947    585.741    512.947    513.943    512.947
 86.970    615.000    598.148     16.852    512.833    597.052    512.833    513.840    512.833
 87.070    664.000    609.202     54.798    512.718    608.084    512.718    513.736    512.718
 87.170    657.000    619.150     37.850    512.601    618.012    512.601    513.630    512.601
 87.270    657.000    627.095     29.905    512.482    625.939    512.482    513.524    512.482
 87.370    649.821    632.204     17.617    512.363    631.033    512.363    513.418    512.363
 87.470    604.000    633.905    -29.905    512.241    632.723    512.241    513.310    512.241
 87.570    608.930    632.053    -23.124    512.119    630.864    512.119    513.202    512.119
 87.670    646.000    626.980     19.020    511.995    625.785    511.995    513.093    511.995
 87.770    622.000    619.382      2.618    511.869    618.183    511.869    512.983    511.869
 87.870    594.158    610.146    -15.987    511.743    608.944    511.743    512.873    511.743
 87.970    615.000    600.234     14.766    511.615    599.029    511.615    512.762    511.615
 88.070    622.000    590.543     31.457    511.485    589.332    511.485    512.651    511.485
 88.170    546.136    581.833    -35.697    511.354    580.615    511.354    512.540    511.354
 88.270    559.546    574.711    -15.164    511.222    573.483    511.222    512.428    511.222
 88.370    529.601    569.593    -39.991    511.088    568.354    511.088    512.315    511.088
 88.470    596.000    566.701     29.299    510.953    565.449    510.953    512.203    510.953
 88.570    547.547    566.067    -18.519    510.817    564.799    510.817    512.090    510.817
 88.670    573.946    567.542      6.404    510.679    566.257    510.679    511.977    510.679
 88.770    554.974    570.821    -15.846    510.540    569.517    510.540    511.865    510.540
 88.870    601.000    575.458     25.542    510.400    574.134    510.400    511.752    510.400
 88.970    552.000    580.897    -28.897    510.258    579.551    510.258    511.640    510.258
 89.070    627.320    586.498     40.822    510.115    585.128    510.115    511.528    510.115
 89.170    605.000    591.574     13.426    509.970    590.178    509.970    511.416    509.970
 89.270    605.000    595.450      9.550    509.824    594.023    509.824    511.306    509.824
 89.370    570.000    597.548    -27.548    509.677    596.089    509.677    511.196    509.677
 89.470    596.000    597.499     -1.499    509.529    596.002    509.529    511.087    509.529
 89.570    558.551    595.220    -36.668    509.379    593.680    509.379    510.980    509.379
 89.670    566.000    590.925    -24.925    509.228    589.339    509.228    510.874    509.228
 89.770    559.540    585.049    -25.509    509.076    583.410    509.076    510.770    509.076
 89.870    574.000    578.130     -4.130    508.922    576.434    508.922    510.668    508.922
 89.970    588.512    570.715     17.797    508.767    568.957    508.767    510.569    508.767
 90.070    561.586    563.290     -1.704    508.611    561.465    508.611    510.473    508.611
 90.170    548.290    556.251     -7.962    508.453    554.355    508.453    510.381    508.453
 90.270    590.610    549.888     40.722    508.294    547.916    508.294    510.292    508.294
 90.370    505.000    544.381    -39.381    508.134    542.326    508.134    510.209    508.134
 90.470    496.774    539.811    -43.037    507.972    537.667    507.972    510.132    507.972
 90.570    524.000    536.178    -12.178    507.810    533.936    507.810    510.063    507.810
 90.670    533.038    533.422     -0.384    507.646    531.072    507.646    510.004    507.646
 90.770    500.638    531.449    -30.811    507.481    528.977    507.481    509.957    507.481
 90.870    528.000    530.151     -2.151    507.314    527.543    507.314    509.925    507.314
 90.970    516.723    529.431    -12.708    507.146    526.666    507.146    509.913    507.146
 91.070    493.000    529.211    -36.211    506.978    526.262    506.978    509.927    506.978
 91.170    549.000    529.445     19.555    506.807    526.279    506.807    509.973    506.807
 91.270    485.000    530.126    -45.126    506.636    526.701    506.636    510.059    506.636
 91.370    564.030    531.290     32.741    506.463    527.554    506.463    510.197    506.463
 91.470    502.000    533.015    -31.015    506.290    528.902    506.290    510.398    506.290
 91.570    534.000    535.419     -1.419    506.115    530.849    506.115    510.678    506.115
 91.670    573.036    538.628     34.407    505.938    533.507    505.938    511.052    505.938
 91.770    485.000    542.908    -57.908    505.761    537.121    505.761    511.538    505.761
 91.870    537.000    548.470    -11.470    505.583    541.886    505.583    512.154    505.583
 91.970    554.000    555.531     -1.531    505.403    548.001    505.403    512.916    505.403
 92.070    557.000    564.306     -7.306    505.222    555.665    505.222    513.842    505.222
 92.170    607.676    574.974     32.703    505.040    565.043    505.040    514.944    505.040
 92.270    576.753    587.650    -10.897    504.857    576.245    504.857    516.229    504.857
 92.370    580.000    602.361    -22.361    504.673    589.294    504.673    517.701    504.673
 92.470    654.890    619.016     35.875    504.487    604.107    504.487    519.350    504.487
 92.570    640.425    637.390      3.034    504.301    620.478    504.301    521.161    504.301
 92.670    690.171    657.113     33.057    504.113    638.064    504.113    523.104    504.113
 92.770    689.076    677.664     11.412    503.924    656.389    503.924    525.133    503.924
 92.870    730.000    698.388     31.612    503.734    674.863    503.734    527.189    503.734
 92.970    751.000    718.552     32.448    503.544    692.831    503.544    529.190    503.544
 93.070    747.000    737.435      9.565    503.352    709.674    503.352    531.036    503.352
 93.170    748.272    754.454     -6.182    503.159    724.924    503.159    532.610    503.159
 93.270    730.939    769.265    -38.325    502.964    738.361    502.964    533.790    502.964
 93.370    795.000    781.805     13.195    502.769    750.034    502.769    534.463    502.769
 93.470    817.170    792.240     24.930    502.573    760.184    502.573    534.553    502.573
 93.570    804.000    800.863      3.137    502.376    769.132    502.376    534.034    502.376
 93.670    831.000    808.049     22.951    502.178    777.217    502.178    532.939    502.178
 93.770    791.000    814.239    -23.239    501.978    784.798    501.978    531.352    501.978
 93.870    857.000    819.960     37.040    501.778    792.285    501.778    529.388    501.778
 93.970    846.000    825.816     20.184    501.577    800.160    501.577    527.170    501.577
 94.070    861.896    832.404     29.492    501.375    808.905    501.375    524.813    501.375
 94.170    866.000    840.155     25.845    501.172    818.854    501.172    522.414    501.172
 94.270    862.000    849.174     12.826    500.968    830.032    500.968    520.053    500.968
 94.370    929.000    859.127     69.873    500.763    842.049    500.763    517.787    500.763
 94.470    847.000    869.224    -22.224    500.557    854.073    500.557    515.658    500.557
 94.570    937.000    878.277     58.723    500.350    864.886    500.350    513.696    500.350
 94.670    872.000    884.832    -12.832    500.142    873.021    500.142    511.914    500.142
 94.770    913.000    887.385     25.615    499.934    876.966    499.934    510.320    499.934
 94.870    947.000    884.662     62.338    499.724    875.451    499.724    508.911    499.724
 94.970    926.329    875.922     50.407    499.514    867.743    499.514    507.678    499.514
 95.070    951.000    861.160     89.840    499.302    853.849    499.302    506.607    499.302
 95.170    876.440    841.127     35.312    499.090    834.535    499.090    505.683    499.090
 95.270    866.000    817.172     48.828    498.877    811.166    498.877    504.889    498.877
 95.370    757.000    791.004    -34.004    498.664    785.471    498.664    504.206    498.664
 95.470    784.750    764.484     20.266    498.449    759.326    498.449    503.618    498.449
 95.570    731.000    739.465     -8.465    498.234    734.602    498.234    503.108    498.234
 95.670    709.000    717.703     -8.703    498.017    713.066    498.017    502.663    498.017
 95.770    670.000    700.792    -30.792    497.801    696.326    497.801    502.271    497.801
 95.870    686.957    690.139     -3.183    497.583    685.800    497.583    501.921    497.583
 95.970    691.000    686.940      4.060    497.364    682.690    497.364    501.607    497.364
 96.070    653.368    692.228    -38.861    497.145    688.037    497.145    501.321    497.145
 96.170    723.000    706.794     16.206    496.925    702.635    496.925    501.059    496.925
 96.270    696.000    731.199    -35.199    496.705    727.052    496.705    500.816    496.705
 96.370    787.633    765.739     21.894    496.484    761.585    496.484    500.590    496.484
 96.470    846.000    810.368     35.632    496.262    806.192    496.262    500.380    496.262
 96.570    843.000    864.615    -21.615    496.039    860.402    496.039    500.182    496.039
 96.670    927.000    927.487     -0.487    495.816    923.226    495.816    499.997    495.816
 96.770   1033.000    997.399     35.601    495.592    993.077    495.592    499.825    495.592
 96.870   1065.000   1072.116     -7.116    495.367   1067.724    495.367    499.664    495.367
 96.970   1141.000   1148.745     -7.745    495.142   1144.273    495.142    499.514    495.142
 97.070   1246.000   1223.774     22.226    494.917   1219.213    494.917    499.377    494.917
 97.170   1294.000   1293.194      0.806    494.690   1288.535    494.690    499.252    494.690
 97.270   1309.849   1352.726    -42.877    494.464   1347.962    494.464    499.140    494.464
 97.370   1388.480   1398.236     -9.756    494.236   1393.356    494.236    499.042    494.236
 97.470   1445.000   1426.302     18.698    494.008   1421.295    494.008    498.959    494.008
 97.570   1418.000   1434.838    -16.838    493.780   1429.689    493.780    498.893    493.780
 97.670   1430.000   1423.516      6.484    493.551   1418.207    493.551    498.845    493.551
 97.770   1412.124   1393.769     18.355    493.322   1388.278    493.322    498.818    493.322
 97.870   1319.000   1348.434    -29.434    493.092   1342.733    493.092    498.815    493.092
 97.970   1293.000   1291.194      1.806    492.862   1285.251    492.862    498.841    492.862
 98.070   1204.000   1226.072    -22.072    492.631   1219.849    492.631    498.901    492.631
 98.170   1200.363   1157.065     43.298    492.400   1150.515    492.400    499.002    492.400
 98.270   1098.000   1087.911     10.089    492.168   1080.980    492.168    499.154    492.168
 98.370   1083.000   1021.951     61.049    491.936   1014.572    491.936    499.369    491.936
 98.470    961.000    962.057     -1.057    491.704    954.149    491.704    499.662    491.704
 98.570    910.000    910.609     -0.609    491.472    902.071    491.472    500.052    491.472
 98.670    879.000    869.506      9.494    491.239    860.217    491.239    500.563    491.239
 98.770    785.000    840.210    -55.210    491.005    830.018    491.005    501.223    491.005
 98.870    775.139    823.802    -48.663    490.772    812.524    490.772    502.067    490.772
 98.970    818.000    821.049     -3.049    490.538    808.461    490.538    503.134    490.538
 99.070    830.000    832.456     -2.456    490.304    818.290    490.304    504.469    490.304
 99.170    850.000    858.299     -8.299    490.070    842.238    490.070    506.121    490.070
 99.270    870.000    898.620    -28.620    489.835    880.295    489.835    508.145    489.835
 99.370    901.965    953.195    -51.230    489.601    932.181    489.601    510.595    489.601
 99.470   1072.000   1021.466     50.534    489.366    997.285    489.366    513.525    489.366
 99.570   1134.000   1102.461     31.539    489.131   1074.585    489.131    516.985    489.131
 99.670   1175.305   1194.697    -19.392    488.895   1162.556    488.895    521.018    488.895
 99.770   1321.446   1296.147     25.299    488.660   1259.141    488.660    525.655    488.660
 99.870   1424.000   1404.131     19.869    488.425   1361.647    488.425    530.909    488.425
 99.970   1495.221   1515.325    -20.104    488.189   1466.754    488.189    536.775    488.189
100.070   1687.000   1625.848     61.152    487.953   1570.616    487.953    543.220    487.953
100.170   1841.000   1731.451    109.549    487.718   1669.045    487.718    550.181    487.718
100.270   1853.995   1827.829     26.167    487.482   1757.831    487.482    557.562    487.482
100.370   1929.518   1910.998     18.520    487.246   1833.125    487.246    565.228    487.246
100.470   1954.000   1977.618    -23.618    487.011   1891.766    487.011    572.997    487.011
100.570   2058.000   2025.140     32.860    486.775   1931.430    486.775    580.643    486.775
100.670   2077.000   2051.795     25.205    486.540   1950.625    486.540    587.890    486.540
100.770   2087.000   2056.563     30.437    486.304   1948.647    486.304    594.418    486.304
100.870   2049.000   2039.268      9.732    486.069   1925.666    486.069    599.882    486.069
100.970   2005.000   2000.816      4.184    485.833   1882.930    485.833    603.938    485.833
101.070   2000.195   1943.419     56.776    485.598   1822.944    485.598    606.297    485.598
101.170   1758.000   1870.593   -112.593    485.363   1749.412    485.363    606.764    485.363
101.270   1742.000   1786.825    -44.825    485.128   1666.881    485.128    605.286    485.128
101.370   1699.000   1697.044      1.956    484.894   1580.180    484.894    601.959    484.894
101.470   1656.939   1606.048     50.891    484.659   1493.886    484.659    597.009    484.659
101.570   1496.000   1518.062    -22.062    484.425   1411.911    484.425    590.749    484.425
101.670   1415.000   1436.457    -21.457    484.191   1337.279    484.191    583.525    484.191
101.770   1376.000   1363.606     12.394    483.958   1272.025    483.958    575.678    483.958
101.870   1261.000   1300.858    -39.858    483.724   1217.188    483.724    567.519    483.724
101.970   1228.000   1248.563    -20.563    483.492   1172.859    483.492    559.307    483.492
102.070   1166.000   1206.172    -40.172    483.259   1138.274    483.259    551.258    483.259
102.170   1189.000   1172.358     16.642    483.027   1111.941    483.027    543.537    483.027
102.270   1194.526   1145.186     49.340    482.795   1091.801    482.795    536.269    482.795
102.370   1112.000   1122.328    -10.328    482.564   1075.439    482.564    529.537    482.564
102.470   1079.517   1101.320    -21.803    482.333   1060.337    482.333    523.399    482.333
102.570   1027.000   1079.860    -52.860    482.102   1044.169    482.102    517.878    482.102
102.670   1038.000   1056.104    -18.104    481.872   1025.088    481.872    512.972    481.872
102.770   1010.296   1028.883    -18.587    481.643   1001.947    481.643    508.664    481.643
102.870    974.000    997.784    -23.784    481.414    974.364    481.414    504.918    481.414
102.970    983.000    963.060     19.940    481.186    942.641    481.186    501.689    481.186
103.070    864.000    925.456    -61.456    480.958    907.569    480.958    498.926    480.958
103.170    830.000    885.990    -55.990    480.731    870.225    480.731    496.573    480.731
103.270    871.000    845.786     25.214    480.505    831.787    480.505    494.577    480.505
103.370    775.000    805.946    -30.946    480.279    793.407    480.279    492.884    480.279
103.470    775.000    767.465      7.535    480.054    756.133    480.054    491.446    480.054
103.570    736.000    731.183      4.817    479.830    720.846    479.830    490.220    479.830
103.670    652.079    697.751    -45.672    479.606    688.235    479.606    489.168    479.606
103.770    726.000    667.614     58.386    479.383    658.780    479.383    488.257    479.383
103.870    660.000    641.019     18.981    479.161    632.753    479.161    487.460    479.161
103.970    610.000    618.024     -8.024    478.940    610.236    478.940    486.756    478.940
104.070    628.659    598.533     30.126    478.720    591.150    478.720    486.125    478.720
104.170    613.000    582.326     30.674    478.500    575.291    478.500    485.554    478.500
104.270    553.000    569.101    -16.101    478.282    562.365    478.282    485.032    478.282
104.370    594.001    558.507     35.494    478.064    552.033    478.064    484.549    478.064
104.470    588.000    550.181     37.819    477.848    543.937    477.848    484.100    477.848
104.570    555.000    543.770     11.230    477.632    537.730    477.632    483.678    477.632
104.670    521.075    538.960    -17.884    477.418    533.101    477.418    483.280    477.418
104.770    571.000    535.469     35.531    477.204    529.772    477.204    482.902    477.204
104.870    560.000    533.068     26.932    476.992    527.516    476.992    482.543    476.992
104.970    507.012    531.595    -24.583    476.780    526.174    476.780    482.201    476.780
105.070    560.258    530.928     29.330    476.570    525.623    476.570    481.873    476.570
105.170    551.000    530.992     20.008    476.361    525.790    476.361    481.558    476.361
105.270    541.000    531.758      9.242    476.153    526.649    476.153    481.256    476.153
105.370    561.516    533.238     28.278    475.946    528.211    475.946    480.966    475.946
105.470    534.000    535.476     -1.476    475.741    530.520    475.741    480.687    475.741
105.570    532.744    538.539     -5.796    475.537    533.647    475.537    480.418    475.537
105.670    508.411    542.515    -34.104    475.334    537.676    475.334    480.159    475.334
105.770    571.825    547.491     24.334    475.133    542.698    475.133    479.909    475.133
105.870    584.000    553.547     30.453    474.932    548.792    474.932    479.669    474.932
105.970    587.000    560.739     26.261    474.734    556.014    474.734    479.436    474.734
106.070    556.000    569.086    -13.086    474.536    564.385    474.536    479.213    474.536
106.170    562.239    578.558    -16.319    474.341    573.874    474.341    478.997    474.341
106.270    586.000    589.070     -3.070    474.146    584.396    474.146    478.789    474.146
106.370    630.606    600.474     30.132    473.953    595.804    473.953    478.589    473.953
106.470    586.000    612.558    -26.558    473.762    607.887    473.762    478.396    473.762
106.570    563.000    625.050    -62.050    473.572    620.372    473.572    478.211    473.572
106.670    631.752    637.623     -5.871    473.384    632.932    473.384    478.033    473.384
106.770    684.954    649.904     35.050    473.198    645.196    473.198    477.862    473.198
106.870    633.813    661.493    -27.680    473.013    656.762    473.013    477.699    473.013
106.970    663.000    671.987     -8.987    472.830    667.230    472.830    477.542    472.830
107.070    644.000    681.014    -37.014    472.648    676.226    472.648    477.393    472.648
107.170    670.310    688.283    -17.973    472.469    683.459    472.469    477.252    472.469
107.270    704.000    693.627     10.373    472.291    688.762    472.291    477.117    472.291
107.370    633.000    697.041    -64.041    472.115    692.130    472.115    476.990    472.115
107.470    663.000    698.692    -35.692    471.941    693.730    471.941    476.871    471.941
107.570    716.000    698.890     17.110    471.769    693.871    471.769    476.759    471.769
107.670    623.000    698.035    -75.035    471.599    692.955    471.599    476.655    471.599
107.770    677.000    696.561    -19.561    471.430    691.413    471.430    476.559    471.430
107.870    723.000    694.876     28.124    471.264    689.653    471.264    476.471    471.264
107.970    683.000    693.320    -10.320    471.100    688.017    471.100    476.392    471.100
108.070    688.000    692.140     -4.140    470.938    686.750    470.938    476.321    470.938
108.170    665.986    691.471    -25.485    470.778    685.987    470.778    476.259    470.778
108.270    640.000    691.327    -51.327    470.620    685.741    470.620    476.206    470.620
108.370    665.000    691.604    -26.604    470.464    685.909    470.464    476.163    470.464
108.470    634.000    692.085    -58.085    470.310    686.273    470.310    476.130    470.310
108.570    713.000    692.460     20.540    470.159    686.523    470.159    476.107    470.159
108.670    707.000    692.354     14.646    470.010    686.284    470.010    476.094    470.010
108.770    677.000    691.372    -14.372    469.863    685.160    469.863    476.093    469.863
108.870    656.352    689.150    -32.797    469.719    682.785    469.719    476.103    469.719
108.970    697.000    685.409     11.591    469.577    678.882    469.577    476.126    469.577
109.070    697.000    680.005     16.995    469.437    673.304    469.437    476.161    469.437
109.170    672.000    672.941     -0.941    469.300    666.055    469.300    476.210    469.300
109.270    697.807    664.363     33.443    469.166    657.279    469.166    476.274    469.166
109.370    649.829    654.523     -4.694    469.034    647.228    469.034    476.353    469.034
109.470    658.000    643.740     14.260    468.904    636.220    468.904    476.447    468.904
109.570    622.000    632.362    -10.362    468.777    624.602    468.777    476.559    468.777
109.670    700.000    620.733     79.267    468.653    612.717    468.653    476.690    468.653
109.770    628.272    609.179     19.093    468.532    600.888    468.532    476.841    468.532
109.870    635.000    597.987     37.013    468.413    589.404    468.413    477.013    468.413
109.970    605.000    587.406     17.594    468.297    578.508    468.297    477.209    468.297
110.070    558.899    577.631    -18.732    468.183    568.396    468.183    477.431    468.183
110.170    624.000    568.812     55.188    468.073    559.213    468.073    477.683    468.073
110.270    572.000    561.042     10.958    467.965    551.050    467.965    477.967    467.965
110.370    610.000    554.351     55.649    467.861    543.931    467.861    478.287    467.861
110.470    566.000    548.777     17.223    467.759    537.890    467.759    478.650    467.759
110.570    570.000    544.312     25.688    467.660    532.914    467.660    479.062    467.660
110.670    501.000    540.886    -39.886    467.564    528.922    467.564    479.530    467.564
110.770    545.000    538.424      6.576    467.472    525.832    467.472    480.064    467.472
110.870    558.000    536.848     21.152    467.382    523.553    467.382    480.676    467.382
110.970    553.000    536.071     16.929    467.296    521.985    467.296    481.379    467.296
111.070    494.049    536.012    -41.963    467.213    521.030    467.213    482.192    467.213
111.170    550.000    536.598     13.402    467.133    520.593    467.133    483.134    467.133
111.270    503.808    537.763    -33.955    467.056    520.586    467.056    484.228    467.056
111.370    550.000    539.458     10.542    466.983    520.931    466.983    485.504    466.983
111.470    545.000    541.646      3.354    466.912    521.559    466.912    486.994    466.912
111.570    542.000    544.307     -2.307    466.846    522.411    466.846    488.734    466.846
111.670    568.306    547.435     20.871    466.783    523.442    466.783    490.768    466.783
111.770    513.795    551.041    -37.246    466.723    524.615    466.723    493.142    466.723
111.870    562.000    555.151      6.849    466.667    525.903    466.667    495.907    466.667
111.970    582.000    559.805     22.195    466.614    527.293    466.614    499.118    466.614
112.070    604.086    565.058     39.028    466.565    528.780    466.565    502.835    466.565
112.170    554.555    570.978    -16.423    466.520    530.372    466.520    507.117    466.520
112.270    559.000    577.639    -18.639    466.478    532.083    466.478    512.026    466.478
112.370    584.321    585.127     -0.806    466.440    533.938    466.440    517.620    466.440
112.470    569.000    593.531    -24.531    466.406    535.971    466.406    523.957    466.406
112.570    595.000    602.941     -7.941    466.375    538.224    466.375    531.084    466.375
112.670    568.644    613.454    -44.811    466.349    540.751    466.349    539.043    466.349
112.770    585.483    625.167    -39.684    466.326    543.622    466.326    547.862    466.326
112.870    645.000    638.181      6.819    466.307    546.925    466.307    557.554    466.307
112.970    696.941    652.607     44.334    466.293    550.776    466.293    568.114    466.293
113.070    703.840    668.569     35.271    466.282    555.326    466.282    579.516    466.282
113.170    732.928    686.214     46.714    466.275    560.771    466.275    591.707    466.275
113.270    687.000    705.720    -18.720    466.273    567.369    466.273    604.612    466.273
113.370    764.368    727.315     37.053    466.275    575.456    466.275    618.120    466.275
113.470    761.000    751.288      9.712    466.281    585.462    466.281    632.090    466.281
113.570    798.453    778.014     20.439    466.291    597.939    466.291    646.346    466.291
113.670    819.240    807.970     11.269    466.305    613.581    466.305    660.671    466.305
113.770    821.000    841.765    -20.765    466.324    633.251    466.324    674.810    466.324
113.870    824.000    880.159    -56.159    466.347    658.005    466.347    688.466    466.347
113.970    971.523    924.091     47.432    466.375    689.116    466.375    701.306    466.375
114.070    998.000    974.701     23.299    466.407    728.088    466.407    712.965    466.407
114.170   1005.000   1033.354    -28.354    466.444    776.664    466.444    723.065    466.444
114.270   1029.000   1101.668    -72.668    466.486    836.825    466.486    731.242    466.486
114.370   1191.949   1181.504     10.445    466.532    910.764    466.532    737.164    466.532
114.470   1295.000   1274.970     20.030    466.582   1000.848    466.582    740.573    466.582
114.570   1447.000   1384.390     62.610    466.638   1109.555    466.638    741.313    466.638
114.670   1467.088   1512.227    -45.139    466.698   1239.382    466.698    739.351    466.698
114.770   1720.535   1660.978     59.557    466.763   1392.729    466.763    734.782    466.763
114.870   1886.000   1833.019     52.981    466.833   1571.766    466.833    727.815    466.833
114.970   2008.529   2030.421    -21.893    466.908   1778.265    466.908    718.749    466.908
115.070   2249.007   2254.742     -5.736    466.987   2013.431    466.987    707.936    466.987
115.170   2735.000   2506.816    228.184    467.072   2277.724    467.072    695.753    467.072
115.270   2956.000   2786.557    169.443    467.162   2570.685    467.162    682.573    467.162
115.370   3040.328   3092.780    -52.452    467.257   2890.781    467.257    668.747    467.257
115.470   3467.229   3423.072     44.157    467.358   3235.287    467.358    654.590    467.358
115.570   3728.000   3773.697    -45.697    467.463   3600.196    467.463    640.372    467.463
115.670   4225.355   4139.586     85.769    467.574   3980.193    467.574    626.343    467.574
115.770   4527.302   4514.324     12.978    467.690   4368.674    467.690    612.693    467.690
115.870   4975.247   4890.259     84.987    467.811   4757.831    467.811    599.582    467.811
115.970   5286.000   5258.646     27.354    467.938   5138.794    467.938    587.134    467.938
116.070   5658.916   5609.859     49.057    468.070   5501.849    468.070    575.441    468.070
116.170   6005.000   5933.692     71.308    468.208   5836.725    468.208    564.570    468.208
116.270   6168.000   6219.753    -51.753    468.352   6132.991    468.352    554.557    468.352
116.370   6460.000   6457.974      2.026    468.501   6380.564    468.501    545.419    468.501
116.470   6814.000   6639.251    174.749    468.656   6570.343    468.656    537.151    468.656
116.570   6663.000   6756.160    -93.160    468.816   6694.922    468.816    529.733    468.816
116.670   6804.000   6803.660      0.340    468.982   6749.292    468.982    523.130    468.982
116.770   6819.000   6779.632     39.368    469.155   6731.375    469.155    517.296    469.155
116.870   6748.000   6685.115     62.885    469.333   6642.256    469.333    512.180    469.333
116.970   6501.000   6524.168    -23.168    469.517   6486.050    469.517    507.722    469.517
117.070   6172.000   6303.408   -131.408    469.707   6269.427    469.707    503.864    469.707
117.170   5937.000   6031.336    -94.336    469.903   6000.949    469.903    500.543    469.903
117.270   5750.229   5717.620     32.609    470.105   5690.341    470.105    497.701    470.105
117.370   5191.000   5372.433   -181.433    470.314   5347.831    470.314    495.280    470.314
117.470   4930.000   5005.901    -75.901    470.528   4983.601    470.528    493.227    470.528
117.570   4504.000   4627.705   -123.705    470.749   4607.378    470.749    491.493    470.749
117.670   4128.546   4246.786   -118.240    470.976   4228.152    470.976    490.034    470.976
117.770   3841.000   3871.033    -30.033    471.210   3853.852    471.210    488.810    471.210
117.870   3464.000   3507.196    -43.196    471.450   3491.263    471.450    487.785    471.450
117.970   3092.170   3160.784    -68.614    471.696   3145.929    471.696    486.931    471.696
118.070   2741.015   2836.041    -95.026    471.950   2822.119    471.950    486.221    471.950
118.170   2587.006   2535.973     51.033    472.209   2522.866    472.209    485.634    472.209
118.270   2138.000   2262.435   -124.435    472.476   2250.043    472.476    485.149    472.476
118.370   1996.000   2016.240    -20.240    472.749   2004.481    472.749    484.754    472.749
118.470   1751.950   1797.307    -45.356    473.029   1786.112    473.029    484.433    473.029
118.570   1548.000   1604.811    -56.811    473.316   1594.124    473.316    484.178    473.316
118.670   1420.144   1437.348    -17.204    473.609   1427.123    473.609    483.980    473.609
118.770   1342.484   1293.092     49.392    473.910   1283.288    473.910    483.831    473.910
118.870   1186.529   1169.944     16.584    474.218   1160.528    474.218    483.726    474.218
118.970   1037.361   1065.667    -28.306    474.532   1056.610    474.532    483.661    474.532
119.070    996.139    977.999     18.141    474.854    969.276    474.854    483.632    474.854
119.170    875.299    904.743    -29.444    475.183    896.331    475.183    483.636    475.183
119.270    843.000    843.840     -0.840    475.520    835.718    475.520    483.670    475.520
119.370    788.000    793.404     -5.404    475.863    785.555    475.863    483.734    475.863
119.470    720.000    751.758    -31.758    476.214    744.163    476.214    483.825    476.214
119.570    755.716    717.436     38.280    476.573    710.077    476.573    483.942    476.573
119.670    722.000    689.180     32.820    476.939    682.041    476.939    484.084    476.939
119.770    640.253    665.931    -25.678    477.312    658.996    477.312    484.252    477.312
119.870    581.000    646.806    -65.806    477.693    640.060    477.693    484.443    477.693
119.970    650.000    631.084     18.916    478.082    624.510    478.082    484.659    478.082
120.070    606.000    618.176    -12.176    478.478    611.758    478.478    484.898    478.478
120.170    607.000    607.609     -0.609    478.883    601.333    478.883    485.162    478.883
120.270    554.000    599.008    -45.008    479.295    592.857    479.295    485.449    479.295
120.370    621.000    592.073     28.927    479.715    586.031    479.715    485.760    479.715
120.470    621.000    586.569     34.431    480.143    580.619    480.143    486.096    480.143
120.570    562.000    582.310    -20.310    480.579    576.437    480.579    486.456    480.579
120.670    514.000    579.151    -65.151    481.023    573.337    481.023    486.842    481.023
120.770    565.000    576.978    -11.978    481.476    571.207    481.476    487.252    481.476
120.870    601.000    575.699     25.301    481.936    569.954    481.936    487.688    481.936
120.970    563.774    575.240    -11.466    482.405    569.504    482.405    488.149    482.405
121.070    615.730    575.540     40.190    482.882    569.795    482.882    488.636    482.882
121.170    546.000    576.545    -30.545    483.368    570.774    483.368    489.149    483.368
121.270    610.042    578.204     31.838    483.862    572.390    483.862    489.687    483.862
121.370    572.000    580.466     -8.466    484.365    574.592    484.365    490.251    484.365
121.470    596.000    583.279     12.721    484.876    577.330    484.876    490.839    484.876
121.570    598.000    586.586     11.414    485.396    580.547    485.396    491.452    485.396
121.670    640.000    590.326     49.674    485.925    584.182    485.925    492.088    485.925
121.770    631.695    594.428     37.268    486.463    588.166    486.463    492.746    486.463
121.870    632.383    598.815     33.568    487.009    592.423    487.009    493.424    487.009
121.970    600.753    603.401     -2.648    487.564    596.871    487.564    494.121    487.564
122.070    594.835    608.095    -13.260    488.129    601.417    488.129    494.835    488.129
122.170    635.000    612.796     22.204    488.702    605.966    488.702    495.563    488.702
122.270    620.000    617.399      2.601    489.285    610.415    489.285    496.302    489.285
122.370    576.000    621.796    -45.796    489.877    614.659    489.877    497.050    489.877
122.470    587.785    625.878    -38.093    490.478    618.593    490.478    497.801    490.478
122.570    632.367    629.541      2.826    491.088    622.116    491.088    498.554    491.088
122.670    643.165    632.688     10.477    491.708    625.136    491.708    499.303    491.708
122.770    653.009    635.239     17.771    492.338    627.577    492.338    500.044    492.338
122.870    656.000    637.129     18.871    492.977    629.378    492.977    500.773    492.977
122.970    627.751    638.319    -10.567    493.625    630.505    493.625    501.485    493.625
123.070    575.000    638.794    -63.794    494.283    630.946    494.283    502.177    494.283
123.170    659.000    638.564     20.436    494.951    630.715    494.951    502.846    494.951
123.270    621.000    637.663    -16.663    495.629    629.847    495.629    503.491    495.629
123.370    671.000    636.142     34.858    496.317    628.394    496.317    504.109    496.317
123.470    664.000    634.066     29.934    497.015    626.421    497.015    504.703    497.015
123.570    611.000    631.510    -20.510    497.722    624.001    497.722    505.273    497.722
123.670    622.000    628.554     -6.554    498.440    621.211    498.440    505.822    498.440
123.770    606.000    625.278    -19.278    499.168    618.128    499.168    506.354    499.168
123.870    630.000    621.762      8.238    499.906    614.828    499.906    506.873    499.906
123.970    598.384    618.082    -19.697    500.655    611.383    500.655    507.384    500.655
124.070    650.000    614.306     35.694    501.414    607.857    501.414    507.890    501.414
124.170    656.956    610.495     46.461    502.183    604.307    502.183    508.396    502.183
124.270    623.000    606.701     16.299    502.963    600.780    502.963    508.906    502.963
124.370    598.211    602.965     -4.754    503.754    597.314    503.754    509.423    503.754
124.470    584.000    599.318    -15.318    504.555    593.938    504.555    509.951    504.555
124.570    608.000    595.783     12.217    505.367    590.672    505.367    510.492    505.367
124.670    646.000    592.374     53.626    506.190    587.526    506.190    511.050    506.190
124.770    549.737    589.097    -39.360    507.024    584.506    507.024    511.625    507.024
124.870    627.000    585.954     41.046    507.868    581.611    507.868    512.220    507.868
124.970    547.000    582.944    -35.944    508.724    578.840    508.724    512.836    508.724
