neutron_powder_diffraction_0224
R_wp: 3.942
Temperature (K): 1074.000
Counts: 84020.00
Wavelength (Ã…): 2.52098
COMMENTS
Test file for demonstrating the .xyy file format in Reel1.0
END OF HEADER
   tth       Y_obs     Y_calc      Y_res    Background    Phase_1_Nuc    Phase_1_Mag    Phase_2_Nuc    Phase_2_Mag
  9.970    592.000    577.231     14.769    576.641    577.183    576.641    576.689    576.641
 10.070    625.000    577.302     47.698    576.647    577.253    576.647    576.695    576.647
 10.170    581.000    577.361      3.639    576.648    577.312    576.648    576.697    576.648
 10.270    589.000    577.421     11.579    576.644    577.372    576.644    576.693    576.644
 10.370    564.000    577.486    -13.486    576.636    577.436    576.636    576.684    576.636
 10.470    583.000    577.558      5.442    576.622    577.509    576.622    576.671    576.622
 10.570    551.707    577.642    -25.936    576.603    577.592    576.603    576.653    576.603
 10.670    569.000    577.746     -8.746    576.580    577.690    576.580    576.636    576.580
 10.770    536.679    577.866    -41.187    576.552    577.809    576.552    576.609    576.552
 10.870    579.000    578.013      0.987    576.520    577.955    576.520    576.576    576.520
 10.970    599.447    578.198     21.249    576.482    578.140    576.482    576.539    576.482
 11.070    583.000    578.436      4.564    576.440    578.378    576.440    576.498    576.440
 11.170    567.000    578.750    -11.750    576.394    578.691    576.394    576.451    576.394
 11.270    564.000    579.173    -15.173    576.343    579.113    576.343    576.401    576.343
 11.370    570.000    579.760     -9.760    576.287    579.700    576.287    576.345    576.287
 11.470    554.120    580.633    -26.513    576.227    580.572    576.227    576.286    576.227
 11.570    576.000    582.136     -6.136    576.163    582.074    576.163    576.222    576.163
 11.670    622.286    585.336     36.949    576.094    585.272    576.094    576.153    576.094
 11.770    593.406    592.986      0.420    576.021    592.917    576.021    576.081    576.021
 11.870    622.741    609.993     12.748    575.944    609.914    575.944    576.004    575.944
 11.970    632.000    640.744     -8.744    575.863    640.648    575.863    575.923    575.863
 12.070    700.473    681.710     18.763    575.777    681.590    575.777    575.838    575.777
 12.170    735.240    714.483     20.758    575.688    714.343    575.688    575.749    575.688
 12.270    673.000    715.473    -42.473    575.594    715.329    575.594    575.659    575.594
 12.370    668.423    683.677    -15.254    575.496    683.550    575.496    575.562    575.496
 12.470    602.996    642.284    -39.288    575.395    642.179    575.395    575.461    575.395
 12.570    601.000    610.570     -9.570    575.289    610.483    575.289    575.356    575.289
 12.670    600.487    592.737      7.750    575.180    592.659    575.180    575.247    575.180
 12.770    609.318    584.567     24.750    575.066    584.494    575.066    575.134    575.066
 12.870    587.000    581.052      5.948    574.949    580.980    574.949    575.018    574.949
 12.970    572.000    579.319     -7.319    574.828    579.248    574.828    574.897    574.828
 13.070    558.000    578.245    -20.245    574.704    578.174    574.704    574.773    574.704
 13.170    588.416    577.465     10.951    574.575    577.394    574.575    574.645    574.575
 13.270    609.563    576.856     32.707    574.444    576.785    574.444    574.513    574.444
 13.370    550.610    576.358    -25.748    574.308    576.287    574.308    574.378    574.308
 13.470    543.000    575.938    -32.938    574.169    575.866    574.169    574.240    574.169
 13.570    557.000    575.573    -18.573    574.027    575.501    574.027    574.098    574.027
 13.670    618.725    575.248     43.477    573.881    575.176    573.881    573.952    573.881
 13.770    562.209    574.953    -12.745    573.731    574.881    573.731    573.803    573.731
 13.870    550.226    574.681    -24.454    573.578    574.608    573.578    573.651    573.578
 13.970    592.000    574.424     17.576    573.422    574.351    573.422    573.495    573.422
 14.070    576.000    574.181      1.819    573.263    574.108    573.263    573.336    573.263
 14.170    591.000    573.947     17.053    573.100    573.873    573.100    573.174    573.100
 14.270    606.595    573.720     32.876    572.934    573.646    572.934    573.008    572.934
 14.370    601.311    573.498     27.813    572.765    573.424    572.765    572.839    572.765
 14.470    564.178    573.280     -9.103    572.593    573.206    572.593    572.668    572.593
 14.570    542.000    573.066    -31.066    572.418    572.991    572.418    572.493    572.418
 14.670    587.000    572.853     14.147    572.240    572.777    572.240    572.315    572.240
 14.770    520.000    572.641    -52.641    572.058    572.565    572.058    572.134    572.058
 14.870    555.000    572.432    -17.432    571.874    572.354    571.874    571.952    571.874
 14.970    556.000    572.221    -16.221    571.687    572.142    571.687    571.765    571.687
 15.070    573.317    572.010      1.307    571.497    571.931    571.497    571.575    571.497
 15.170    541.000    571.798    -30.798    571.304    571.719    571.304    571.383    571.304
 15.270    563.000    571.589     -8.589    571.108    571.509    571.108    571.187    571.108
 15.370    567.000    571.377     -4.377    570.909    571.297    570.909    570.989    570.909
 15.470    602.000    571.163     30.837    570.708    571.082    570.708    570.788    570.708
 15.570    540.143    570.947    -30.804    570.504    570.866    570.504    570.585    570.504
 15.670    536.000    570.730    -34.730    570.297    570.648    570.297    570.378    570.297
 15.770    612.787    570.511     42.277    570.088    570.429    570.088    570.170    570.088
 15.870    578.000    570.291      7.709    569.876    570.208    569.876    569.958    569.876
 15.970    544.000    570.069    -26.069    569.661    569.986    569.661    569.744    569.661
 16.070    587.000    569.845     17.155    569.444    569.761    569.444    569.527    569.444
 16.170    632.000    569.620     62.380    569.225    569.536    569.225    569.308    569.225
 16.270    523.000    569.392    -46.392    569.003    569.308    569.003    569.087    569.003
 16.370    601.034    569.163     31.870    568.778    569.078    568.778    568.863    568.778
 16.470    605.116    568.933     36.183    568.551    568.847    568.551    568.637    568.551
 16.570    573.222    568.700      4.522    568.322    568.614    568.322    568.408    568.322
 16.670    595.868    568.466     27.402    568.091    568.379    568.091    568.177    568.091
 16.770    506.000    568.230    -62.230    567.857    568.143    567.857    567.944    567.857
 16.870    599.717    567.992     31.725    567.621    567.904    567.621    567.709    567.621
 16.970    559.686    567.752     -8.066    567.383    567.664    567.383    567.471    567.383
 17.070    606.944    567.510     39.433    567.143    567.422    567.143    567.232    567.143
 17.170    584.183    567.267     16.915    566.900    567.178    566.900    566.990    566.900
 17.270    558.000    567.023     -9.023    566.656    566.932    566.656    566.746    566.656
 17.370    545.979    566.781    -20.802    566.409    566.685    566.409    566.505    566.409
 17.470    594.862    566.534     28.328    566.161    566.436    566.161    566.259    566.161
 17.570    605.000    566.284     38.716    565.910    566.185    565.910    566.009    565.910
 17.670    550.000    566.032    -16.032    565.657    565.932    565.657    565.757    565.657
 17.770    548.000    565.779    -17.779    565.403    565.678    565.403    565.503    565.403
 17.870    540.000    565.524    -25.524    565.147    565.423    565.147    565.248    565.147
 17.970    612.010    565.268     46.742    564.888    565.166    564.888    564.990    564.888
 18.070    597.000    565.012     31.988    564.628    564.909    564.628    564.731    564.628
 18.170    591.000    564.755     26.245    564.366    564.651    564.366    564.470    564.366
 18.270    553.434    564.494    -11.059    564.103    564.390    564.103    564.207    564.103
 18.370    522.819    564.231    -41.412    563.837    564.126    563.837    563.942    563.837
 18.470    560.000    563.967     -3.967    563.570    563.861    563.570    563.676    563.570
 18.570    541.423    563.701    -22.279    563.302    563.595    563.302    563.408    563.302
 18.670    565.000    563.435      1.565    563.031    563.327    563.031    563.138    563.031
 18.770    578.000    563.166     14.834    562.759    563.058    562.759    562.867    562.759
 18.870    600.000    562.897     37.103    562.486    562.788    562.486    562.594    562.486
 18.970    561.000    562.626     -1.626    562.211    562.517    562.211    562.320    562.211
 19.070    567.789    562.355      5.434    561.934    562.244    561.934    562.044    561.934
 19.170    538.000    562.081    -24.081    561.656    561.970    561.656    561.767    561.656
 19.270    567.993    561.807      6.186    561.376    561.695    561.376    561.489    561.376
 19.370    556.000    561.531     -5.531    561.095    561.418    561.095    561.209    561.095
 19.470    556.000    561.255     -5.255    560.813    561.141    560.813    560.927    560.813
 19.570    600.812    560.977     39.835    560.530    560.862    560.530    560.645    560.530
 19.670    528.000    560.699    -32.699    560.245    560.583    560.245    560.361    560.245
 19.770    544.000    560.419    -16.419    559.958    560.302    559.958    560.075    559.958
 19.870    533.527    560.139    -26.612    559.671    560.021    559.671    559.789    559.671
 19.970    556.000    559.857     -3.857    559.382    559.738    559.382    559.501    559.382
 20.070    533.000    559.575    -26.575    559.092    559.455    559.092    559.212    559.092
 20.170    523.000    559.292    -36.292    558.801    559.171    558.801    558.922    558.801
 20.270    567.468    559.009      8.459    558.508    558.886    558.508    558.631    558.508
 20.370    518.032    558.725    -40.692    558.215    558.601    558.215    558.338    558.215
 20.470    550.000    558.440     -8.440    557.920    558.315    557.920    558.045    557.920
 20.570    543.000    558.154    -15.154    557.625    558.029    557.625    557.751    557.625
 20.670    562.000    557.869      4.131    557.328    557.742    557.328    557.455    557.328
 20.770    551.000    557.583     -6.583    557.031    557.454    557.031    557.159    557.031
 20.870    511.471    557.298    -45.827    556.732    557.169    556.732    556.862    556.732
 20.970    589.156    557.025     32.131    556.432    556.894    556.432    556.563    556.432
 21.070    579.344    556.748     22.596    556.132    556.616    556.132    556.264    556.132
 21.170    534.112    556.462    -22.351    555.830    556.329    555.830    555.964    555.830
 21.270    535.000    556.176    -21.176    555.528    556.040    555.528    555.663    555.528
 21.370    566.000    555.889     10.111    555.225    555.752    555.225    555.362    555.225
 21.470    562.825    555.603      7.222    554.921    555.465    554.921    555.059    554.921
 21.570    542.000    555.326    -13.326    554.616    555.186    554.616    554.756    554.616
 21.670    549.000    555.129     -6.129    554.311    554.987    554.311    554.453    554.311
 21.770    515.562    554.891    -39.330    554.005    554.746    554.005    554.150    554.005
 21.870    590.612    554.640     35.972    553.698    554.492    553.698    553.846    553.698
 21.970    585.629    554.361     31.268    553.390    554.211    553.390    553.540    553.390
 22.070    522.000    554.081    -32.081    553.082    553.929    553.082    553.234    553.082
 22.170    508.000    553.802    -45.802    552.773    553.648    552.773    552.927    552.773
 22.270    568.000    553.526     14.474    552.464    553.370    552.464    552.619    552.464
 22.370    556.000    553.252      2.748    552.153    553.094    552.153    552.311    552.153
 22.470    584.000    552.981     31.019    551.843    552.821    551.843    552.003    551.843
 22.570    523.000    552.714    -29.714    551.532    552.552    551.532    551.694    551.532
 22.670    550.000    552.456     -2.456    551.220    552.291    551.220    551.384    551.220
 22.770    536.339    552.243    -15.904    550.908    552.077    550.908    551.074    550.908
 22.870    595.453    552.010     43.443    550.595    551.841    550.595    550.764    550.595
 22.970    507.366    551.769    -44.402    550.282    551.597    550.282    550.454    550.282
 23.070    584.000    551.535     32.465    549.969    551.361    549.969    550.143    549.969
 23.170    556.000    551.314      4.686    549.655    551.137    549.655    549.832    549.655
 23.270    621.000    551.107     69.893    549.340    550.928    549.340    549.520    549.340
 23.370    530.000    550.920    -20.920    549.026    550.738    549.026    549.209    549.026
 23.470    589.748    550.758     38.991    548.711    550.573    548.711    548.897    548.711
 23.570    572.000    550.630     21.370    548.396    550.441    548.396    548.585    548.396
 23.670    557.000    550.547      6.453    548.080    550.356    548.080    548.273    548.080
 23.770    575.668    550.522     25.146    547.765    550.327    547.765    547.960    547.765
 23.870    569.000    550.582     18.418    547.449    550.384    547.449    547.648    547.449
 23.970    548.000    550.773     -2.773    547.133    550.571    547.133    547.336    547.133
 24.070    512.920    551.199    -38.279    546.816    550.994    546.816    547.024    546.816
 24.170    504.556    552.174    -47.618    546.500    551.966    546.500    546.711    546.500
 24.270    586.000    554.621     31.379    546.183    554.410    546.183    546.399    546.183
 24.370    559.000    560.694     -1.694    545.867    560.483    545.867    546.087    545.867
 24.470    557.779    573.726    -15.947    545.550    573.519    545.550    545.775    545.550
 24.570    566.358    595.784    -29.426    545.233    595.588    545.233    545.463    545.233
 24.670    645.000    622.693     22.307    544.916    622.511    544.916    545.152    544.916
 24.770    606.649    640.789    -34.140    544.599    640.615    544.599    544.841    544.599
 24.870    605.289    636.347    -31.057    544.282    636.164    544.282    544.530    544.282
 24.970    585.000    613.130    -28.130    543.965    612.924    543.965    544.219    543.965
 25.070    540.888    586.473    -45.586    543.649    586.242    543.649    543.909    543.649
 25.170    551.000    566.865    -15.865    543.332    566.612    543.332    543.600    543.332
 25.270    535.000    555.908    -20.908    543.015    555.640    543.015    543.291    543.015
 25.370    593.595    550.756     42.839    542.698    550.476    542.698    542.982    542.698
 25.470    606.000    548.389     57.611    542.382    548.099    542.382    542.674    542.382
 25.570    564.476    547.126     17.351    542.065    546.826    542.065    542.367    542.065
 25.670    529.000    546.292    -17.292    541.749    545.982    541.749    542.061    541.749
 25.770    547.000    545.662      1.338    541.433    545.340    541.433    541.756    541.433
 25.870    584.000    545.155     38.845    541.117    544.822    541.117    541.451    541.117
 25.970    571.000    544.738     26.262    540.802    544.392    540.802    541.148    540.802
 26.070    577.000    544.388     32.612    540.486    544.029    540.486    540.846    540.486
 26.170    583.000    544.097     38.903    540.171    543.724    540.171    540.545    540.171
 26.270    541.612    543.858     -2.247    539.856    543.469    539.856    540.246    539.856
 26.370    561.000    543.669     17.331    539.542    543.262    539.542    539.949    539.542
 26.470    555.000    543.529     11.471    539.228    543.103    539.228    539.653    539.228
 26.570    587.000    543.445     43.555    538.914    542.999    538.914    539.360    538.914
 26.670    550.000    543.445      6.555    538.600    542.976    538.600    539.068    538.600
 26.770    512.000    543.511    -31.511    538.287    543.018    538.287    538.780    538.287
 26.870    513.303    543.639    -30.337    537.974    543.119    537.974    538.494    537.974
 26.970    579.000    543.870     35.130    537.662    543.319    537.662    538.212    537.662
 27.070    618.000    544.233     73.767    537.350    543.649    537.350    537.933    537.350
 27.170    543.000    544.770     -1.770    537.038    544.149    537.038    537.659    537.038
 27.270    564.000    545.543     18.457    536.727    544.879    536.727    537.390    536.727
 27.370    580.000    546.646     33.354    536.416    545.935    536.416    537.126    536.416
 27.470    528.000    548.260    -20.260    536.106    547.495    536.106    536.869    536.106
 27.570    508.169    550.834    -42.665    535.797    550.007    535.797    536.621    535.797
 27.670    581.080    555.897     25.183    535.488    554.999    535.488    536.381    535.488
 27.770    563.000    568.345     -5.345    535.179    567.363    535.179    536.153    535.179
 27.870    593.278    599.863     -6.586    534.871    598.778    534.871    535.938    534.871
 27.970    669.000    667.733      1.267    534.564    666.517    534.564    535.740    534.564
 28.070    760.000    778.559    -18.559    534.257    777.183    534.257    535.561    534.257
 28.170    874.000    901.203    -27.203    533.950    899.649    533.950    535.408    533.950
 28.270   1010.769    961.736     49.033    533.645    960.000    533.645    535.287    533.645
 28.370    878.013    911.139    -33.126    533.340    909.213    533.340    535.207    533.340
 28.470    846.000    801.864     44.136    533.036    799.694    533.036    535.181    533.036
 28.570    749.192    716.972     32.219    532.732    714.461    532.732    535.232    532.732
 28.670    737.000    699.626     37.374    532.429    696.645    532.429    535.395    532.429
 28.770    732.000    745.764    -13.764    532.127    742.136    532.127    535.736    532.127
 28.870    854.000    815.587     38.413    531.825    811.034    531.825    536.366    531.825
 28.970    901.563    848.646     52.917    531.524    842.716    531.524    537.458    531.524
 29.070    790.000    808.850    -18.850    531.224    800.833    531.224    539.255    531.224
 29.170    690.000    727.631    -37.631    530.925    716.534    530.925    542.036    530.925
 29.270    653.000    653.332     -0.332    530.626    637.937    530.626    546.030    530.626
 29.370    550.000    607.693    -57.693    530.329    586.772    530.329    551.253    530.329
 29.470    619.000    587.961     31.039    530.032    560.787    530.032    557.206    530.032
 29.570    605.460    582.077     23.383    529.736    549.365    529.736    562.447    529.736
 29.670    583.000    579.490      3.510    529.440    544.228    529.440    564.700    529.440
 29.770    609.000    574.865     34.135    529.146    541.443    529.146    562.566    529.146
 29.870    522.722    567.880    -45.159    528.852    539.622    528.852    557.109    528.852
 29.970    515.657    560.359    -44.702    528.560    538.332    528.560    550.584    528.560
 30.070    546.000    553.763     -7.763    528.268    537.431    528.268    544.599    528.268
 30.170    558.000    548.703      9.297    527.977    536.887    527.977    539.791    527.977
 30.270    549.000    545.337      3.663    527.687    536.805    527.687    536.217    527.687
 30.370    563.000    543.886     19.114    527.398    537.607    527.398    533.673    527.398
 30.470    538.000    545.216     -7.216    527.110    540.436    527.110    531.883    527.110
 30.570    508.279    551.215    -42.936    526.822    547.429    526.822    530.596    526.822
 30.670    564.000    564.053     -0.053    526.536    560.943    526.536    529.624    526.536
 30.770    588.000    583.576      4.424    526.251    580.944    526.251    528.846    526.251
 30.870    597.000    603.929     -6.929    525.967    601.653    525.967    528.192    525.967
 30.970    577.000    613.204    -36.204    525.683    611.213    525.683    527.620    525.683
 31.070    644.161    603.494     40.667    525.401    601.745    525.401    527.106    525.401
 31.170    601.395    582.129     19.266    525.120    580.585    525.120    526.635    525.120
 31.270    595.946    561.006     34.941    524.840    559.631    524.840    526.198    524.840
 31.370    546.000    546.213     -0.213    524.561    544.977    524.561    525.788    524.561
 31.470    562.780    537.993     24.787    524.282    536.872    524.282    525.400    524.282
 31.570    569.000    534.033     34.967    524.005    533.007    524.005    525.029    524.005
 31.670    552.238    532.141     20.097    523.730    531.196    523.730    524.672    523.730
 31.770    543.149    531.103     12.046    523.455    530.229    523.455    524.327    523.455
 31.870    532.000    530.430      1.570    523.181    529.616    523.181    523.993    523.181
 31.970    537.000    529.950      7.050    522.908    529.189    522.908    523.668    522.908
 32.070    570.000    529.605     40.395    522.637    528.891    522.637    523.350    522.637
 32.170    575.195    529.376     45.819    522.366    528.703    522.366    523.038    522.366
 32.270    489.053    529.255    -40.202    522.097    528.618    522.097    522.733    522.097
 32.370    544.000    529.240     14.760    521.829    528.636    521.829    522.433    521.829
 32.470    565.000    529.342     35.658    521.562    528.766    521.562    522.137    521.562
 32.570    501.353    529.574    -28.221    521.297    529.024    521.297    521.845    521.297
 32.670    583.000    529.962     53.038    521.032    529.436    521.032    521.558    521.032
 32.770    561.000    530.544     30.456    520.769    530.038    520.769    521.274    520.769
 32.870    563.363    531.370     31.993    520.507    530.883    520.507    520.993    520.507
 32.970    503.967    532.523    -28.556    520.246    532.053    520.246    520.715    520.246
 33.070    539.000    534.130      4.870    519.986    533.675    519.986    520.440    519.986
 33.170    549.267    536.411     12.856    519.728    535.970    519.728    520.167    519.728
 33.270    554.000    539.875     14.125    519.470    539.446    519.470    519.897    519.470
 33.370    502.392    545.923    -43.531    519.214    545.504    519.214    519.630    519.214
 33.470    563.000    558.306      4.694    518.960    557.895    518.960    519.364    518.960
 33.570    612.841    585.331     27.509    518.706    584.926    518.706    519.101    518.706
 33.670    615.000    640.431    -25.431    518.454    640.024    518.454    518.840    518.454
 33.770    680.355    736.133    -55.778    518.203    735.719    518.203    518.581    518.203
 33.870    844.000    869.115    -25.115    517.954    868.690    517.954    518.324    517.954
 33.970   1047.000   1003.151     43.849    517.706   1002.722    517.706    518.069    517.706
 34.070   1067.000   1068.997     -1.997    517.459   1068.584    517.459    517.816    517.459
 34.170   1064.000   1019.508     44.492    517.213   1019.128    517.213    517.565    517.213
 34.270    854.337    891.639    -37.302    516.969    891.289    516.969    517.315    516.969
 34.370    769.000    755.116     13.884    516.726    754.782    516.726    517.068    516.726
 34.470    655.115    652.032      3.083    516.484    651.704    516.484    516.822    516.484
 34.570    610.000    590.209     19.791    516.244    589.881    516.244    516.577    516.244
 34.670    543.288    558.749    -15.461    516.005    558.421    516.005    516.335    516.005
 34.770    541.000    543.899     -2.899    515.768    543.573    515.768    516.094    515.768
 34.870    505.000    536.488    -31.488    515.531    536.164    515.531    515.855    515.531
 34.970    541.000    532.131      8.869    515.297    531.810    515.297    515.618    515.297
 35.070    516.000    529.129    -13.129    515.063    528.810    515.063    515.382    515.063
 35.170    543.000    526.861     16.139    514.831    526.544    514.831    515.148    514.831
 35.270    483.607    525.068    -41.461    514.601    524.754    514.601    514.915    514.601
 35.370    519.000    523.612     -4.612    514.372    523.299    514.372    514.684    514.372
 35.470    522.000    522.404     -0.404    514.144    522.093    514.144    514.455    514.144
 35.570    569.000    521.384     47.616    513.918    521.074    513.918    514.227    513.918
 35.670    523.210    520.509      2.701    513.693    520.201    513.693    514.001    513.693
 35.770    548.000    519.748     28.252    513.469    519.441    513.469    513.777    513.469
 35.870    550.959    519.079     31.880    513.247    518.772    513.247    513.554    513.247
 35.970    575.000    518.483     56.517    513.027    518.177    513.027    513.333    513.027
 36.070    545.235    517.949     27.286    512.808    517.643    512.808    513.113    512.808
 36.170    475.000    517.466    -42.466    512.590    517.161    512.590    512.895    512.590
 36.270    528.873    517.028     11.845    512.374    516.723    512.374    512.679    512.374
 36.370    516.000    516.629     -0.629    512.159    516.324    512.159    512.464    512.159
 36.470    529.745    516.266     13.479    511.946    515.961    511.946    512.251    511.946
 36.570    503.370    515.937    -12.567    511.734    515.632    511.734    512.039    511.734
 36.670    489.000    515.643    -26.643    511.524    515.338    511.524    511.829    511.524
 36.770    517.000    515.388      1.612    511.315    515.082    511.315    511.621    511.315
 36.870    537.000    515.185     21.815    511.108    514.879    511.108    511.414    511.108
 36.970    501.670    515.079    -13.408    510.902    514.772    510.902    511.209    510.902
 37.070    505.366    515.181     -9.815    510.698    514.873    510.698    511.006    510.698
 37.170    505.000    515.736    -10.736    510.495    515.428    510.495    510.804    510.495
 37.270    496.000    517.129    -21.129    510.294    516.819    510.294    510.603    510.294
 37.370    518.547    519.726     -1.179    510.094    519.416    510.094    510.405    510.094
 37.470    526.000    523.493      2.507    509.896    523.182    509.896    510.208    509.896
 37.570    487.000    527.550    -40.550    509.699    527.239    509.699    510.012    509.699
 37.670    566.000    530.126     35.874    509.504    529.816    509.504    509.818    509.504
 37.770    568.017    529.732     38.285    509.310    529.422    509.310    509.626    509.310
 37.870    534.888    526.756      8.132    509.118    526.447    509.118    509.436    509.118
 37.970    519.000    522.834     -3.834    508.928    522.525    508.928    509.247    508.928
 38.070    518.861    519.225     -0.364    508.739    518.915    508.739    509.060    508.739
 38.170    536.000    516.380     19.620    508.551    516.067    508.551    508.874    508.551
 38.270    509.000    514.334     -5.334    508.365    514.016    508.365    508.690    508.365
 38.370    487.000    512.948    -25.948    508.181    512.626    508.181    508.508    508.181
 38.470    552.251    512.035     40.217    507.998    511.708    507.998    508.327    507.998
 38.570    517.000    511.431      5.569    507.817    511.101    507.817    508.148    507.817
 38.670    522.000    511.015     10.985    507.637    510.682    507.637    507.971    507.637
 38.770    524.000    510.703     13.297    507.459    510.368    507.459    507.795    507.459
 38.870    517.000    510.446      6.554    507.283    510.108    507.283    507.621    507.283
 38.970    469.405    510.220    -40.815    507.108    509.879    507.108    507.449    507.108
 39.070    544.106    510.012     34.094    506.934    509.668    506.934    507.278    506.934
 39.170    552.849    509.818     43.031    506.763    509.472    506.763    507.109    506.763
 39.270    475.215    509.636    -34.421    506.593    509.287    506.593    506.942    506.593
 39.370    539.000    509.463     29.537    506.424    509.111    506.424    506.776    506.424
 39.470    497.725    509.300    -11.575    506.257    508.944    506.257    506.613    506.257
 39.570    504.000    509.144     -5.144    506.091    508.785    506.091    506.450    506.091
 39.670    490.439    508.996    -18.557    505.928    508.634    505.928    506.290    505.928
 39.770    504.000    508.855     -4.855    505.765    508.490    505.765    506.131    505.765
 39.870    474.000    508.722    -34.722    505.605    508.353    505.605    505.974    505.605
 39.970    503.000    508.596     -5.596    505.446    508.224    505.446    505.819    505.446
 40.070    495.000    508.478    -13.478    505.288    508.102    505.288    505.665    505.288
 40.170    533.168    508.369     24.799    505.132    507.988    505.132    505.513    505.132
 40.270    468.524    508.268    -39.744    504.978    507.883    504.978    505.363    504.978
 40.370    531.000    508.176     22.824    504.826    507.787    504.826    505.215    504.826
 40.470    477.000    508.095    -31.095    504.674    507.702    504.674    505.068    504.674
 40.570    473.000    508.026    -35.026    504.525    507.628    504.525    504.923    504.525
 40.670    496.000    507.969    -11.969    504.377    507.567    504.377    504.780    504.377
 40.770    471.000    507.928    -36.928    504.231    507.522    504.231    504.638    504.231
 40.870    503.827    507.905     -4.079    504.086    507.494    504.086    504.499    504.086
 40.970    516.580    507.903      8.677    503.943    507.487    503.943    504.361    503.943
 41.070    491.460    507.927    -16.467    503.802    507.505    503.802    504.225    503.802
 41.170    491.000    507.982    -16.982    503.662    507.554    503.662    504.090    503.662
 41.270    470.000    508.075    -38.075    503.524    507.642    503.524    503.958    503.524
 41.370    486.000    508.218    -22.218    503.387    507.780    503.387    503.827    503.387
 41.470    538.518    508.426     30.092    503.252    507.981    503.252    503.698    503.252
 41.570    495.000    508.720    -13.720    503.119    508.269    503.119    503.571    503.119
 41.670    511.520    509.142      2.378    502.987    508.686    502.987    503.445    502.987
 41.770    512.000    509.783      2.217    502.857    509.321    502.857    503.322    502.857
 41.870    448.000    510.868    -62.868    502.729    510.399    502.729    503.200    502.729
 41.970    508.321    512.932     -4.611    502.602    512.457    502.602    503.080    502.602
 42.070    504.610    517.083    -12.473    502.477    516.602    502.477    502.963    502.477
 42.170    560.971    525.157     35.813    502.353    524.672    502.353    502.846    502.353
 42.270    575.948    539.341     36.607    502.231    538.855    502.231    502.732    502.231
 42.370    553.000    560.879     -7.879    502.110    560.395    502.110    502.620    502.110
 42.470    559.000    588.066    -29.066    501.992    587.587    501.992    502.510    501.992
 42.570    614.122    614.502     -0.379    501.874    614.029    501.874    502.401    501.874
 42.670    634.000    629.678      4.322    501.759    629.207    501.759    502.294    501.759
 42.770    626.000    625.553      0.447    501.645    625.073    501.645    502.190    501.645
 42.870    599.000    604.577     -5.577    501.532    604.080    501.532    502.087    501.532
 42.970    569.000    576.776     -7.776    501.421    576.254    501.421    501.987    501.421
 43.070    512.544    551.272    -38.728    501.312    550.725    501.312    501.888    501.312
 43.170    521.000    532.495    -11.495    501.205    531.926    501.205    501.791    501.205
 43.270    535.000    520.769     14.231    501.099    520.181    501.099    501.697    501.099
 43.370    504.155    514.300    -10.145    500.994    513.696    500.994    501.605    500.994
 43.470    506.000    510.967     -4.967    500.891    510.348    500.891    501.514    500.891
 43.570    475.248    509.222    -33.974    500.790    508.588    500.790    501.426    500.790
 43.670    492.000    508.209    -16.209    500.690    507.561    500.690    501.340    500.690
 43.770    528.621    507.536     21.085    500.592    506.873    500.592    501.256    500.592
 43.870    516.000    507.041      8.959    500.496    506.364    500.496    501.175    500.496
 43.970    514.000    506.659      7.341    500.401    505.966    500.401    501.095    500.401
 44.070    549.000    506.357     42.643    500.308    505.647    500.308    501.018    500.308
 44.170    489.855    506.115    -16.260    500.216    505.388    500.216    500.944    500.216
 44.270    519.000    505.920     13.080    500.126    505.176    500.126    500.872    500.126
 44.370    496.000    505.765     -9.765    500.038    505.001    500.038    500.802    500.038
 44.470    520.664    505.642     15.022    499.951    504.859    499.951    500.735    499.951
 44.570    542.985    505.547     37.438    499.865    504.742    499.865    500.670    499.865
 44.670    469.145    505.476    -36.331    499.782    504.649    499.782    500.609    499.782
 44.770    485.000    505.426    -20.426    499.699    504.576    499.699    500.550    499.699
 44.870    534.603    505.396     29.207    499.619    504.521    499.619    500.494    499.619
 44.970    491.169    505.384    -14.215    499.540    504.483    499.540    500.440    499.540
 45.070    538.000    505.389     32.611    499.462    504.461    499.462    500.390    499.462
 45.170    505.000    505.412     -0.412    499.386    504.454    499.386    500.344    499.386
 45.270    502.000    505.451     -3.451    499.312    504.462    499.312    500.300    499.312
 45.370    505.000    505.507     -0.507    499.239    504.485    499.239    500.261    499.239
 45.470    496.000    505.581     -9.581    499.168    504.524    499.168    500.224    499.168
 45.570    482.830    505.672    -22.842    499.098    504.578    499.098    500.192    499.098
 45.670    499.000    505.783     -6.783    499.030    504.649    499.030    500.164    499.030
 45.770    544.131    505.915     38.216    498.963    504.737    498.963    500.141    498.963
 45.870    520.000    506.069     13.931    498.898    504.844    498.898    500.122    498.898
 45.970    546.208    506.245     39.963    498.834    504.971    498.834    500.108    498.834
 46.070    524.000    506.450     17.550    498.772    505.122    498.772    500.100    498.772
 46.170    504.434    506.687     -2.252    498.712    505.300    498.712    500.098    498.712
 46.270    510.000    506.959      3.041    498.653    505.510    498.653    500.102    498.653
 46.370    467.048    507.273    -40.225    498.595    505.755    498.595    500.113    498.595
 46.470    485.244    507.635    -22.390    498.540    506.042    498.540    500.131    498.540
 46.570    509.000    508.055      0.945    498.485    506.381    498.485    500.158    498.485
 46.670    517.943    508.549      9.394    498.432    506.785    498.432    500.195    498.432
 46.770    511.000    509.139      1.861    498.381    507.277    498.381    500.241    498.381
 46.870    550.695    509.878     40.818    498.331    507.907    498.331    500.300    498.331
 46.970    484.000    510.877    -26.877    498.282    508.786    498.282    500.371    498.282
 47.070    492.000    512.391    -20.391    498.236    510.166    498.236    500.458    498.236
 47.170    534.858    514.932     19.926    498.190    512.556    498.190    500.561    498.190
 47.270    488.000    519.363    -31.363    498.146    516.816    498.146    500.685    498.146
 47.370    523.000    526.816     -3.816    498.104    524.076    498.104    500.830    498.104
 47.470    562.621    538.259     24.362    498.063    535.297    498.063    501.003    498.063
 47.570    572.000    553.693     18.307    498.023    550.477    498.023    501.206    498.023
 47.670    592.000    571.269     20.731    497.985    567.762    497.985    501.447    497.985
 47.770    626.520    586.802     39.718    497.948    582.964    497.948    501.732    497.948
 47.870    583.840    594.679    -10.839    497.913    590.464    497.913    502.070    497.913
 47.970    590.000    591.572     -1.572    497.880    586.922    497.880    502.476    497.880
 48.070    579.838    579.754      0.084    497.847    574.593    497.847    502.966    497.847
 48.170    519.000    564.714    -45.714    497.817    558.934    497.817    503.566    497.817
 48.270    610.000    551.185     58.815    497.787    544.632    497.787    504.320    497.787
 48.370    517.167    541.673    -24.506    497.759    534.121    497.759    505.298    497.759
 48.470    561.828    536.750     25.078    497.733    527.856    497.733    506.619    497.733
 48.570    538.000    535.860      2.140    497.708    525.085    497.708    508.478    497.708
 48.670    528.179    538.237    -10.058    497.684    524.743    497.684    511.174    497.684
 48.770    508.610    543.456    -34.847    497.662    525.986    497.662    515.129    497.662
 48.870    566.532    551.581     14.952    497.641    528.347    497.641    520.871    497.641
 48.970    555.957    563.044     -7.087    497.622    531.710    497.622    528.952    497.622
 49.070    577.630    578.467     -0.837    497.603    536.270    497.603    539.795    497.603
 49.170    590.000    598.593     -8.593    497.587    542.710    497.587    553.464    497.587
 49.270    642.000    624.630     17.370    497.572    552.848    497.572    569.344    497.572
 49.370    672.000    659.389     12.611    497.558    571.193    497.558    585.740    497.558
 49.470    694.525    709.690    -15.165    497.545    607.654    497.545    599.556    497.545
 49.570    840.130    789.984     50.147    497.534    680.622    497.534    606.852    497.534
 49.670    970.954    924.857     46.097    497.524    817.312    497.524    604.994    497.524
 49.770   1133.000   1143.730    -10.730    497.516   1046.396    497.516    594.733    497.516
 49.870   1482.538   1462.180     20.358    497.509   1380.014    497.509    579.519    497.509
 49.970   1862.000   1855.911      6.089    497.503   1790.164    497.503    563.081    497.503
 50.070   2174.546   2243.841    -69.295    497.498   2193.259    497.498    547.948    497.498
 50.170   2515.874   2500.011     15.863    497.495   2462.116    497.495    535.353    497.495
 50.270   2569.703   2514.096     55.607    497.494   2486.063    497.494    525.611    497.494
 50.370   2334.624   2275.027     59.597    497.493   2254.202    497.493    518.492    497.493
 50.470   1871.000   1882.245    -11.245    497.494   1866.440    497.494    513.503    497.494
 50.570   1469.000   1466.906      2.094    497.496   1454.497    497.496    510.088    497.496
 50.670   1054.000   1122.219    -68.219    497.500   1112.101    497.500    507.757    497.500
 50.770    862.000    884.596    -22.596    497.504    876.061    497.504    506.136    497.504
 50.870    712.000    745.614    -33.614    497.510    738.222    497.510    504.969    497.510
 50.970    667.000    675.121     -8.121    497.518    668.595    497.518    504.092    497.518
 51.070    598.376    641.205    -42.829    497.526    635.363    497.526    503.410    497.526
 51.170    639.000    620.959     18.041    497.536    615.669    497.536    502.863    497.536
 51.270    594.851    603.194     -8.343    497.547    598.356    497.547    502.416    497.547
 51.370    561.000    585.533    -24.533    497.560    581.070    497.560    502.046    497.560
 51.470    576.103    569.316      6.788    497.573    565.168    497.573    501.738    497.573
 51.570    573.993    556.114     17.879    497.588    552.234    497.588    501.480    497.588
 51.670    553.000    546.551      6.449    497.604    542.898    497.604    501.265    497.604
 51.770    499.982    540.320    -40.338    497.622    536.862    497.622    501.085    497.622
 51.870    570.000    536.645     33.355    497.640    533.355    497.640    500.934    497.640
 51.970    522.000    534.726    -12.726    497.660    531.579    497.660    500.810    497.660
 52.070    539.000    533.986      5.014    497.681    530.962    497.681    500.707    497.681
 52.170    514.000    534.122    -20.122    497.703    531.203    497.703    500.624    497.703
 52.270    569.092    535.073     34.019    497.726    532.242    497.726    500.558    497.726
 52.370    588.000    537.020     50.980    497.751    534.264    497.751    500.508    497.751
 52.470    562.810    540.534     22.277    497.777    537.841    497.777    500.471    497.777
 52.570    503.780    546.929    -43.149    497.803    544.287    497.803    500.446    497.803
 52.670    561.464    558.853      2.611    497.831    556.252    497.831    500.432    497.831
 52.770    605.000    580.907     24.093    497.861    578.337    497.861    500.429    497.861
 52.870    576.144    619.768    -43.624    497.891    617.220    497.891    500.436    497.891
 52.970    664.000    682.932    -18.932    497.922    680.398    497.922    500.451    497.922
 53.070    743.000    775.500    -32.500    497.955    772.973    497.955    500.475    497.955
 53.170    890.887    895.424     -4.537    497.989    892.898    497.989    500.507    497.989
 53.270   1060.000   1028.919     31.081    498.023   1026.392    498.023    500.546    498.023
 53.370   1145.000   1148.444     -3.444    498.059   1145.914    498.059    500.594    498.059
 53.470   1233.733   1217.812     15.922    498.096   1215.277    498.096    500.648    498.096
 53.570   1201.000   1210.445     -9.445    498.134   1207.900    498.134    500.710    498.134
 53.670   1105.804   1129.693    -23.890    498.174   1127.126    498.174    500.779    498.174
 53.770    982.000   1005.706    -23.706    498.214   1003.103    498.214    500.855    498.214
 53.870    859.000    873.773    -14.773    498.255    871.123    498.255    500.938    498.255
 53.970    715.510    758.911    -43.401    498.298    756.205    498.298    501.029    498.298
 54.070    691.000    672.471     18.529    498.341    669.702    498.341    501.127    498.341
 54.170    618.000    614.824      3.176    498.386    611.988    498.386    501.232    498.386
 54.270    575.000    580.135     -5.135    498.431    577.226    498.431    501.346    498.431
 54.370    595.000    560.910     34.090    498.478    557.923    498.478    501.468    498.478
 54.470    605.000    550.833     54.167    498.525    547.762    498.525    501.599    498.525
 54.570    568.000    545.698     22.302    498.574    542.535    498.574    501.739    498.574
 54.670    592.000    543.148     48.852    498.623    539.884    498.623    501.888    498.623
 54.770    571.000    542.028     28.972    498.674    538.654    498.674    502.048    498.674
 54.870    555.000    541.828     13.172    498.725    538.335    498.725    502.219    498.725
 54.970    523.039    542.343    -19.304    498.778    538.720    498.778    502.402    498.778
 55.070    624.000    543.502     80.498    498.831    539.737    498.831    502.597    498.831
 55.170    558.000    545.304     12.696    498.886    541.384    498.886    502.806    498.886
 55.270    587.000    547.791     39.209    498.941    543.702    498.941    503.031    498.941
 55.370    572.247    551.056     21.191    498.997    546.782    498.997    503.272    498.997
 55.470    543.065    555.262    -12.198    499.055    550.787    499.055    503.531    499.055
 55.570    563.507    560.717      2.790    499.113    556.021    499.113    503.809    499.113
 55.670    567.000    568.054     -1.054    499.172    563.116    499.172    504.110    499.172
 55.770    613.152    578.652     34.500    499.232    573.447    499.232    504.436    499.232
 55.870    603.000    595.450      7.550    499.293    589.953    499.293    504.789    499.293
 55.970    584.000    624.285    -40.285    499.355    618.462    499.355    505.172    499.355
 56.070    703.000    675.473     27.527    499.417    669.289    499.417    505.590    499.417
 56.170    697.000    764.732    -67.732    499.481    758.143    499.481    506.048    499.481
 56.270    833.000    911.678    -78.678    499.545    904.637    499.545    506.550    499.545
 56.370   1087.000   1134.175    -47.175    499.611   1126.631    499.611    507.103    499.611
 56.470   1381.138   1438.332    -57.194    499.677   1430.231    499.677    507.715    499.677
 56.570   1757.000   1806.869    -49.869    499.744   1798.159    499.744    508.394    499.744
 56.670   2181.921   2190.546     -8.625    499.812   2181.172    499.812    509.152    499.812
 56.770   2410.568   2508.210    -97.642    499.880   2498.112    499.880    510.002    499.880
 56.870   2600.000   2666.549    -66.549    499.950   2655.645    499.950    510.961    499.950
 56.970   2625.000   2609.391     15.609    500.020   2597.556    500.020    512.048    500.020
 57.070   2312.861   2359.700    -46.839    500.091   2346.749    500.091    513.290    500.091
 57.170   1913.164   2000.166    -87.002    500.163   1985.863    500.163    514.722    500.163
 57.270   1614.089   1621.014     -6.925    500.235   1605.085    500.235    516.393    500.235
 57.370   1320.000   1287.224     32.776    500.309   1269.337    500.309    518.376    500.309
 57.470    969.000   1030.658    -61.658    500.383   1010.382    500.383    520.788    500.383
 57.570    871.000    855.284     15.716    500.457    832.011    500.457    523.814    500.457
 57.670    718.086    748.107    -30.020    500.533    720.929    500.533    527.760    500.533
 57.770    711.000    690.585     20.415    500.609    658.116    500.609    533.105    500.609
 57.870    685.000    666.700     18.300    500.686    626.831    500.686    540.567    500.686
 57.970    666.000    666.511     -0.511    500.764    616.130    500.764    551.146    500.764
 58.070    690.000    686.270      3.730    500.842    620.992    500.842    566.112    500.842
 58.170    702.000    726.687    -24.687    500.922    640.695    500.922    586.895    500.922
 58.270    805.077    790.568     14.509    501.001    676.694    501.001    614.845    501.001
 58.370    837.000    880.191    -43.191    501.082    730.369    501.082    650.863    501.082
 58.470    938.487    994.977    -56.489    501.163    801.168    501.163    694.922    501.163
 58.570   1177.311   1129.494     47.817    501.245    885.178    501.245    745.508    501.245
 58.670   1293.000   1272.384     20.616    501.327    974.724    501.327    798.939    501.327
 58.770   1441.951   1407.405     34.546    501.410   1060.116    501.410    848.663    501.410
 58.870   1535.000   1516.654     18.346    501.494   1132.789    501.494    885.339    501.494
 58.970   1615.000   1583.738     31.262    501.578   1185.830    501.578    899.488    501.578
 59.070   1641.000   1597.161     43.839    501.663   1212.066    501.663    886.783    501.663
 59.170   1609.000   1555.829     53.171    501.748   1206.415    501.748    851.203    501.748
 59.270   1531.570   1472.426     59.144    501.834   1172.208    501.834    802.096    501.834
 59.370   1342.585   1368.958    -26.373    501.921   1122.035    501.921    748.875    501.921
 59.470   1288.000   1267.900     20.100    502.008   1071.676    502.008    698.237    502.008
 59.570   1135.000   1187.819    -52.819    502.096   1035.891    502.096    653.992    502.096
 59.670   1077.741   1144.242    -66.501    502.184   1028.600    502.184    617.748    502.184
 59.770   1181.000   1149.077     31.923    502.273   1061.624    502.273    589.595    502.273
 59.870   1254.000   1205.823     48.177    502.363   1139.331    502.363    568.667    502.363
 59.970   1309.000   1304.709      4.291    502.452   1253.291    502.452    553.629    502.452
 60.070   1448.000   1421.170     26.830    502.543   1380.381    502.543    543.050    502.543
 60.170   1579.000   1518.493     60.507    502.634   1485.184    502.634    535.648    502.634
 60.270   1609.000   1557.500     51.500    502.725   1529.542    502.725    530.412    502.725
 60.370   1552.558   1515.201     37.358    502.817   1491.188    502.817    526.613    502.817
 60.470   1449.989   1398.865     51.124    502.909   1377.861    502.909    523.763    502.909
 60.570   1343.000   1238.639    104.361    503.002   1219.995    503.002    521.555    503.002
 60.670   1138.000   1069.065     68.935    503.095   1052.308    503.095    519.805    503.095
 60.770    876.629    916.739    -40.110    503.189    901.504    503.189    518.404    503.189
 60.870    817.000    796.343     20.657    503.283    782.329    503.283    517.290    503.283
 60.970    731.000    711.671     19.329    503.378    698.619    503.378    516.427    503.378
 61.070    609.109    659.389    -50.280    503.473    647.060    503.473    515.795    503.473
 61.170    640.000    633.638      6.362    503.568    621.814    503.568    515.381    503.568
 61.270    644.002    629.839     14.163    503.664    618.313    503.664    515.170    503.664
 61.370    631.798    646.752    -14.954    503.760    635.339    503.760    515.142    503.760
 61.470    712.000    686.642     25.358    503.856    675.188    503.856    515.262    503.856
 61.570    709.000    753.707    -44.707    503.953    742.114    503.953    515.474    503.953
 61.670    865.222    851.112     14.110    504.050    839.366    504.050    515.695    504.050
 61.770    943.418    977.307    -33.890    504.148    965.507    504.148    515.814    504.148
 61.870   1167.978   1122.717     45.260    504.246   1111.079    504.246    515.721    504.246
 61.970   1231.000   1268.018    -37.018    504.344   1256.825    504.344    515.355    504.344
 62.070   1416.000   1385.291     30.709    504.442   1374.810    504.442    514.743    504.442
 62.170   1502.579   1444.647     57.932    504.541   1435.061    504.541    513.971    504.541
 62.270   1317.000   1427.877   -110.877    504.640   1419.261    504.640    513.143    504.640
 62.370   1333.426   1339.982     -6.557    504.739   1332.314    504.739    512.341    504.739
 62.470   1150.329   1205.550    -55.221    504.839   1198.744    504.839    511.617    504.839
 62.570   1105.844   1054.771     51.073    504.939   1048.711    504.939    510.997    504.939
 62.670    911.000    912.481     -1.481    505.039    907.042    505.039    510.488    505.039
 62.770    718.000    793.938    -75.938    505.139    789.005    505.139    510.087    505.139
 62.870    634.000    704.863    -70.863    505.240    700.336    505.240    509.779    505.240
 62.970    631.000    643.740    -12.740    505.341    639.540    505.341    509.549    505.341
 63.070    583.000    605.063    -22.063    505.442    601.127    505.442    509.381    505.442
 63.170    610.816    582.311     28.506    505.543    578.594    505.543    509.259    505.543
 63.270    597.000    569.888     27.112    505.644    566.357    505.644    509.172    505.644
 63.370    600.353    563.945     36.408    505.746    560.574    505.746    509.112    505.746
 63.470    599.579    562.440     37.139    505.848    559.209    505.848    509.071    505.848
 63.570    517.056    564.887    -47.831    505.950    561.781    505.950    509.046    505.950
 63.670    556.000    572.088    -16.088    506.052    569.092    506.052    509.034    506.052
 63.770    584.000    585.872     -1.872    506.154    582.974    506.154    509.031    506.154
 63.870    620.000    608.749     11.251    506.256    605.937    506.256    509.038    506.256
 63.970    653.000    643.293      9.707    506.359    640.555    506.359    509.053    506.359
 64.070    699.000    691.196      7.804    506.461    688.520    506.461    509.075    506.461
 64.170    745.000    752.101     -7.101    506.564    749.479    506.564    509.103    506.564
 64.270    825.000    822.507      2.493    506.666    819.933    506.666    509.137    506.666
 64.370    947.000    895.083     51.917    506.769    892.554    506.769    509.177    506.769
 64.470    943.000    958.938    -15.938    506.872    956.457    506.872    509.221    506.872
 64.570   1050.511   1001.962     48.549    506.975    999.537    506.975    509.270    506.975
 64.670   1012.000   1015.626     -3.626    507.078   1013.265    507.078    509.323    507.078
 64.770   1001.640    998.884      2.756    507.181    996.594    507.181    509.380    507.181
 64.870    989.000    957.584     31.416    507.284    955.365    507.284    509.441    507.284
 64.970    901.000    901.295     -0.295    507.387    899.143    507.387    509.504    507.387
 65.070    828.338    840.136    -11.799    507.490    838.045    507.490    509.572    507.490
 65.170    779.000    782.046     -3.046    507.593    780.006    507.593    509.642    507.593
 65.270    741.000    731.335      9.665    507.696    729.337    507.696    509.715    507.696
 65.370    653.000    689.071    -36.071    507.799    687.106    507.799    509.790    507.799
 65.470    651.000    654.616     -3.616    507.902    652.676    507.902    509.869    507.902
 65.570    651.000    626.988     24.012    508.005    625.066    508.005    509.949    508.005
 65.670    579.694    605.316    -25.622    508.108    603.408    508.108    510.033    508.108
 65.770    589.016    588.800      0.216    508.211    586.905    508.211    510.118    508.211
 65.870    580.321    576.687      3.634    508.314    574.802    508.314    510.206    508.314
 65.970    607.105    568.265     38.841    508.416    566.389    508.416    510.295    508.416
 66.070    568.000    562.867      5.133    508.519    560.999    508.519    510.387    508.519
 66.170    548.000    559.888    -11.888    508.622    558.027    508.622    510.481    508.622
 66.270    585.853    558.814     27.040    508.724    556.960    508.724    510.577    508.724
 66.370    546.000    559.265    -13.265    508.826    557.415    508.826    510.675    508.826
 66.470    521.959    561.033    -39.074    508.928    559.187    508.928    510.775    508.928
 66.570    568.205    564.140      4.065    509.030    562.294    509.030    510.877    509.030
 66.670    571.000    568.927      2.073    509.132    567.079    509.132    510.981    509.132
 66.770    585.000    576.251      8.749    509.234    574.399    509.234    511.086    509.234
 66.870    615.346    587.811     27.534    509.335    585.953    509.335    511.194    509.335
 66.970    598.000    606.628     -8.628    509.437    604.760    509.437    511.304    509.437
 67.070    627.000    637.576    -10.576    509.538    635.693    509.538    511.416    509.538
 67.170    669.000    687.736    -18.736    509.639    685.836    509.639    511.530    509.639
 67.270    725.000    766.186    -41.186    509.739    764.266    509.739    511.646    509.739
 67.370    926.106    882.764     43.342    509.840    880.823    509.840    511.763    509.840
 67.470   1138.000   1045.545     92.455    509.940   1043.582    509.940    511.884    509.940
 67.570   1217.157   1257.219    -40.062    510.040   1255.237    510.040    512.007    510.040
 67.670   1449.871   1511.188    -61.317    510.140   1509.196    510.140    512.133    510.140
 67.770   1856.484   1788.555     67.929    510.239   1786.565    510.239    512.262    510.239
 67.870   1983.519   2057.123    -73.604    510.338   2055.148    510.338    512.394    510.338
 67.970   2234.000   2273.924    -39.924    510.437   2271.978    510.437    512.528    510.437
 68.070   2412.000   2394.303     17.697    510.536   2392.389    510.536    512.666    510.536
 68.170   2444.000   2388.921     55.079    510.634   2387.029    510.634    512.808    510.634
 68.270   2230.000   2259.279    -29.279    510.732   2257.378    510.732    512.953    510.732
 68.370   2057.000   2036.766     20.234    510.830   2034.819    510.830    513.102    510.830
 68.470   1723.807   1766.392    -42.585    510.927   1764.366    510.927    513.256    510.927
 68.570   1526.000   1490.404     35.596    511.024   1488.274    511.024    513.414    511.024
 68.670   1218.800   1239.898    -21.097    511.121   1237.650    511.121    513.578    511.121
 68.770    997.000   1032.662    -35.662    511.217   1030.290    511.217    513.747    511.217
 68.870    895.000    874.375     20.625    511.313    871.878    511.313    513.922    511.313
 68.970    779.257    761.746     17.511    511.409    759.127    511.409    514.104    511.409
 69.070    685.000    686.435     -1.435    511.504    683.696    511.504    514.293    511.504
 69.170    604.787    638.595    -33.808    511.599    635.736    511.599    514.490    511.599
 69.270    680.000    609.288     70.712    511.693    606.305    511.693    514.696    511.693
 69.370    587.000    591.612     -4.612    511.787    588.500    511.787    514.912    511.787
 69.470    596.623    580.851     15.772    511.881    577.601    511.881    515.140    511.881
 69.570    585.000    574.087     10.913    511.974    570.688    511.974    515.379    511.974
 69.670    575.173    569.655      5.519    512.067    566.093    512.067    515.633    512.067
 69.770    571.000    566.667      4.333    512.159    562.927    512.159    515.902    512.159
 69.870    584.000    564.671     19.329    512.251    560.735    512.251    516.189    512.251
 69.970    533.678    563.443    -29.765    512.342    559.292    512.342    516.495    512.342
 70.070    584.000    562.881     21.119    512.433    558.490    512.433    516.824    512.433
 70.170    539.000    562.949    -23.949    512.523    558.293    512.523    517.179    512.523
 70.270    599.000    563.678     35.322    512.613    558.726    512.613    517.563    512.613
 70.370    603.000    565.172     37.828    512.702    559.890    512.702    517.982    512.702
 70.470    585.000    567.661     17.339    512.791    562.009    512.791    518.439    512.791
 70.570    543.000    571.607    -28.607    512.879    565.538    512.879    518.943    512.879
 70.670    564.000    577.858    -13.858    512.967    571.317    512.967    519.501    512.967
 70.770    580.000    587.887     -7.887    513.054    580.805    513.054    520.125    513.054
 70.870    588.000    604.057    -16.057    513.140    596.350    513.140    520.829    513.140
 70.970    637.000    629.869      7.131    513.226    621.431    513.226    521.637    513.226
 71.070    702.022    670.023     31.998    513.312    660.711    513.312    522.584    513.312
 71.170    671.000    730.105    -59.105    513.397    719.719    513.397    523.723    513.397
 71.270    822.000    815.717      6.283    513.481    803.970    513.481    525.144    513.481
 71.370    874.000    931.010    -57.010    513.565    917.478    513.565    526.984    513.565
 71.470   1026.000   1076.784    -50.784    513.648   1060.833    513.648    529.454    513.648
 71.570   1274.000   1248.590     25.410    513.730   1229.286    513.730    532.859    513.730
 71.670   1437.000   1435.367      1.633    513.812   1411.359    513.812    537.621    513.812
 71.770   1504.000   1619.077   -115.077    513.893   1588.478    513.893    544.280    513.893
 71.870   1749.000   1775.954    -26.954    513.974   1736.245    513.974    553.473    513.974
 71.970   1902.737   1880.618     22.119    514.054   1828.614    514.054    565.870    514.054
 72.070   1908.173   1914.091     -5.918    514.133   1846.007    514.133    582.065    514.133
 72.170   1830.528   1872.620    -42.092    514.211   1784.295    514.211    602.426    514.211
 72.270   1815.392   1769.830     45.561    514.289   1657.129    514.289    626.918    514.289
 72.370   1732.000   1629.662    102.338    514.366   1489.055    514.366    654.930    514.366
 72.470   1546.000   1476.728     69.272    514.443   1306.043    514.443    685.107    514.443
 72.570   1359.000   1330.192     28.808    514.519   1129.488    514.519    715.214    514.519
 72.670   1236.000   1201.443     34.557    514.594    973.938    514.594    742.096    514.594
 72.770   1080.000   1094.181    -14.181    514.668    846.897    514.668    761.952    514.668
 72.870    953.000   1006.330    -53.330    514.742    749.839    514.742    771.232    514.742
 72.970    880.120    933.202    -53.082    514.815    679.974    514.815    768.042    514.815
 73.070    802.000    870.431    -68.431    514.887    632.224    514.887    753.092    514.887
 73.170    761.000    815.292    -54.292    514.958    600.941    514.958    729.309    514.958
 73.270    686.000    766.522    -80.522    515.029    581.046    515.029    700.504    515.029
 73.370    721.000    723.681     -2.681    515.098    568.585    515.098    670.195    515.098
 73.470    630.000    686.699    -56.699    515.167    560.801    515.167    641.067    515.167
 73.570    647.000    655.614     -8.614    515.236    555.962    515.236    614.891    515.236
 73.670    601.000    630.391    -29.391    515.303    553.074    515.303    592.624    515.303
 73.770    576.000    610.809    -34.809    515.370    551.624    515.370    574.562    515.370
 73.870    601.000    596.422      4.578    515.435    551.357    515.435    560.511    515.435
 73.970    543.561    586.581    -43.020    515.500    552.127    515.500    549.968    515.500
 74.070    598.605    580.489     18.117    515.565    553.786    515.565    542.287    515.565
 74.170    552.265    577.265    -24.999    515.628    556.114    515.628    536.804    515.628
 74.270    616.000    575.990     40.010    515.690    558.784    515.690    532.928    515.690
 74.370    643.000    575.747     67.253    515.752    561.357    515.752    530.179    515.752
 74.470    605.000    575.657     29.343    515.813    563.315    515.813    528.197    515.813
 74.570    646.000    574.972     71.028    515.873    564.162    515.873    526.727    515.873
 74.670    622.000    573.208     48.792    515.932    563.585    515.932    525.599    515.932
 74.770    644.000    570.268     73.732    515.990    561.598    515.990    524.703    515.990
 74.870    623.000    566.419     56.581    516.047    558.536    516.047    523.969    516.047
 74.970    596.000    562.145     33.855    516.103    554.928    516.103    523.353    516.103
 75.070    597.000    557.990     39.010    516.159    551.347    516.159    522.828    516.159
 75.170    541.710    554.478    -12.768    516.213    548.336    516.213    522.375    516.213
 75.270    599.429    552.100     47.329    516.267    546.400    516.267    521.980    516.267
 75.370    562.000    551.330     10.670    516.319    546.021    516.319    521.636    516.319
 75.470    572.000    552.656     19.344    516.371    547.696    516.371    521.333    516.371
 75.570    563.667    556.602      7.065    516.422    551.954    516.422    521.066    516.422
 75.670    559.000    563.698     -4.698    516.471    559.330    516.471    520.830    516.471
 75.770    559.000    574.408    -15.408    516.520    570.290    516.520    520.621    516.520
 75.870    577.000    588.983    -11.983    516.568    585.091    516.568    520.435    516.568
 75.970    617.000    607.288      9.712    516.615    603.599    516.615    520.270    516.615
 76.070    619.634    628.625     -8.991    516.661    625.120    516.661    520.123    516.661
 76.170    600.000    651.617    -51.617    516.706    648.280    516.706    519.992    516.706
 76.270    689.000    674.177     14.823    516.749    670.993    516.749    519.875    516.749
 76.370    676.000    693.615    -17.615    516.792    690.575    516.792    519.770    516.792
 76.470    727.459    706.984     20.475    516.834    704.077    516.834    519.676    516.834
 76.570    642.000    711.807    -69.807    516.875    709.028    516.875    519.591    516.875
 76.670    751.000    707.052     43.948    516.915    704.394    516.915    519.516    516.915
 76.770    681.000    693.628    -12.628    516.954    691.086    516.954    519.447    516.954
 76.870    647.033    673.936    -26.903    516.991    671.502    516.991    519.386    516.991
 76.970    668.000    650.901     17.099    517.028    648.568    517.028    519.331    517.028
 77.070    645.000    627.224     17.776    517.064    624.984    517.064    519.281    517.064
 77.170    587.000    605.004    -18.004    517.098    602.850    517.098    519.237    517.098
 77.270    546.295    585.621    -39.326    517.132    583.547    517.132    519.196    517.132
 77.370    561.119    569.749     -8.630    517.164    567.747    517.164    519.160    517.164
 77.470    567.000    557.469      9.531    517.196    555.533    517.196    519.127    517.196
 77.570    476.000    548.440    -72.440    517.226    546.566    517.226    519.097    517.226
 77.670    542.000    542.091     -0.091    517.255    540.275    517.255    519.070    517.255
 77.770    501.132    537.793    -36.661    517.283    536.029    517.283    519.045    517.283
 77.870    537.000    534.960      2.040    517.310    533.246    517.310    519.023    517.310
 77.970    504.000    533.117    -29.117    517.336    531.450    517.336    519.003    517.336
 78.070    575.000    531.917     43.083    517.361    530.292    517.361    518.984    517.361
 78.170    513.619    531.120    -17.502    517.385    529.536    517.385    518.968    517.385
 78.270    546.000    530.579     15.421    517.407    529.033    517.407    518.952    517.407
 78.370    554.855    530.206     24.649    517.428    528.695    517.428    518.938    517.428
 78.470    515.985    529.953    -13.968    517.449    528.475    517.449    518.926    517.449
 78.570    546.000    529.797     16.203    517.468    528.350    517.468    518.914    517.468
 78.670    493.000    529.717    -36.717    517.486    528.298    517.486    518.904    517.486
 78.770    521.638    529.734     -8.096    517.502    528.341    517.502    518.895    517.502
 78.870    513.000    529.901    -16.901    517.518    528.531    517.518    518.887    517.518
 78.970    530.065    530.219     -0.155    517.533    528.869    517.533    518.882    517.533
 79.070    515.000    530.719    -15.719    517.546    529.386    517.546    518.878    517.546
 79.170    541.000    531.435      9.565    517.558    530.115    517.558    518.877    517.558
 79.270    524.000    532.402     -8.402    517.569    531.088    517.569    518.880    517.569
 79.370    522.000    533.649    -11.649    517.579    532.338    517.579    518.887    517.579
 79.470    534.000    535.209     -1.209    517.587    533.893    517.587    518.900    517.587
 79.570    507.000    537.114    -30.114    517.594    535.785    517.594    518.919    517.594
 79.670    544.000    539.416      4.584    517.600    538.065    517.600    518.946    517.600
 79.770    516.000    542.201    -26.201    517.605    540.819    517.605    518.982    517.605
 79.870    574.000    545.613     28.387    517.609    544.190    517.609    519.026    517.609
 79.970    542.000    549.883     -7.883    517.612    548.410    517.612    519.079    517.612
 80.070    572.000    555.352     16.648    517.613    553.821    517.613    519.139    517.613
 80.170    565.000    562.474      2.526    517.613    560.879    517.613    519.204    517.613
 80.270    590.180    571.762     18.418    517.612    570.102    517.612    519.271    517.612
 80.370    556.000    583.688    -27.688    517.609    581.966    517.609    519.333    517.609
 80.470    607.000    598.558      8.442    517.605    596.783    517.605    519.386    517.605
 80.570    585.000    616.396    -31.396    517.600    614.585    517.600    519.421    517.600
 80.670    643.057    636.853      6.204    517.594    635.029    517.594    519.432    517.594
 80.770    648.000    659.156    -11.156    517.587    657.349    517.587    519.414    517.587
 80.870    666.000    682.134    -16.134    517.578    680.370    517.578    519.368    517.578
 80.970    695.779    704.336     -8.557    517.568    702.641    517.568    519.297    517.568
 81.070    694.963    724.254    -29.291    517.557    722.643    517.557    519.208    517.557
 81.170    709.000    740.518    -31.518    517.544    739.001    517.544    519.109    517.544
 81.270    767.000    752.031     14.969    517.530    750.610    517.530    519.005    517.530
 81.370    754.000    758.052     -4.052    517.515    756.724    517.515    518.903    517.515
 81.470    707.249    758.299    -51.050    517.499    757.057    517.499    518.805    517.499
 81.570    704.401    752.957    -48.556    517.481    751.791    517.481    518.714    517.481
 81.670    695.682    742.614    -46.932    517.462    741.515    517.462    518.631    517.462
 81.770    723.000    728.210     -5.210    517.442    727.166    517.442    518.556    517.442
 81.870    706.885    710.989     -4.103    517.420    709.989    517.420    518.489    517.420
 81.970    689.437    692.328     -2.891    517.397    691.362    517.397    518.429    517.397
 82.070    667.000    673.458     -6.458    517.373    672.519    517.373    518.374    517.373
 82.170    660.000    655.245      4.755    517.348    654.327    517.348    518.325    517.348
 82.270    672.741    638.147     34.594    517.321    637.244    517.321    518.279    517.321
 82.370    615.000    622.330     -7.330    517.293    621.438    517.293    518.235    517.293
 82.470    631.000    607.857     23.143    517.263    606.972    517.263    518.194    517.263
 82.570    637.598    594.824     42.773    517.232    593.943    517.232    518.153    517.232
 82.670    583.000    583.386     -0.386    517.200    582.507    517.200    518.113    517.200
 82.770    575.000    573.719      1.281    517.167    572.839    517.167    518.072    517.167
 82.870    574.000    565.980      8.020    517.132    565.099    517.132    518.032    517.132
 82.970    519.000    560.292    -41.292    517.096    559.409    517.096    517.990    517.096
 83.070    584.000    556.727     27.273    517.058    555.841    517.058    517.949    517.058
 83.170    537.479    555.288    -17.809    517.019    554.398    517.019    517.906    517.019
 83.270    525.543    555.882    -30.339    516.979    554.987    516.979    517.863    516.979
 83.370    558.000    558.300     -0.300    516.938    557.401    516.938    517.819    516.938
 83.470    547.000    562.205    -15.205    516.895    561.300    516.895    517.774    516.895
 83.570    573.156    567.124      6.032    516.851    566.214    516.851    517.728    516.851
 83.670    565.000    572.466     -7.466    516.805    571.552    516.805    517.681    516.805
 83.770    583.000    577.548      5.452    516.758    576.630    516.758    517.633    516.758
 83.870    567.000    581.646    -14.646    516.710    580.725    516.710    517.584    516.710
 83.970    601.000    584.096     16.904    516.660    583.174    516.660    517.534    516.660
 84.070    620.926    584.428     36.498    516.609    583.507    516.609    517.483    516.609
 84.170    606.327    582.504     23.823    516.557    581.586    516.557    517.431    516.557
 84.270    589.000    578.549     10.451    516.503    577.634    516.503    517.379    516.503
 84.370    564.381    573.059     -8.678    516.448    572.148    516.448    517.325    516.448
 84.470    591.000    566.647     24.353    516.391    565.741    516.391    517.270    516.391
 84.570    542.000    559.915    -17.915    516.334    559.011    516.334    517.213    516.334
 84.670    582.511    553.369     29.142    516.274    552.469    516.274    517.156    516.274
 84.770    548.449    547.392      1.057    516.214    546.493    516.214    517.098    516.214
 84.870    552.621    542.222     10.399    516.152    541.324    516.152    517.039    516.152
 84.970    521.627    537.972    -16.346    516.088    537.074    516.088    516.979    516.088
 85.070    574.000    534.643     39.357    516.024    533.743    516.024    516.917    516.024
 85.170    524.018    532.160     -8.142    515.958    531.257    515.958    516.855    515.958
 85.270    475.000    530.405    -55.405    515.890    529.499    515.890    516.791    515.890
 85.370    527.000    529.250     -2.250    515.821    528.340    515.821    516.727    515.821
 85.470    507.000    528.578    -21.578    515.751    527.663    515.751    516.661    515.751
 85.570    493.000    528.298    -35.298    515.679    527.378    515.679    516.595    515.679
 85.670    487.000    528.358    -41.358    515.606    527.432    515.606    516.527    515.606
 85.770    569.371    528.746     40.624    515.532    527.814    515.532    516.458    515.532
 85.870    502.000    529.496    -27.496    515.456    528.557    515.456    516.389    515.456
 85.970    490.000    530.684    -40.684    515.379    529.736    515.379    516.318    515.379
 86.070    514.000    532.419    -18.419    515.300    531.461    515.300    516.246    515.300
 86.170    535.000    534.875      0.125    515.220    533.907    515.220    516.174    515.220
 86.270    543.000    538.244      4.756    515.139    537.264    515.139    516.100    515.139
 86.370    551.000    542.712      8.288    515.056    541.718    515.056    516.025    515.056
 86.470    586.665    548.455     38.210    514.972    547.445    514.972    515.950    514.972
 86.570    543.957    555.590    -11.634    514.887    554.563    514.887    515.873    514.887
 86.670    573.000    564.138      8.862    514.800    563.090    514.800    515.796    514.800
 86.770    520.000    573.974    -53.974    514.711    572.905    514.711    515.717    514.711
 86.870    592.000    584.797      7.203    514.622    583.706    514.622    515.638    514.622
 86.970    636.000    596.113     39.887    514.531    594.999    514.531    515.558    514.531
 87.070    641.000    607.234     33.766    514.438    606.097    514.438    515.477    514.438
 87.170    630.000    617.311     12.689    514.344    616.153    514.344    515.395    514.344
 87.270    636.000    625.414     10.586    514.249    624.238    514.249    515.313    514.249
 87.370    625.000    630.677     -5.677    514.153    629.487    514.153    515.229    514.153
 87.470    665.000    632.497     32.503    514.055    631.295    514.055    515.145    514.055
 87.570    660.000    630.711     29.289    513.955    629.501    513.955    515.061    513.955
 87.670    603.452    625.646    -22.194    513.855    624.431    513.855    514.975    513.855
 87.770    609.000    618.012     -9.012    513.753    616.794    513.753    514.889    513.753
 87.870    655.000    608.733     46.267    513.649    607.511    513.649    514.803    513.649
 87.970    635.564    598.786     36.778    513.544    597.560    513.544    514.716    513.544
 88.070    573.974    589.099    -15.125    513.438    587.867    513.438    514.629    513.438
 88.170    537.380    580.480    -43.100    513.331    579.241    513.331    514.541    513.331
 88.270    592.000    573.566     18.434    513.222    572.316    513.222    514.453    513.222
 88.370    585.000    568.796     16.204    513.111    567.533    513.111    514.364    513.111
 88.470    573.468    566.403      7.065    513.000    565.126    513.000    514.276    513.000
 88.570    546.431    566.421    -19.991    512.887    565.128    512.887    514.187    512.887
 88.670    593.000    568.692     24.308    512.772    567.381    512.772    514.098    512.772
 88.770    571.000    572.887     -1.887    512.657    571.556    512.657    514.009    512.657
 88.870    627.000    578.523     48.477    512.540    577.171    512.540    513.921    512.540
 88.970    636.000    584.993     51.007    512.421    583.618    512.421    513.833    512.421
 89.070    624.739    591.590     33.149    512.301    590.191    512.301    513.745    512.301
 89.170    598.000    597.551      0.449    512.180    596.125    512.180    513.658    512.180
 89.270    626.268    602.119     24.149    512.058    600.662    512.058    513.572    512.058
 89.370    573.742    604.645    -30.903    511.934    603.155    511.934    513.487    511.934
 89.470    610.126    604.714      5.412    511.809    603.185    511.809    513.403    511.809
 89.570    603.000    602.243      0.757    511.682    600.670    511.682    513.320    511.682
 89.670    579.000    597.489    -18.489    511.555    595.867    511.555    513.239    511.555
 89.770    587.000    590.960     -3.960    511.425    589.285    511.425    513.160    511.425
 89.870    572.000    583.283    -11.283    511.295    581.548    511.295    513.083    511.295
 89.970    570.713    575.085     -4.371    511.163    573.285    511.163    513.009    511.163
 90.070    564.000    566.918     -2.918    511.030    565.051    511.030    512.936    511.030
 90.170    537.069    559.228    -22.160    510.896    557.288    510.896    512.868    510.896
 90.270    514.000    552.333    -38.333    510.760    550.314    510.760    512.805    510.760
 90.370    569.684    546.420     23.263    510.623    544.316    510.623    512.747    510.623
 90.470    553.000    541.565     11.435    510.485    539.369    510.485    512.695    510.485
 90.570    536.000    537.747     -1.747    510.345    535.452    510.345    512.651    510.345
 90.670    526.000    534.884     -8.884    510.204    532.480    510.204    512.615    510.204
 90.770    547.000    532.856     14.144    510.062    530.331    510.062    512.591    510.062
 90.870    495.197    531.534    -36.336    509.918    528.873    509.918    512.582    509.918
 90.970    526.000    530.796     -4.796    509.773    527.978    509.773    512.593    509.773
 91.070    521.000    530.514     -9.514    509.627    527.514    509.627    512.628    509.627
 91.170    509.000    530.703    -21.703    509.480    527.485    509.480    512.697    509.480
 91.270    545.380    531.339     14.042    509.332    527.857    509.332    512.811    509.332
 91.370    513.709    532.441    -18.732    509.182    528.637    509.182    512.983    509.182
 91.470    559.454    534.092     25.361    509.031    529.888    509.031    513.231    509.031
 91.570    526.000    536.424    -10.424    508.878    531.720    508.878    513.578    508.878
 91.670    526.000    539.616    -13.616    508.725    534.285    508.725    514.048    508.725
 91.770    501.559    543.887    -42.329    508.570    537.774    508.570    514.673    508.570
 91.870    520.000    549.487    -29.487    508.414    542.403    508.414    515.486    508.414
 91.970    577.000    556.683     20.317    508.256    548.403    508.256    516.520    508.256
 92.070    549.000    565.737    -16.737    508.098    556.002    508.098    517.812    508.098
 92.170    541.000    576.865    -35.865    507.938    565.386    507.938    519.391    507.938
 92.270    582.008    590.220     -8.212    507.777    576.684    507.777    521.281    507.777
 92.370    600.000    605.852     -5.852    507.615    589.933    507.615    523.495    507.615
 92.470    574.069    623.681    -49.612    507.452    605.055    507.452    526.031    507.452
 92.570    673.000    643.470     29.530    507.287    621.837    507.287    528.867    507.287
 92.670    641.906    664.813    -22.908    507.122    639.915    507.122    531.960    507.122
 92.770    704.000    687.127     16.873    506.955    658.778    506.955    535.237    506.955
 92.870    662.337    709.670    -47.333    506.787    677.786    506.787    538.598    506.787
 92.970    776.000    731.593     44.407    506.617    696.225    506.617    541.910    506.617
 93.070    782.000    752.044     29.956    506.447    713.409    506.447    545.003    506.447
 93.170    717.632    770.302    -52.670    506.275    728.815    506.275    547.682    506.275
 93.270    779.000    785.911     -6.911    506.103    742.198    506.103    549.736    506.103
 93.370    832.000    798.725     33.275    505.929    753.605    505.929    550.972    505.929
 93.470    861.020    808.859     52.162    505.754    763.285    505.754    551.252    505.754
 93.570    803.000    816.622    -13.622    505.578    771.596    505.578    550.531    505.578
 93.670    841.000    822.459     18.541    505.401    778.921    505.401    548.868    505.401
 93.770    868.000    826.928     41.072    505.223    785.671    505.223    546.412    505.223
 93.870    841.000    830.704     10.296    505.043    792.321    505.043    543.361    505.043
 93.970    830.611    834.557     -3.946    504.863    799.431    504.863    539.925    504.863
 94.070    847.000    839.243      7.757    504.681    807.565    504.681    536.297    504.681
 94.170    817.147    845.332    -28.185    504.499    817.129    504.499    532.642    504.499
 94.270    897.000    853.025     43.975    504.315    828.195    504.315    529.088    504.315
 94.370    828.083    862.038    -33.955    504.130    840.382    504.130    525.732    504.130
 94.470    874.000    871.571      2.429    503.944    852.823    503.944    522.641    503.944
 94.570    947.000    880.369     66.631    503.758    864.224    503.758    519.856    503.758
 94.670    954.000    886.864     67.136    503.570    872.998    503.570    517.395    503.570
 94.770    894.221    889.400      4.821    503.381    877.489    503.381    515.259    503.381
 94.870    930.015    886.553     43.462    503.191    876.287    503.191    513.433    503.191
 94.970    903.000    877.464     25.536    503.000    868.560    503.000    511.889    503.000
 95.070    895.000    862.084     32.916    502.808    854.285    502.808    510.600    502.808
 95.170    856.000    841.182     14.818    502.616    834.266    502.616    509.532    502.616
 95.270    892.000    816.172     75.828    502.422    809.950    502.422    508.649    502.422
 95.370    813.000    788.841     24.159    502.227    783.159    502.227    507.918    502.227
 95.470    801.000    761.114     39.886    502.031    755.847    502.031    507.310    502.031
 95.570    729.000    734.888     -5.888    501.835    729.935    501.835    506.799    501.835
 95.670    666.281    711.924    -45.643    501.637    707.206    501.637    506.364    501.637
 95.770    729.000    693.839     35.161    501.439    689.294    501.439    505.989    501.439
 95.870    635.960    682.015    -46.055    501.239    677.594    501.239    505.660    501.239
 95.970    725.091    677.629     47.461    501.039    673.294    501.039    505.367    501.039
 96.070    681.434    681.673     -0.239    500.838    677.393    500.838    505.103    500.838
 96.170    695.000    694.949      0.051    500.636    690.700    500.636    504.861    500.636
 96.270    735.000    718.062     16.938    500.433    713.822    500.433    504.638    500.433
 96.370    766.594    751.375     15.219    500.229    747.126    500.229    504.432    500.229
 96.470    758.000    794.932    -36.932    500.024    790.659    500.024    504.240    500.024
 96.570    826.000    848.364    -22.364    499.819    844.052    499.819    504.061    499.819
 96.670    860.000    910.768    -50.768    499.612    906.406    499.612    503.895    499.612
 96.770    946.337    980.623    -34.286    499.405    976.198    499.405    503.740    499.405
 96.870   1064.000   1055.712      8.288    499.197   1051.214    499.197    503.598    499.197
 96.970   1114.000   1133.111    -19.111    498.989   1128.530    498.989    503.467    498.989
 97.070   1166.791   1209.225    -42.434    498.779   1204.552    498.779    503.349    498.779
 97.170   1330.000   1279.908     50.092    498.569   1275.135    498.569    503.243    498.569
 97.270   1404.000   1340.718     63.282    498.358   1335.835    498.358    503.150    498.358
 97.370   1366.000   1387.331    -21.331    498.146   1382.329    498.146    503.072    498.146
 97.470   1359.300   1416.156    -56.856    497.934   1411.023    497.934    503.008    497.934
 97.570   1422.000   1424.987     -2.987    497.721   1419.709    497.721    502.961    497.721
 97.670   1308.000   1413.451   -105.451    497.507   1408.010    497.507    502.932    497.507
 97.770   1341.257   1383.028    -41.771    497.292   1377.402    497.292    502.924    497.292
 97.870   1334.000   1336.657     -2.657    497.077   1330.819    497.077    502.938    497.077
 97.970   1329.000   1278.150     50.850    496.861   1272.068    496.861    502.981    496.861
 98.070   1187.000   1211.661    -24.661    496.645   1205.299    496.645    503.055    496.645
 98.170   1157.000   1141.308     15.692    496.427   1134.620    496.427    503.169    496.427
 98.270   1109.000   1070.917     38.083    496.210   1063.850    496.210    503.333    496.210
 98.370    999.655   1003.883     -4.228    495.991    996.371    495.991    503.558    495.991
 98.470   1010.000    943.087     66.913    495.772    935.048    495.772    503.861    495.772
 98.570    911.000    890.883     20.117    495.553    882.213    495.553    504.266    495.553
 98.670    848.000    849.120     -1.120    495.333    839.686    495.333    504.801    495.333
 98.770    822.000    819.199      2.801    495.112    808.834    495.112    505.503    495.112
 98.870    758.000    802.155    -44.155    494.891    790.643    494.891    506.418    494.891
 98.970    851.128    798.733     52.396    494.669    785.804    494.669    507.604    494.669
 99.070    826.000    809.456     16.544    494.447    794.771    494.447    509.127    494.447
 99.170    807.000    834.649    -27.649    494.224    817.792    494.224    511.069    494.224
 99.270    819.000    874.481    -55.481    494.001    854.946    494.001    513.517    494.001
 99.370    936.000    928.863      7.137    493.777    906.048    493.777    516.568    493.777
 99.470    963.974    997.384    -33.410    493.553    970.586    493.553    520.325    493.553
 99.570   1120.000   1079.230     40.770    493.329   1047.645    493.329    524.886    493.329
 99.670   1200.000   1173.065     26.935    493.104   1135.800    493.104    530.345    493.104
 99.770   1240.000   1276.941    -36.941    492.878   1233.024    492.878    536.777    492.878
 99.870   1430.514   1388.215     42.300    492.653   1336.627    492.653    544.233    492.653
 99.970   1541.514   1503.534     37.980    492.427   1443.239    492.427    552.729    492.427
100.070   1684.000   1618.896     65.104    492.200   1548.888    492.200    562.235    492.200
100.170   1696.356   1729.845    -33.490    491.973   1649.200    491.973    572.667    491.973
100.270   1868.000   1831.807     36.193    491.746   1739.745    491.746    583.882    491.746
100.370   2050.000   1920.503    129.497    491.519   1816.459    491.519    595.663    491.519
100.470   2022.000   1992.317     29.683    491.291   1876.012    491.291    607.723    491.291
100.570   2013.091   2044.463    -31.372    491.063   1915.986    491.063    619.691    491.063
100.670   2136.000   2074.969     61.031    490.835   1934.857    490.835    631.120    490.835
100.770   2032.000   2082.635    -50.635    490.607   1931.944    490.607    641.489    490.607
100.870   2109.000   2067.122     41.878    490.378   1907.474    490.378    650.231    490.378
100.970   2022.000   2029.214     -7.214    490.149   1862.793    490.149    656.784    490.149
101.070   1937.464   1971.077    -33.613    489.920   1800.552    489.920    660.662    489.920
101.170   1909.000   1896.287     12.713    489.691   1724.649    489.691    661.543    489.691
101.270   1794.000   1809.515    -15.515    489.462   1639.849    489.462    659.335    489.462
101.370   1763.018   1715.975     47.043    489.233   1551.203    489.233    654.200    489.233
101.470   1581.000   1620.818    -39.818    489.003   1463.486    489.003    646.517    489.003
101.570   1507.754   1528.637    -20.883    488.774   1380.774    488.774    636.801    488.774
101.670   1431.912   1443.138    -11.226    488.544   1306.204    488.544    625.626    488.544
101.770   1402.000   1366.963     35.037    488.314   1241.861    488.314    613.548    488.314
101.870   1379.000   1301.631     77.369    488.084   1188.763    488.084    601.070    488.084
101.970   1237.507   1247.570    -10.063    487.855   1146.913    487.855    588.616    487.855
102.070   1221.000   1204.208     16.792    487.625   1115.393    487.625    576.534    487.625
102.170   1229.000   1170.117     58.883    487.395   1092.509    487.395    565.089    487.395
102.270   1078.000   1143.201    -65.201    487.166   1075.972    487.166    554.476    487.166
102.370   1141.000   1120.935     20.065    486.936   1063.128    486.936    544.821    486.936
102.470   1152.286   1100.644     51.642    486.706   1051.238    486.706    536.190    486.706
102.570   1050.222   1079.835    -29.613    486.477   1037.791    486.477    528.599    486.477
102.670   1016.000   1056.513    -40.513    486.248   1020.820    486.248    522.022    486.248
102.770   1080.097   1029.424     50.673    486.019    999.127    486.019    516.398    486.019
102.870   1036.000    998.130     37.870    485.790    972.355    485.790    511.647    485.790
102.970    939.000    962.921    -23.921    485.561    940.891    485.561    507.673    485.561
103.070    934.000    924.613      9.387    485.332    905.650    485.332    504.375    485.332
103.170    954.000    884.319     69.681    485.104    867.846    485.104    501.652    485.104
103.270    881.000    843.257     37.743    484.876    828.794    484.876    499.410    484.876
103.370    778.063    802.618    -24.556    484.648    789.770    484.648    497.561    484.648
103.470    775.000    763.473     11.527    484.420    751.922    484.420    496.031    484.420
103.570    756.000    726.714     29.286    484.193    716.206    484.193    494.753    484.193
103.670    702.000    693.018      8.982    483.966    683.354    483.966    493.675    483.966
103.770    683.262    662.833     20.429    483.740    653.858    483.740    492.753    483.740
103.870    671.000    636.384     34.616    483.514    627.977    483.514    491.952    483.514
103.970    646.189    613.712     32.477    483.288    605.780    483.288    491.246    483.288
104.070    600.000    594.672      5.328    483.063    587.142    483.063    490.614    483.063
104.170    556.000    578.998    -22.998    482.838    571.812    482.838    490.040    482.838
104.270    554.000    566.343    -12.343    482.614    559.458    482.614    489.512    482.614
104.370    568.000    556.322     11.678    482.390    549.699    482.390    489.022    482.390
104.470    595.375    548.540     46.835    482.166    542.150    482.166    488.563    482.166
104.570    570.449    542.626     27.823    481.944    536.443    481.944    488.131    481.944
104.670    553.000    538.246     14.754    481.721    532.248    481.721    487.721    481.721
104.770    504.440    535.117    -30.677    481.500    529.286    481.500    487.331    481.500
104.870    564.000    533.015     30.985    481.279    527.333    481.279    486.959    481.279
104.970    554.778    531.768     23.010    481.058    526.221    481.058    486.603    481.058
105.070    514.000    531.264    -17.264    480.838    525.837    480.838    486.261    480.838
105.170    547.000    531.437     15.563    480.619    526.118    480.619    485.933    480.619
105.270    571.890    532.271     39.619    480.401    527.048    480.401    485.617    480.401
105.370    558.910    533.787     25.123    480.183    528.650    480.183    485.313    480.183
105.470    530.000    536.046     -6.046    479.966    530.984    479.966    485.019    479.966
105.570    557.000    539.132     17.868    479.750    534.135    479.750    484.735    479.750
105.670    564.000    543.149     20.851    479.535    538.209    479.535    484.461    479.535
105.770    535.246    548.207    -12.961    479.321    543.314    479.321    484.197    479.321
105.870    546.000    554.403     -8.403    479.107    549.550    479.107    483.940    479.107
105.970    601.941    561.813     40.128    478.894    556.992    478.894    483.693    478.894
106.070    536.316    570.470    -34.155    478.683    565.674    478.683    483.453    478.683
106.170    584.000    580.355      3.645    478.472    575.577    478.472    483.221    478.472
106.270    557.000    591.384    -34.384    478.262    586.617    478.262    482.997    478.262
106.370    611.000    603.401      7.599    478.053    598.639    478.053    482.779    478.053
106.470    619.851    616.180      3.671    477.845    611.416    477.845    482.570    477.845
106.570    614.000    629.419    -15.419    477.638    624.649    477.638    482.367    477.638
106.670    667.784    642.756     25.028    477.432    637.973    477.432    482.171    477.432
106.770    673.054    655.775     17.279    477.228    650.974    477.228    481.982    477.228
106.870    658.216    668.026     -9.810    477.024    663.204    477.024    481.800    477.024
106.970    660.000    679.057    -19.057    476.822    674.208    476.822    481.625    476.822
107.070    660.000    688.452    -28.452    476.621    683.570    476.621    481.456    476.621
107.170    662.366    695.879    -33.513    476.421    690.962    476.421    481.294    476.421
107.270    647.000    701.154    -54.154    476.222    696.196    476.222    481.139    476.222
107.370    702.000    704.271     -2.271    476.024    699.272    476.024    480.986    476.024
107.470    688.000    705.432    -17.432    475.828    700.381    475.828    480.845    475.828
107.570    688.000    704.990    -16.990    475.633    699.882    475.633    480.712    475.633
107.670    692.000    703.406    -11.406    475.440    698.235    475.440    480.586    475.440
107.770    689.701    701.177    -11.475    475.247    695.936    475.247    480.467    475.247
107.870    687.000    698.769    -11.769    475.057    693.453    475.057    480.357    475.057
107.970    662.751    696.576    -33.825    474.867    691.177    474.867    480.254    474.867
108.070    736.000    694.880     41.120    474.679    689.392    474.679    480.160    474.679
108.170    677.000    693.836    -16.836    474.493    688.251    474.493    480.074    474.493
108.270    684.444    693.463     -9.019    474.308    687.776    474.308    479.995    474.308
108.370    704.000    693.637     10.363    474.125    687.849    474.125    479.916    474.125
108.470    642.677    694.136    -51.459    473.943    688.229    473.943    479.856    473.943
108.570    710.000    694.608     15.392    473.763    688.573    473.763    479.807    473.763
108.670    677.000    694.638    -17.638    473.584    688.466    473.584    479.769    473.584
108.770    691.000    693.787     -2.787    473.408    687.468    473.408    479.741    473.408
108.870    710.000    691.652     18.348    473.232    685.178    473.232    479.725    473.232
108.970    636.000    687.927    -51.927    473.059    681.286    473.059    479.721    473.059
109.070    672.389    682.446    -10.057    472.887    675.627    472.887    479.729    472.887
109.170    694.089    675.207     18.882    472.718    668.198    472.718    479.750    472.718
109.270    680.000    666.362     13.638    472.550    659.149    472.550    479.786    472.550
109.370    625.727    656.179    -30.452    472.383    648.749    472.383    479.836    472.383
109.470    607.231    644.997    -37.766    472.219    637.337    472.219    479.902    472.219
109.570    646.000    633.169     12.831    472.057    625.263    472.057    479.985    472.057
109.670    659.146    621.097     38.049    471.897    612.928    471.897    480.086    471.897
109.770    606.000    609.150     -3.150    471.738    600.700    471.738    480.206    471.738
109.870    605.000    597.620      7.380    471.582    588.870    471.582    480.347    471.582
109.970    578.000    586.769     -8.769    471.428    577.699    471.428    480.511    471.428
110.070    609.000    576.805     32.195    471.275    567.392    471.275    480.700    471.275
110.170    582.000    567.881     14.119    471.125    558.099    471.125    480.917    471.125
110.270    581.000    560.089     20.911    470.977    549.910    470.977    481.164    470.977
110.370    552.000    553.473     -1.473    470.832    542.864    470.832    481.446    470.832
110.470    566.680    548.028     18.652    470.688    536.952    470.688    481.768    470.688
110.570    539.000    543.715     -4.715    470.547    532.129    470.547    482.135    470.547
110.670    533.831    540.466     -6.635    470.408    528.319    470.408    482.556    470.408
110.770    534.567    538.197     -3.629    470.271    525.427    470.271    483.040    470.271
110.870    519.000    536.814    -17.814    470.137    523.350    470.137    483.599    470.137
110.970    560.000    536.223     23.777    470.005    521.977    470.005    484.248    470.005
111.070    524.000    536.337    -12.337    469.875    521.202    469.875    485.007    469.875
111.170    532.000    537.080     -5.080    469.748    520.925    469.748    485.898    469.748
111.270    548.156    538.389      9.767    469.624    521.056    469.624    486.951    469.624
111.370    523.962    540.220    -16.257    469.502    521.515    469.502    488.201    469.502
111.470    547.000    542.546      4.454    469.382    522.232    469.382    489.689    469.382
111.570    579.000    545.362     33.638    469.266    523.152    469.266    491.468    469.266
111.670    566.000    548.680     17.320    469.151    524.229    469.151    493.594    469.151
111.770    525.071    552.534    -27.463    469.040    525.427    469.040    496.138    469.040
111.870    551.000    556.978     -5.978    468.931    526.724    468.931    499.176    468.931
111.970    524.000    562.087    -38.087    468.825    528.107    468.825    502.796    468.825
112.070    548.000    567.953    -19.953    468.722    529.572    468.722    507.093    468.722
112.170    551.309    574.687    -23.378    468.621    531.128    468.621    512.171    468.621
112.270    559.000    582.413    -23.413    468.524    532.790    468.524    518.137    468.524
112.370    548.000    591.263    -43.263    468.429    534.582    468.429    525.101    468.429
112.470    591.000    601.379    -10.379    468.337    536.535    468.337    533.171    468.337
112.570    607.000    612.900     -5.900    468.248    538.689    468.248    542.449    468.248
112.670    624.000    625.968     -1.968    468.163    541.093    468.163    553.026    468.163
112.770    666.000    640.715     25.285    468.080    543.809    468.080    564.975    468.080
112.870    687.000    657.270     29.730    468.000    546.914    468.000    578.345    468.000
112.970    682.286    675.753      6.533    467.924    550.509    467.924    593.156    467.924
113.070    663.000    696.278    -33.278    467.850    554.727    467.850    609.388    467.850
113.170    762.000    718.959     43.041    467.780    559.742    467.780    626.984    467.780
113.270    747.000    743.917      3.083    467.713    565.783    467.713    645.833    467.713
113.370    741.000    771.292    -30.292    467.650    573.150    467.650    665.774    467.650
113.470    748.585    801.257    -52.672    467.589    582.238    467.589    686.589    467.589
113.570    889.327    834.041     55.286    467.532    593.554    467.532    707.997    467.532
113.670    935.000    869.949     65.051    467.479    607.749    467.479    729.653    467.479
113.770    876.942    909.390    -32.449    467.429    625.641    467.429    751.148    467.429
113.870    924.642    952.908    -28.266    467.382    648.246    467.382    772.007    467.382
113.970   1050.000   1001.209     48.791    467.339    676.807    467.339    791.695    467.339
114.070   1053.000   1055.201     -2.201    467.300    712.813    467.300    809.631    467.300
114.170   1170.847   1116.027     54.820    467.264    758.013    467.264    825.208    467.264
114.270   1138.000   1185.110    -47.110    467.231    814.426    467.231    837.830    467.231
114.370   1252.723   1264.180    -11.456    467.203    884.317    467.203    846.960    467.203
114.470   1355.000   1355.301     -0.301    467.178    970.172    467.178    852.177    467.178
114.570   1502.000   1460.860     41.140    467.157   1074.633    467.157    853.227    467.157
114.670   1627.269   1583.518     43.751    467.139   1200.412    467.139    850.055    467.139
114.770   1702.110   1726.094    -23.984    467.126   1350.175    467.126    842.816    467.126
114.870   1956.611   1891.403     65.208    467.116   1526.395    467.116    831.854    467.116
114.970   2003.130   2082.036    -78.907    467.111   1731.177    467.111    817.653    467.111
115.070   2317.530   2300.119     17.411    467.109   1966.074    467.109    800.787    467.109
115.170   2601.997   2547.051     54.946    467.112   2231.880    467.112    781.862    467.112
115.270   2780.133   2823.271    -43.138    467.118   2528.438    467.118    761.478    467.118
115.370   3248.000   3128.044    119.956    467.129   2854.453    467.129    740.194    467.129
115.470   3339.000   3459.293   -120.293    467.143   3207.343    467.143    718.519    467.143
115.570   3865.897   3813.484     52.413    467.162   3583.134    467.162    696.893    467.162
115.670   4098.000   4185.569    -87.569    467.185   3976.402    467.185    675.696    467.185
115.770   4405.000   4568.998   -163.998    467.213   4380.287    467.213    655.240    467.213
115.870   4715.000   4955.798   -240.798    467.245   4786.571    467.245    635.773    467.245
115.970   5256.000   5336.725    -80.725    467.281   5185.818    467.281    617.487    467.281
116.070   5558.000   5701.490   -143.490    467.321   5567.610    467.321    600.516    467.321
116.170   5892.000   6039.081   -147.081    467.366   5920.849    467.366    584.945    467.366
116.270   6282.033   6338.192    -56.159    467.416   6234.192    467.416    570.812    467.416
116.370   6510.000   6587.783    -77.783    467.470   6496.602    467.470    558.115    467.470
116.470   6666.000   6777.809   -111.809    467.529   6698.066    467.529    546.819    467.529
116.570   7052.497   6900.065    152.431    467.592   6830.437    467.592    536.864    467.592
116.670   7085.000   6948.901    136.099    467.660   6888.146    467.660    528.166    467.660
116.770   7017.000   6921.920     95.080    467.733   6868.885    467.733    520.630    467.733
116.870   6797.253   6820.234    -22.980    467.811   6773.869    467.811    514.148    467.811
116.970   6614.619   6648.311    -33.692    467.893   6607.671    467.893    508.612    467.893
117.070   6545.000   6413.435    131.565    467.980   6377.677    467.980    503.913    467.980
117.170   6084.000   6124.936    -40.936    468.073   6093.321    468.073    499.944    468.073
117.270   5879.881   5793.375     86.506    468.170   5765.261    468.170    496.606    468.170
117.370   5294.000   5429.804   -135.804    468.272   5404.641    468.272    493.809    468.272
117.470   5045.000   5045.169     -0.169    468.379   5022.489    468.379    491.469    468.379
117.570   4621.503   4649.850    -28.348    468.492   4629.257    468.492    489.513    468.492
117.670   4329.000   4253.322     75.678    468.609   4234.487    468.609    487.877    468.609
117.770   3970.617   3863.913    106.704    468.732   3846.563    468.732    486.508    468.732
117.870   3476.739   3488.645    -11.906    468.860   3472.555    468.860    485.359    468.860
117.970   3302.000   3133.153    168.847    468.994   3118.139    468.994    484.391    468.994
118.070   2981.000   2801.668    179.332    469.132   2787.579    469.132    483.572    469.132
118.170   2558.071   2497.072     61.000    469.277   2483.786    469.277    482.877    469.277
118.270   2251.379   2221.002     30.376    469.426   2208.421    469.426    482.285    469.426
118.370   1891.000   1973.996    -82.996    469.581   1962.039    469.581    481.778    469.581
118.470   1738.000   1755.659    -17.659    469.742   1744.261    469.742    481.343    469.742
118.570   1506.000   1564.844    -58.844    469.908   1553.950    469.908    480.970    469.908
118.670   1464.519   1399.832     64.687    470.080   1389.399    470.080    480.650    470.080
118.770   1251.000   1258.513     -7.513    470.258   1248.503    470.258    480.377    470.258
118.870   1088.139   1138.540    -50.401    470.441   1128.922    470.441    480.144    470.441
118.970   1001.000   1037.475    -36.475    470.631   1028.221    470.631    479.949    470.631
119.070    917.000    952.903    -35.903    470.826    943.989    470.826    479.787    470.826
119.170    881.000    882.520     -1.520    471.027    873.924    471.027    479.657    471.027
119.270    794.682    824.196    -29.515    471.234    815.899    471.234    479.555    471.234
119.370    784.200    776.018      8.182    471.447    768.000    471.447    479.482    471.447
119.470    717.000    736.299    -19.299    471.666    728.542    471.666    479.434    471.666
119.570    712.000    703.588      8.412    471.891    696.075    471.891    479.412    471.891
119.670    610.000    676.655    -66.655    472.123    669.368    472.123    479.415    472.123
119.770    638.000    654.473    -16.473    472.361    647.395    472.361    479.442    472.361
119.870    608.000    636.198    -28.198    472.605    629.312    472.605    479.493    472.605
119.970    613.000    621.142     -8.142    472.855    614.431    472.855    479.569    472.855
120.070    605.035    608.752     -3.717    473.112    602.197    473.112    479.668    473.112
120.170    622.000    598.584     23.416    473.375    592.168    473.375    479.793    473.375
120.270    599.000    590.288      8.712    473.644    583.993    473.644    479.942    473.644
120.370    589.736    583.586      6.150    473.921    577.393    473.921    480.117    473.921
120.470    541.971    578.262    -36.291    474.203    572.150    474.203    480.318    474.203
120.570    576.184    574.146      2.039    474.493    568.095    474.493    480.547    474.493
120.670    580.000    571.106      8.894    474.789    565.096    474.789    480.804    474.789
120.770    523.000    569.039    -46.039    475.092    563.047    475.092    481.089    475.092
120.870    557.000    567.865    -10.865    475.402    561.868    475.402    481.404    475.402
120.970    555.000    567.518    -12.518    475.719    561.493    475.719    481.750    475.719
121.070    592.000    567.946     24.054    476.042    561.868    476.042    482.127    476.042
121.170    605.529    569.101     36.429    476.373    562.947    476.373    482.535    476.373
121.270    570.000    570.938     -0.938    476.711    564.683    476.711    482.976    476.711
121.370    584.000    573.411     10.589    477.055    567.030    477.055    483.448    477.055
121.470    579.000    576.471      2.529    477.407    569.940    477.407    483.951    477.407
121.570    618.739    580.060     38.678    477.767    573.357    477.767    484.485    477.767
121.670    624.000    584.117     39.883    478.133    577.219    478.133    485.049    478.133
121.770    599.157    588.567     10.590    478.507    581.454    478.507    485.641    478.507
121.870    581.000    593.327    -12.327    478.888    585.981    478.888    486.258    478.888
121.970    597.761    598.305     -0.545    479.277    590.710    479.277    486.898    479.277
122.070    592.000    603.399    -11.399    479.673    595.543    479.673    487.558    479.673
122.170    615.105    608.497      6.608    480.077    600.372    480.077    488.233    480.077
122.270    621.000    613.482      7.518    480.488    605.084    480.488    488.920    480.488
122.370    623.000    618.232      4.768    480.908    609.563    480.908    489.613    480.908
122.470    622.000    622.625     -0.625    481.334    613.692    481.334    490.307    481.334
122.570    638.370    626.543     11.827    481.769    617.359    481.769    490.995    481.769
122.670    631.000    629.876      1.124    482.212    620.462    482.212    491.670    482.212
122.770    671.205    632.534     38.671    482.662    622.915    482.662    492.327    482.662
122.870    667.152    634.444     32.707    483.121    624.656    483.121    492.957    483.121
122.970    654.670    635.566     19.105    483.587    625.647    483.587    493.554    483.587
123.070    665.000    635.884     29.116    484.062    625.882    484.062    494.112    484.062
123.170    627.000    635.415     -8.415    484.545    625.381    484.545    494.627    484.545
123.270    630.219    634.202     -3.982    485.036    624.190    485.036    495.095    485.036
123.370    626.766    632.306     -5.540    485.535    622.373    485.535    495.515    485.535
123.470    613.564    629.809    -16.245    486.043    620.008    486.043    495.889    486.043
123.570    661.000    626.798     34.202    486.559    617.182    486.559    496.218    486.559
123.670    593.273    623.369    -30.096    487.084    613.985    487.084    496.507    487.084
123.770    637.000    619.614     17.386    487.617    610.505    487.617    496.763    487.617
123.870    633.000    615.626     17.374    488.158    606.827    488.158    496.991    488.158
123.970    624.113    611.489     12.624    488.709    603.030    488.709    497.199    488.709
124.070    620.222    607.276     12.946    489.268    599.182    489.268    497.390    489.268
124.170    621.203    603.057     18.146    489.836    595.341    489.836    497.577    489.836
124.270    605.000    598.883      6.117    490.413    591.555    490.413    497.763    490.413
124.370    593.990    594.796     -0.806    490.999    587.859    490.999    497.954    490.999
124.470    620.000    590.823     29.177    491.593    584.277    491.593    498.156    491.593
124.570    621.000    586.978     34.022    492.197    580.817    492.197    498.372    492.197
124.670    579.000    583.276     -4.276    492.810    577.492    492.810    498.606    492.810
124.770    582.000    579.715      2.285    493.432    574.295    493.432    498.862    493.432
124.870    546.034    576.289    -30.254    494.064    571.217    494.064    499.143    494.064
124.970    563.000    572.989     -9.989    494.704    568.249    494.704    499.450    494.704
