neutron_powder_diffraction_0040
R_wp: 3.926
Temperature (K): 593.114
Counts: 83562.00
Wavelength (Ã…): 2.52098
COMMENTS
Test file for demonstrating the .xyy file format in Reel1.0
END OF HEADER
   tth       Y_obs     Y_calc      Y_res    Background    Phase_1_Nuc    Phase_1_Mag    Phase_2_Nuc    Phase_2_Mag
  9.970    735.000    683.297     51.703    681.774    682.834    682.237    681.774    681.774
 10.070    729.203    682.606     46.597    680.992    682.137    681.459    680.992    680.992
 10.170    646.929    681.928    -35.000    680.212    681.455    680.684    680.212    680.212
 10.270    718.000    681.268     36.732    679.434    680.789    679.912    679.434    679.434
 10.370    691.000    680.627     10.373    678.658    680.143    679.141    678.658    678.658
 10.470    672.615    680.009     -7.394    677.885    679.520    678.374    677.885    677.885
 10.570    726.000    679.419     46.581    677.115    678.924    677.608    677.115    677.115
 10.670    709.000    678.863     30.137    676.346    678.363    676.845    676.346    676.346
 10.770    708.906    678.350     30.557    675.580    677.844    676.085    675.580    675.580
 10.870    685.000    677.889      7.111    674.817    677.378    675.327    674.817    674.817
 10.970    649.473    677.496    -28.023    674.056    676.979    674.572    674.056    674.056
 11.070    722.153    677.191     44.963    673.297    676.667    673.819    673.297    673.297
 11.170    622.324    677.002    -54.678    672.541    676.472    673.069    672.541    672.541
 11.270    688.000    676.973     11.027    671.788    676.437    672.321    671.788    671.788
 11.370    684.000    677.173      6.827    671.036    676.631    671.576    671.036    671.036
 11.470    737.000    677.739     59.261    670.287    677.190    670.833    670.287    670.287
 11.570    646.535    678.965    -32.430    669.541    678.408    670.093    669.541    669.541
 11.670    741.000    681.503     59.497    668.797    680.938    669.356    668.797    668.797
 11.770    737.000    686.645     50.355    668.056    686.070    668.621    668.056    668.056
 11.870    810.000    696.423    113.577    667.317    695.835    667.889    667.317    667.317
 11.970    726.164    713.055     13.108    666.581    712.450    667.159    666.581    666.581
 12.070    841.000    737.216    103.784    665.847    736.590    666.432    665.847    665.847
 12.170    794.185    765.051     29.135    665.115    764.401    665.708    665.115    665.115
 12.270    816.354    785.528     30.826    664.387    784.859    664.986    664.387    664.387
 12.370    822.000    785.727     36.273    663.660    785.051    664.267    663.660    663.660
 12.470    717.455    764.924    -47.468    662.937    764.251    663.551    662.937    662.937
 12.570    764.000    735.671     28.329    662.215    735.008    662.837    662.215    662.215
 12.670    708.000    709.572     -1.572    661.497    708.915    662.126    661.497    661.497
 12.770    646.000    690.941    -44.941    660.781    690.287    661.418    660.781    660.781
 12.870    639.614    679.306    -39.692    660.067    678.650    660.712    660.067    660.067
 12.970    649.000    672.481    -23.481    659.356    671.821    660.009    659.356    659.356
 13.070    623.898    668.381    -44.482    658.648    667.714    659.309    658.648    658.648
 13.170    646.000    665.658    -19.658    657.942    664.984    658.612    657.942    657.942
 13.270    699.655    663.627     36.029    657.239    662.945    657.917    657.239    657.239
 13.370    639.000    661.997    -22.997    656.538    661.307    657.225    656.538    656.538
 13.470    646.808    660.703    -13.895    655.840    660.005    656.536    655.840    655.840
 13.570    656.000    659.462     -3.462    655.145    658.754    655.850    655.145    655.145
 13.670    641.000    658.327    -17.327    654.452    657.611    655.166    654.452    654.452
 13.770    684.854    657.282     27.572    653.762    656.557    654.486    653.762    653.762
 13.870    668.000    656.306     11.694    653.074    655.572    653.808    653.074    653.074
 13.970    621.594    655.385    -33.791    652.389    654.640    653.133    652.389    652.389
 14.070    595.000    654.507    -59.507    651.707    653.752    652.461    651.707    651.707
 14.170    617.000    653.666    -36.666    651.027    652.902    651.791    651.027    651.027
 14.270    618.701    652.862    -34.161    650.350    652.087    651.125    650.350    650.350
 14.370    604.000    652.092    -48.092    649.676    651.305    650.462    649.676    649.676
 14.470    645.000    651.323     -6.323    649.004    650.526    649.801    649.004    649.004
 14.570    642.945    650.571     -7.626    648.335    649.762    649.143    648.335    648.335
 14.670    593.000    649.833    -56.833    647.669    649.013    648.488    647.669    647.669
 14.770    629.000    649.108    -20.108    647.005    648.277    647.836    647.005    647.005
 14.870    604.000    648.395    -44.395    646.344    647.552    647.187    646.344    646.344
 14.970    591.000    647.692    -56.692    645.686    646.837    646.541    645.686    645.686
 15.070    649.876    646.999      2.877    645.030    646.131    645.897    645.030    645.030
 15.170    632.000    646.314    -14.314    644.378    645.434    645.257    644.378    644.378
 15.270    625.850    645.637    -19.787    643.727    644.744    644.620    643.727    643.727
 15.370    578.000    644.967    -66.967    643.080    644.060    643.986    643.080    643.080
 15.470    672.000    644.303     27.697    642.435    643.384    643.354    642.435    642.435
 15.570    640.000    643.646     -3.646    641.793    642.713    642.726    641.793    641.793
 15.670    646.588    642.995      3.592    641.153    642.048    642.101    641.153    641.153
 15.770    605.000    642.352    -37.352    640.517    641.390    641.479    640.517    640.517
 15.870    623.000    641.715    -18.715    639.883    640.738    640.859    639.883    639.883
 15.970    664.000    641.081     22.919    639.252    640.088    640.243    639.252    639.252
 16.070    607.000    640.450    -33.450    638.623    639.443    639.630    638.623    638.623
 16.170    626.000    639.825    -13.825    637.997    638.802    639.021    637.997    637.997
 16.270    619.000    639.205    -20.205    637.374    638.165    638.414    637.374    637.374
 16.370    656.777    638.588     18.189    636.754    637.532    637.810    636.754    636.754
 16.470    649.000    637.977     11.023    636.136    636.903    637.210    636.136    636.136
 16.570    609.000    637.370    -28.370    635.522    636.279    636.612    635.522    635.522
 16.670    605.899    636.769    -30.871    634.910    635.660    636.018    634.910    634.910
 16.770    574.000    636.175    -62.175    634.300    635.048    635.427    634.300    634.300
 16.870    598.000    635.581    -37.581    633.694    634.435    634.840    633.694    633.694
 16.970    645.000    634.990     10.010    633.090    633.825    634.255    633.090    633.090
 17.070    589.000    634.404    -45.404    632.489    633.218    633.674    632.489    632.489
 17.170    656.613    633.821     22.792    631.891    632.616    633.096    631.891    631.891
 17.270    626.000    633.243     -7.243    631.295    632.016    632.521    631.295    631.295
 17.370    637.000    632.668      4.332    630.702    631.420    631.950    630.702    630.702
 17.470    637.000    632.104      4.896    630.113    630.834    631.383    630.113    630.113
 17.570    577.000    631.602    -54.602    629.525    630.308    630.819    629.525    629.525
 17.670    617.823    631.068    -13.244    628.941    629.750    630.259    628.941    628.941
 17.770    656.866    630.512     26.354    628.359    629.170    629.701    628.359    628.359
 17.870    603.000    629.957    -26.957    627.780    628.591    629.146    627.780    627.780
 17.970    598.562    629.407    -30.845    627.204    628.016    628.596    627.204    627.204
 18.070    626.000    628.861     -2.861    626.631    627.444    628.048    626.631    626.631
 18.170    679.236    628.328     50.907    626.061    626.885    627.504    626.061    626.061
 18.270    604.000    627.812    -23.812    625.493    626.340    626.964    625.493    625.493
 18.370    646.610    627.279     19.331    624.928    625.780    626.427    624.928    624.928
 18.470    627.000    626.749      0.251    624.366    625.221    625.894    624.366    624.366
 18.570    586.971    626.223    -39.252    623.807    624.665    625.365    623.807    623.807
 18.670    627.000    625.701      1.299    623.250    624.112    624.839    623.250    623.250
 18.770    628.197    625.183      3.014    622.696    623.563    624.317    622.696    622.696
 18.870    648.000    624.670     23.330    622.145    623.016    623.798    622.145    622.145
 18.970    620.000    624.162     -4.162    621.597    622.475    623.284    621.597    621.597
 19.070    676.000    623.668     52.332    621.052    621.947    622.773    621.052    621.052
 19.170    647.693    623.169     24.524    620.509    621.411    622.267    620.509    620.509
 19.270    597.000    622.673    -25.673    619.970    620.878    621.764    619.970    619.970
 19.370    607.595    622.181    -14.585    619.433    620.348    621.265    619.433    619.433
 19.470    580.870    621.693    -40.824    618.898    619.822    620.770    618.898    618.898
 19.570    616.000    621.213     -5.213    618.367    619.300    620.280    618.367    618.367
 19.670    651.000    620.760     30.240    617.839    618.799    619.800    617.839    617.839
 19.770    597.000    620.333    -23.333    617.313    618.317    619.328    617.313    617.313
 19.870    606.000    619.870    -13.870    616.790    617.808    618.851    616.790    616.790
 19.970    585.396    619.409    -34.013    616.270    617.301    618.378    616.270    616.270
 20.070    608.242    618.958    -10.716    615.752    616.801    617.909    615.752    615.752
 20.170    597.000    618.525    -21.525    615.238    616.319    617.444    615.238    615.238
 20.270    574.000    618.080    -44.080    614.726    615.822    616.984    614.726    614.726
 20.370    641.000    617.641     23.359    614.217    615.328    616.530    614.217    614.217
 20.470    607.000    617.238    -10.238    613.711    614.857    616.092    613.711    613.711
 20.570    611.000    616.832     -5.832    613.208    614.390    615.651    613.208    613.208
 20.670    607.000    616.451     -9.451    612.708    613.948    615.211    612.708    612.708
 20.770    638.000    616.058     21.942    612.210    613.492    614.775    612.210    612.210
 20.870    576.079    615.655    -39.576    611.715    613.025    614.345    611.715    611.715
 20.970    584.000    615.293    -31.293    611.223    612.596    613.920    611.223    611.223
 21.070    651.579    614.939     36.640    610.734    612.172    613.501    610.734    610.734
 21.170    566.223    614.556    -48.333    610.247    611.716    613.087    610.247    610.247
 21.270    617.000    614.172      2.828    609.764    611.257    612.679    609.764    609.764
 21.370    654.751    613.795     40.956    609.283    610.802    612.276    609.283    609.283
 21.470    607.232    613.438     -6.205    608.805    610.358    611.884    608.805    608.805
 21.570    643.458    613.079     30.380    608.330    609.914    611.494    608.330    608.330
 21.670    601.000    612.728    -11.728    607.857    609.475    611.110    607.857    607.857
 21.770    651.826    612.398     39.428    607.388    609.053    610.733    607.388    607.388
 21.870    545.000    612.069    -67.069    606.921    608.627    610.363    606.921    606.921
 21.970    635.000    611.744     23.256    606.457    608.202    609.999    606.457    606.457
 22.070    634.000    611.429     22.571    605.995    607.782    609.643    605.995    605.995
 22.170    560.000    611.126    -51.126    605.537    607.368    609.295    605.537    605.537
 22.270    615.000    610.834      4.166    605.081    606.961    608.954    605.081    605.081
 22.370    589.000    610.554    -21.554    604.629    606.561    608.622    604.629    604.629
 22.470    624.000    610.289     13.711    604.178    606.169    608.298    604.178    604.178
 22.570    599.000    610.038    -11.038    603.731    605.786    607.983    603.731    603.731
 22.670    624.160    609.804     14.356    603.287    605.412    607.678    603.287    603.287
 22.770    623.000    609.588     13.412    602.845    605.051    607.383    602.845    602.845
 22.870    634.000    609.392     24.608    602.406    604.701    607.098    602.406    602.406
 22.970    609.951    609.219      0.733    601.970    604.365    606.824    601.970    601.970
 23.070    607.000    609.073     -2.073    601.537    604.048    606.563    601.537    601.537
 23.170    618.256    608.954      9.302    601.106    603.747    606.313    601.106    601.106
 23.270    584.739    608.863    -24.124    600.678    603.467    606.075    600.678    600.678
 23.370    617.000    608.810      8.190    600.253    603.213    605.851    600.253    600.253
 23.470    596.000    608.801    -12.801    599.831    602.991    605.641    599.831    599.831
 23.570    596.000    608.844    -12.844    599.412    602.810    605.447    599.412    599.412
 23.670    648.000    608.953     39.047    598.995    602.680    605.269    598.995    598.995
 23.770    645.000    609.142     35.858    598.581    602.615    605.109    598.581    598.581
 23.870    648.000    609.434     38.566    598.170    602.638    604.967    598.170    598.170
 23.970    662.000    609.863     52.137    597.761    602.780    604.846    597.761    597.761
 24.070    574.311    610.484    -36.173    597.356    603.097    604.745    597.356    597.356
 24.170    602.000    611.409     -9.409    596.953    603.696    604.668    596.953    596.953
 24.270    616.000    612.879      3.121    596.553    604.820    604.616    596.553    596.553
 24.370    646.380    615.413     30.967    596.155    606.982    604.592    596.155    596.155
 24.470    608.000    619.970    -11.970    595.761    611.143    604.597    595.761    595.761
 24.570    702.000    627.950     74.050    595.369    618.698    604.634    595.369    595.369
 24.670    642.000    640.679      1.321    594.980    630.974    604.708    594.980    594.980
 24.770    653.000    658.178     -5.178    594.593    647.987    604.819    594.593    594.593
 24.870    694.000    677.210     16.790    594.209    666.494    604.973    594.209    594.209
 24.970    707.000    689.927     17.073    593.829    678.638    605.175    593.829    593.829
 25.070    646.142    688.577    -42.435    593.450    676.655    605.428    593.450    593.450
 25.170    669.000    674.439     -5.439    593.075    661.820    605.739    593.075    593.075
 25.270    653.539    655.964     -2.425    592.702    642.584    606.115    592.702    592.702
 25.370    696.000    640.034     55.966    592.332    625.824    606.563    592.332    592.332
 25.470    626.000    629.072     -3.072    591.965    613.957    607.092    591.965    591.965
 25.570    663.000    622.685     40.315    591.600    606.578    607.714    591.600    591.600
 25.670    652.000    619.487     32.513    591.238    602.291    608.439    591.238    591.238
 25.770    583.079    618.177    -35.098    590.879    599.776    609.283    590.879    590.879
 25.870    580.346    617.917    -37.571    590.522    598.178    610.262    590.522    590.522
 25.970    667.160    618.281     48.879    590.168    597.052    611.398    590.168    590.168
 26.070    608.000    619.092    -11.092    589.817    596.195    612.715    589.817    589.817
 26.170    631.000    620.288     10.712    589.469    595.512    614.244    589.469    589.469
 26.270    654.000    621.857     32.143    589.123    594.959    616.020    589.123    589.123
 26.370    608.000    623.821    -15.821    588.780    594.509    618.090    588.780    588.780
 26.470    657.000    626.218     30.782    588.440    594.147    620.509    588.440    588.440
 26.570    693.000    629.113     63.887    588.102    593.864    623.349    588.102    588.102
 26.670    647.213    632.595     14.618    587.767    593.658    626.701    587.767    587.767
 26.770    618.000    636.776    -18.776    587.434    593.529    630.678    587.434    587.434
 26.870    632.000    641.814     -9.814    587.105    593.484    635.430    587.105    587.105
 26.970    627.000    647.920    -20.920    586.778    593.533    641.159    586.778    586.778
 27.070    650.686    655.374     -4.688    586.453    593.688    648.133    586.453    586.453
 27.170    737.000    664.575     72.425    586.131    593.974    656.725    586.131    586.131
 27.270    622.367    676.079    -53.712    585.812    594.430    667.453    585.812    585.812
 27.370    717.000    690.693     26.307    585.496    595.106    681.072    585.496    585.496
 27.470    745.000    709.653     35.347    585.182    596.084    698.738    585.182    585.182
 27.570    715.815    735.162    -19.347    584.871    597.506    722.508    584.871    584.871
 27.670    778.000    772.449      5.551    584.562    599.715    757.272    584.562    584.562
 27.770    849.980    837.122     12.859    584.256    603.719    817.617    584.256    584.256
 27.870    958.374    974.758    -16.385    583.952    612.465    946.163    583.952    583.952
 27.970   1249.000   1292.423    -43.423    583.652    632.865   1243.031    583.652    583.652
 28.070   1785.000   1965.105   -180.105    583.353    676.216   1871.888    583.353    583.353
 28.170   3017.000   3136.291   -119.291    583.058    751.797   2966.968    583.058    583.058
 28.270   4554.000   4682.913   -128.913    582.765    851.724   4413.202    582.765    582.765
 28.370   5885.000   6015.826   -130.826    582.474    938.122   5659.488    582.474    582.474
 28.470   6321.627   6327.961     -6.334    582.187    959.229   5950.523    582.187    582.187
 28.570   5603.000   5427.009    175.991    581.901    903.322   5105.469    581.901    581.901
 28.670   4148.000   4061.900     86.100    581.619    820.034   3823.476    581.619    581.619
 28.770   3045.000   3071.845    -26.845    581.338    765.302   2887.852    581.338    581.338
 28.870   2720.504   2794.432    -73.928    581.061    762.007   2613.400    581.061    581.061
 28.970   3211.000   3083.436    127.564    580.786    798.926   2865.202    580.786    580.786
 29.070   3605.000   3501.815    103.185    580.513    841.349   3240.977    580.513    580.513
 29.170   3599.000   3566.685     32.315    580.243    849.085   3297.982    580.243    580.243
 29.270   3108.000   3103.626      4.374    579.976    807.996   2875.820    579.976    579.976
 29.370   2454.125   2373.112     81.013    579.711    742.289   2210.730    579.711    579.711
 29.470   1649.000   1700.848    -51.848    579.449    681.685   1598.748    579.449    579.449
 29.570   1270.000   1233.516     36.484    579.189    639.560   1173.221    579.189    579.189
 29.670    977.963    965.817     12.146    578.932    615.475    929.311    578.932    578.932
 29.770    884.000    829.948     54.052    578.677    603.310    805.331    578.677    578.677
 29.870    782.333    761.960     20.373    578.425    597.290    743.102    578.425    578.425
 29.970    794.000    724.128     69.872    578.175    594.014    708.291    578.175    578.175
 30.070    764.000    699.634     64.366    577.927    591.979    685.583    577.927    577.927
 30.170    657.870    682.040    -24.169    577.683    590.628    669.093    577.683    577.683
 30.270    677.000    668.854      8.146    577.440    589.781    656.512    577.440    577.440
 30.370    763.000    659.022    103.978    577.200    589.437    646.782    577.200    577.200
 30.470    708.000    652.276     55.724    576.963    589.800    639.433    576.963    576.963
 30.570    690.000    649.205     40.795    576.728    591.423    634.501    576.728    576.728
 30.670    603.033    651.441    -48.409    576.495    595.357    632.565    576.495    576.495
 30.770    672.000    661.343     10.657    576.265    603.000    634.582    576.265    576.265
 30.870    670.511    680.479     -9.968    576.038    615.295    641.183    576.038    576.038
 30.970    697.000    706.917     -9.917    575.812    631.262    651.412    575.812    575.812
 31.070    752.000    732.210     19.790    575.590    646.382    661.350    575.590    575.590
 31.170    721.327    741.588    -20.261    575.369    652.696    664.191    575.369    575.369
 31.270    754.000    726.144     27.856    575.151    645.415    655.821    575.151    575.151
 31.370    730.000    695.068     34.932    574.936    629.538    640.423    574.936    574.936
 31.470    660.770    662.984     -2.214    574.723    613.007    624.671    574.723    574.723
 31.570    656.664    637.967     18.697    574.512    600.213    612.249    574.512    574.512
 31.670    683.000    621.607     61.393    574.303    592.032    603.868    574.303    574.303
 31.770    662.000    612.042     49.958    574.097    587.468    598.664    574.097    574.097
 31.870    668.000    606.629     61.371    573.894    585.101    595.416    573.894    573.894
 31.970    603.000    603.386     -0.386    573.692    583.867    593.206    573.692    573.692
 32.070    570.257    601.225    -30.968    573.493    583.187    591.528    573.493    573.493
 32.170    644.000    599.663     44.337    573.297    582.805    590.151    573.297    573.297
 32.270    591.000    598.500     -7.500    573.103    582.623    588.977    573.103    573.103
 32.370    603.767    597.655      6.112    572.911    582.604    587.960    572.911    572.911
 32.470    651.000    597.091     53.909    572.721    582.736    587.074    572.721    572.721
 32.570    554.148    596.796    -42.648    572.534    583.022    586.305    572.534    572.534
 32.670    625.530    596.775     28.755    572.349    583.476    585.645    572.349    572.349
 32.770    615.000    597.047     17.953    572.166    584.122    585.089    572.166    572.166
 32.870    570.861    597.652    -26.791    571.986    584.997    584.638    571.986    571.986
 32.970    625.000    598.651     26.349    571.808    586.155    584.301    571.808    571.808
 33.070    572.000    600.135    -28.135    571.632    587.675    584.090    571.632    571.632
 33.170    615.000    602.250     12.750    571.458    589.676    584.029    571.458    571.458
 33.270    583.000    605.237    -22.237    571.287    592.358    584.163    571.287    571.287
 33.370    644.479    609.573     34.906    571.118    596.108    584.580    571.118    571.118
 33.470    577.000    616.308    -39.308    570.951    601.775    585.479    570.951    570.951
 33.570    658.000    627.758     30.242    570.787    611.233    587.305    570.787    570.787
 33.670    633.074    648.535    -15.461    570.624    628.208    590.940    570.624    570.624
 33.770    687.777    686.216      1.561    570.464    658.823    597.838    570.464    570.464
 33.870    705.000    750.139    -45.139    570.307    710.622    609.793    570.307    570.307
 33.970    905.094    846.702     58.392    570.151    788.776    628.031    570.151    570.151
 34.070    998.000    971.095     26.905    569.997    889.402    651.629    569.997    569.997
 34.170   1088.000   1097.215     -9.215    569.846    991.417    675.572    569.846    569.846
 34.270   1213.483   1174.966     38.517    569.697   1054.357    690.241    569.697    569.697
 34.370   1169.000   1160.772      8.228    569.550   1043.015    687.263    569.550    569.550
 34.470   1119.000   1063.838     55.162    569.406    964.819    668.405    569.406    569.406
 34.570    959.520    934.058     25.462    569.263    860.069    643.246    569.263    569.263
 34.670    871.351    815.351     56.000    569.123    764.250    620.223    569.123    569.123
 34.770    693.082    727.170    -34.087    568.984    693.083    603.072    568.984    568.984
 34.870    678.000    670.433      7.567    568.848    647.310    591.971    568.848    568.848
 34.970    624.367    637.361    -12.994    568.714    620.649    585.425    568.714    568.714
 35.070    595.000    618.871    -23.871    568.582    605.763    581.689    568.582    568.582
 35.170    563.499    608.206    -44.707    568.453    597.192    579.466    568.453    568.453
 35.270    601.984    601.470      0.514    568.325    591.787    578.007    568.325    568.325
 35.370    564.000    596.760    -32.760    568.199    588.011    576.946    568.199    568.199
 35.470    593.000    593.215     -0.215    568.076    585.170    576.120    568.076    568.076
 35.570    562.290    590.434    -28.144    567.955    582.938    575.450    567.955    567.955
 35.670    625.640    588.200     37.440    567.835    581.139    574.895    567.835    567.835
 35.770    566.000    586.379    -20.379    567.718    579.665    574.431    567.718    567.718
 35.870    596.000    584.878     11.122    567.603    578.439    574.041    567.603    567.603
 35.970    610.381    583.633     26.748    567.489    577.409    573.712    567.489    567.489
 36.070    587.000    582.595      4.405    567.378    576.535    573.437    567.378    567.378
 36.170    595.000    581.731     13.269    567.269    575.787    573.212    567.269    567.269
 36.270    631.000    581.014     49.986    567.162    575.144    573.032    567.162    567.162
 36.370    597.000    580.429     16.571    567.057    574.587    572.898    567.057    567.057
 36.470    613.000    579.962     33.038    566.954    574.105    572.811    566.954    566.954
 36.570    604.000    579.608     24.392    566.853    573.688    572.772    566.853    566.853
 36.670    593.000    579.366     13.634    566.754    573.329    572.789    566.754    566.754
 36.770    584.000    579.238      4.762    566.656    573.026    572.868    566.656    566.656
 36.870    577.000    579.237     -2.237    566.561    572.776    573.022    566.561    566.561
 36.970    515.000    579.382    -64.382    566.468    572.583    573.266    566.468    566.468
 37.070    613.000    579.708     33.292    566.377    572.459    573.625    566.377    566.377
 37.170    581.000    580.285      0.715    566.287    572.434    574.138    566.287    566.287
 37.270    555.426    581.242    -25.816    566.200    572.571    574.871    566.200    566.200
 37.370    549.180    582.832    -33.652    566.114    572.986    575.959    566.114    566.114
 37.470    620.415    585.517     34.898    566.030    573.856    577.690    566.030    566.030
 37.570    542.864    590.073    -47.209    565.949    575.382    580.638    565.949    565.949
 37.670    599.000    597.657      1.343    565.869    577.693    585.831    565.869    565.869
 37.770    598.327    609.681    -11.355    565.791    580.690    594.779    565.791    565.791
 37.870    619.439    627.279     -7.840    565.715    583.839    609.149    565.715    565.715
 37.970    652.000    650.352      1.648    565.640    586.094    629.892    565.640    565.640
 38.070    663.973    676.718    -12.745    565.568    586.415    655.862    565.568    565.568
 38.170    688.000    701.432    -13.432    565.498    584.714    682.207    565.498    565.498
 38.270    725.000    716.331      8.669    565.429    581.851    699.902    565.429    565.429
 38.370    733.650    713.642     20.008    565.362    578.747    700.252    565.362    565.362
 38.470    697.000    693.645      3.355    565.297    575.963    682.979    565.297    565.297
 38.570    640.000    665.090    -25.090    565.233    573.767    656.557    565.233    565.233
 38.670    654.036    637.210     16.826    565.172    572.201    630.182    565.172    565.172
 38.770    638.000    614.955     23.045    565.112    571.157    608.912    565.112    565.112
 38.870    579.656    599.451    -19.795    565.054    570.482    594.023    565.054    565.054
 38.970    545.000    589.673    -44.673    564.998    570.044    584.627    564.998    564.998
 39.070    556.417    583.870    -27.453    564.944    569.750    579.063    564.944    564.944
 39.170    547.468    580.450    -32.982    564.891    569.541    575.800    564.891    564.891
 39.270    586.000    578.331      7.669    564.840    569.385    573.786    564.840    564.840
 39.370    558.000    576.900    -18.900    564.791    569.262    572.428    564.791    564.791
 39.470    587.000    575.851     11.149    564.743    569.165    571.429    564.743    564.743
 39.570    554.000    575.041    -21.041    564.697    569.087    570.650    564.697    564.697
 39.670    584.000    574.394      9.606    564.653    569.026    570.021    564.653    564.653
 39.770    552.000    573.869    -21.869    564.611    568.979    569.500    564.611    564.611
 39.870    550.000    573.437    -23.437    564.570    568.943    569.064    564.570    564.570
 39.970    573.000    573.081     -0.081    564.531    568.919    568.693    564.531    564.531
 40.070    607.409    572.790     34.619    564.493    568.910    568.374    564.493    564.493
 40.170    587.000    572.553     14.447    564.458    568.913    568.098    564.458    564.458
 40.270    567.000    572.360     -5.360    564.423    568.927    567.856    564.423    564.423
 40.370    633.000    572.207     60.793    564.391    568.954    567.643    564.391    564.391
 40.470    540.000    572.089    -32.089    564.360    568.994    567.455    564.360    564.360
 40.570    558.159    572.005    -13.846    564.331    569.048    567.288    564.331    564.331
 40.670    616.380    571.952     44.428    564.303    569.117    567.138    564.303    564.303
 40.770    579.475    571.930      7.545    564.277    569.203    567.004    564.277    564.277
 40.870    533.210    571.938    -38.728    564.252    569.307    566.883    564.252    564.252
 40.970    561.470    571.979    -10.509    564.229    569.433    566.775    564.229    564.229
 41.070    553.000    572.054    -19.054    564.208    569.584    566.678    564.208    564.208
 41.170    574.000    572.167      1.833    564.188    569.764    566.591    564.188    564.188
 41.270    589.000    572.323     16.677    564.169    569.979    566.513    564.169    564.169
 41.370    612.658    572.528     40.130    564.152    570.236    566.445    564.152    564.152
 41.470    590.000    572.792     17.208    564.137    570.545    566.385    564.137    564.137
 41.570    618.991    573.127     45.864    564.123    570.918    566.333    564.123    564.123
 41.670    590.980    573.552     17.428    564.111    571.373    566.291    564.111    564.111
 41.770    560.059    574.094    -14.035    564.100    571.938    566.258    564.100    564.100
 41.870    577.676    574.800      2.875    564.090    572.657    566.235    564.090    564.090
 41.970    603.000    575.760     27.240    564.082    573.617    566.227    564.082    564.082
 42.070    605.664    577.152     28.512    564.076    574.991    566.240    564.076    564.076
 42.170    555.000    579.329    -24.329    564.071    577.118    566.286    564.071    564.071
 42.270    575.530    582.923     -7.393    564.067    580.606    566.390    564.067    564.067
 42.370    563.000    588.911    -25.911    564.065    586.396    566.588    564.065    564.065
 42.470    636.015    598.519     37.496    564.064    595.666    566.928    564.064    564.064
 42.570    590.100    612.833    -22.733    564.065    609.465    567.449    564.065    564.065
 42.670    620.000    632.093    -12.093    564.067    628.022    568.163    564.067    564.067
 42.770    624.627    654.739    -30.112    564.070    649.837    569.008    564.070    564.070
 42.870    664.845    676.433    -11.588    564.075    670.734    569.820    564.075    564.075
 42.970    672.000    690.147    -18.147    564.081    683.952    570.330    564.081    564.081
 43.070    674.000    689.790    -15.790    564.088    683.627    570.308    564.088    564.088
 43.170    620.000    675.576    -55.576    564.097    669.965    569.761    564.097    564.097
 43.270    672.000    653.788     18.212    564.107    649.010    568.928    564.107    564.107
 43.370    666.000    631.339     34.661    564.118    627.418    568.072    564.118    564.118
 43.470    578.181    612.410    -34.229    564.131    609.211    567.353    564.131    564.131
 43.570    648.000    598.445     49.555    564.145    595.780    566.825    564.145    564.145
 43.670    622.131    589.142     32.989    564.160    586.835    566.477    564.160    564.160
 43.770    575.000    583.394     -8.394    564.177    581.310    566.267    564.177    564.177
 43.870    617.000    579.982     37.018    564.194    578.033    566.148    564.194    564.194
 43.970    624.921    577.947     46.974    564.213    576.080    566.084    564.213    564.213
 44.070    558.000    576.676    -18.676    564.234    574.861    566.051    564.234    564.234
 44.170    584.000    575.825      8.175    564.255    574.046    566.037    564.255    564.255
 44.270    609.000    575.222     33.778    564.278    573.468    566.034    564.278    564.278
 44.370    565.000    574.780     -9.780    564.302    573.043    566.040    564.302    564.302
 44.470    602.000    574.454     27.546    564.327    572.730    566.052    564.327    564.327
 44.570    605.000    574.216     30.784    564.353    572.500    566.070    564.353    564.353
 44.670    564.000    574.049    -10.049    564.381    572.336    566.094    564.381    564.381
 44.770    602.798    573.939     28.858    564.409    572.228    566.121    564.409    564.409
 44.870    591.000    573.879     17.121    564.439    572.164    566.154    564.439    564.439
 44.970    585.000    573.859     11.141    564.470    572.139    566.190    564.470    564.470
 45.070    560.153    573.876    -13.724    564.502    572.148    566.230    564.502    564.502
 45.170    624.153    573.926     50.227    564.535    572.187    566.274    564.535    564.535
 45.270    593.000    574.005     18.995    564.569    572.252    566.322    564.569    564.569
 45.370    536.885    574.112    -37.227    564.605    572.343    566.374    564.605    564.605
 45.470    576.145    574.245      1.899    564.641    572.457    566.429    564.641    564.641
 45.570    594.000    574.404     19.596    564.678    572.594    566.489    564.678    564.678
 45.670    570.000    574.589     -4.589    564.717    572.753    566.552    564.717    564.717
 45.770    578.000    574.799      3.201    564.757    572.935    566.620    564.757    564.757
 45.870    579.158    575.036      4.123    564.797    573.139    566.693    564.797    564.797
 45.970    574.000    575.300     -1.300    564.839    573.368    566.770    564.839    564.839
 46.070    547.573    575.594    -28.021    564.882    573.623    566.852    564.882    564.882
 46.170    630.000    575.920     54.080    564.925    573.904    566.940    564.925    564.925
 46.270    595.000    576.281     18.719    564.970    574.216    567.034    564.970    564.970
 46.370    566.103    576.682    -10.578    565.016    574.562    567.134    565.016    565.016
 46.470    562.660    577.126    -14.466    565.062    574.946    567.242    565.062    565.062
 46.570    582.616    577.621      4.994    565.110    575.373    567.357    565.110    565.110
 46.670    591.000    578.176     12.824    565.159    575.851    567.482    565.159    565.159
 46.770    574.000    578.800     -4.800    565.208    576.390    567.617    565.208    565.208
 46.870    553.000    579.510    -26.510    565.259    577.003    567.764    565.259    565.259
 46.970    608.000    580.330     27.670    565.310    577.711    567.926    565.310    565.310
 47.070    603.000    581.299     21.701    565.362    578.551    568.108    565.362    565.362
 47.170    580.000    582.493     -2.493    565.415    579.589    568.316    565.415    565.415
 47.270    555.039    584.054    -29.015    565.469    580.953    568.566    565.469    565.469
 47.370    561.520    586.238    -24.718    565.524    582.873    568.883    565.524    565.524
 47.470    550.000    589.466    -39.466    565.580    585.729    569.309    565.580    565.580
 47.570    576.000    594.342    -18.342    565.637    590.064    569.904    565.637    565.637
 47.670    597.000    601.574     -4.574    565.694    596.514    570.738    565.694    565.694
 47.770    646.570    611.757     34.813    565.753    605.616    571.870    565.753    565.753
 47.870    642.568    625.012     17.556    565.812    617.478    573.314    565.812    565.812
 47.970    604.561    640.544    -35.983    565.872    631.380    574.993    565.872    565.872
 48.070    683.702    656.180     27.522    565.932    645.363    576.697    565.932    565.932
 48.170    651.667    668.233    -16.565    565.994    656.100    578.068    565.994    565.994
 48.270    661.000    672.686    -11.686    566.056    659.967    578.716    566.056    566.056
 48.370    612.000    668.111    -56.111    566.119    655.672    578.504    566.119    566.119
 48.470    653.000    657.138     -4.138    566.183    645.581    577.695    566.183    566.183
 48.570    639.063    644.072     -5.008    566.248    633.570    576.714    566.248    566.248
 48.670    609.000    632.228    -23.228    566.313    622.623    575.893    566.313    566.313
 48.770    597.471    623.338    -25.867    566.379    614.290    575.409    566.379    566.379
 48.870    620.805    617.915      2.890    566.446    609.023    575.324    566.446    566.446
 48.970    655.000    615.732     39.268    566.513    606.605    575.630    566.513    566.513
 49.070    609.000    616.261     -7.261    566.581    606.539    576.295    566.581    566.581
 49.170    580.235    619.015    -38.780    566.650    608.356    577.302    566.650    566.650
 49.270    612.000    623.785    -11.785    566.719    611.820    578.677    566.719    566.719
 49.370    612.133    630.872    -18.739    566.789    617.106    580.548    566.789    566.789
 49.470    639.000    641.540     -2.540    566.860    625.138    583.253    566.860    566.860
 49.570    697.319    659.039     38.280    566.931    638.353    587.604    566.931    566.931
 49.670    722.434    690.487     31.947    567.003    662.119    595.348    567.003    567.003
 49.770    727.469    749.389    -21.919    567.076    706.663    609.760    567.076    567.076
 49.870    898.289    857.495     40.794    567.149    788.400    636.172    567.149    567.149
 49.970    972.000   1042.789    -70.789    567.223    928.338    681.556    567.223    567.223
 50.070   1268.000   1329.663    -61.663    567.297   1144.967    751.821    567.297    567.297
 50.170   1653.000   1722.265    -69.265    567.372   1441.439    847.977    567.372    567.372
 50.270   2101.097   2185.340    -84.243    567.448   1791.157    961.389    567.448    567.448
 50.370   2518.000   2633.169   -115.169    567.524   2129.428   1071.055    567.524    567.524
 50.470   3013.539   2940.509     73.030    567.600   2361.713   1146.278    567.600    567.600
 50.570   2913.000   2994.140    -81.140    567.677   2402.536   1159.291    567.677    567.677
 50.670   2672.000   2771.166    -99.166    567.755   2234.609   1104.428    567.755    567.755
 50.770   2413.346   2360.255     53.091    567.833   1924.918   1003.338    567.833    567.833
 50.870   1850.000   1892.789    -42.789    567.911   1572.752    888.118    567.911    567.911
 50.970   1522.519   1472.846     49.673    567.990   1256.811    784.167    567.990    567.990
 51.070   1165.000   1153.806     11.194    568.070   1017.497    704.483    568.070    568.070
 51.170    946.000    943.645      2.355    568.150    860.848    651.018    568.150    568.150
 51.270    885.000    822.240     62.760    568.230    771.534    618.986    568.230    568.230
 51.370    807.000    759.951     47.049    568.311    726.812    601.488    568.311    568.311
 51.470    676.717    729.994    -53.277    568.392    705.833    592.587    568.392    568.392
 51.570    762.855    713.451     49.404    568.474    693.560    588.396    568.474    568.474
 51.670    779.000    700.147     78.853    568.556    681.873    586.857    568.556    568.556
 51.770    645.360    687.175    -41.815    568.638    668.790    587.044    568.638    568.638
 51.870    711.000    675.284     35.716    568.721    655.499    588.520    568.721    568.721
 51.970    692.000    665.684     26.316    568.804    643.598    590.897    568.804    568.804
 52.070    705.000    658.778     46.222    568.887    634.076    593.591    568.887    568.887
 52.170    606.237    654.033    -47.796    568.971    627.254    595.747    568.971    568.971
 52.270    681.524    650.343     31.181    569.055    622.980    596.413    569.055    569.055
 52.370    599.202    646.807    -47.605    569.140    620.862    595.078    569.140    569.140
 52.470    642.000    643.353     -1.353    569.225    620.493    592.080    569.225    569.225
 52.570    667.000    640.584     26.416    569.310    621.606    588.284    569.310    569.310
 52.670    680.130    639.311     40.820    569.395    624.181    584.522    569.395    569.395
 52.770    668.000    640.411     27.589    569.481    628.550    581.338    569.481    569.481
 52.870    694.000    644.975     49.025    569.567    635.563    578.977    569.567    569.567
 52.970    681.626    654.626     27.000    569.653    646.818    577.458    569.653    569.653
 53.070    680.578    671.868      8.710    569.739    664.914    576.688    569.739    569.739
 53.170    722.000    700.260     21.740    569.826    693.524    576.555    569.826    569.826
 53.270    789.000    744.090     44.910    569.913    737.033    576.959    569.913    569.913
 53.370    777.000    807.374    -30.374    570.000    799.500    577.860    570.000    570.000
 53.470    938.000    892.164     45.836    570.087    882.901    579.332    570.087    570.087
 53.570    979.000    995.956    -16.956    570.174    984.874    581.235    570.174    570.174
 53.670   1107.606   1109.480     -1.874    570.262   1096.359    583.361    570.262    570.262
 53.770   1234.003   1214.695     19.308    570.350   1199.676    585.350    570.350    570.350
 53.870   1310.813   1286.024     24.789    570.438   1269.753    586.698    570.438    570.438
 53.970   1217.000   1300.055    -83.055    570.526   1283.638    586.943    570.526    570.526
 54.070   1286.769   1251.424     35.345    570.614   1236.068    585.979    570.614    570.614
 54.170   1151.000   1157.601     -6.601    570.702   1144.172    584.145    570.702    570.702
 54.270   1023.355   1045.410    -22.054    570.791   1034.252    581.962    570.791    570.791
 54.370    896.000    936.732    -40.732    570.879    927.768    579.856    570.879    570.879
 54.470    838.638    844.294     -5.656    570.968    837.197    578.075    570.968    570.968
 54.570    806.562    773.007     33.556    571.057    767.359    576.712    571.057    571.057
 54.670    767.952    722.376     45.576    571.145    717.769    575.757    571.145    571.145
 54.770    713.777    688.875     24.903    571.234    684.970    575.142    571.234    571.234
 54.870    683.000    667.980     15.020    571.323    664.528    574.776    571.323    571.323
 54.970    682.748    655.556     27.191    571.412    652.389    574.580    571.412    571.412
 55.070    589.000    648.488    -59.488    571.501    645.497    574.492    571.501    571.501
 55.170    647.000    644.741      2.259    571.590    641.860    574.471    571.590    571.590
 55.270    633.043    643.135    -10.092    571.679    640.320    574.494    571.679    571.679
 55.370    697.666    643.056     54.610    571.768    640.274    574.549    571.768    571.768
 55.470    687.000    644.224     42.776    571.857    641.450    574.629    571.857    571.857
 55.570    648.000    646.553      1.447    571.946    643.765    574.733    571.946    571.946
 55.670    669.000    650.090     18.910    572.035    647.263    574.860    572.035    572.035
 55.770    689.000    655.007     33.993    572.124    652.115    575.013    572.124    572.124
 55.870    641.483    661.674    -20.191    572.212    658.686    575.197    572.212    572.212
 55.970    722.273    670.822     51.451    572.301    667.696    575.424    572.301    572.301
 56.070    666.530    683.879    -17.348    572.390    680.550    575.714    572.390    572.390
 56.170    653.210    703.514    -50.304    572.478    699.878    576.108    572.478    572.478
 56.270    734.000    734.389     -0.389    572.567    730.267    576.678    572.567    572.567
 56.370    776.000    783.916     -7.916    572.655    779.018    577.537    572.655    572.655
 56.470    844.600    862.542    -17.943    572.743    856.415    578.843    572.743    572.743
 56.570    927.377    982.850    -55.473    572.831    974.850    580.790    572.831    572.831
 56.670   1225.280   1156.810     68.469    572.919   1146.112    583.559    572.919    572.919
 56.770   1402.000   1391.084     10.916    573.007   1376.760    587.254    573.007    573.007
 56.870   1596.946   1681.174    -84.228    573.095   1662.372    591.805    573.095    573.095
 56.970   2109.000   2005.760    103.240    573.182   1981.956    596.890    573.182    573.182
 57.070   2242.727   2322.457    -79.730    573.269   2293.779    601.865    573.269    573.269
 57.170   2570.000   2568.327      1.673    573.356   2535.868    605.771    573.356    573.356
 57.270   2756.000   2675.717     80.283    573.443   2641.596    607.581    573.443    573.443
 57.370   2663.778   2609.276     54.502    573.530   2576.134    606.758    573.530    573.530
 57.470   2460.000   2392.532     67.468    573.616   2362.623    603.665    573.616    573.616
 57.570   2082.065   2089.053     -6.988    573.702   2063.645    599.273    573.702    573.702
 57.670   1740.000   1764.601    -24.601    573.788   1743.954    594.595    573.788    573.788
 57.770   1511.495   1466.700     44.795    573.874   1450.341    590.372    573.874    573.874
 57.870   1155.000   1221.545    -66.545    573.959   1208.573    587.041    573.959    573.959
 57.970    967.000   1037.507    -70.507    574.045   1026.828    584.804    574.045    574.045
 58.070    902.000    910.737     -8.737    574.129    901.167    583.753    574.129    574.129
 58.170    838.988    831.261      7.728    574.214    821.513    583.992    574.214    574.214
 58.270    779.000    788.246     -9.246    574.298    776.801    585.757    574.298    574.298
 58.370    748.847    773.302    -24.455    574.382    758.233    589.450    574.382    574.382
 58.470    809.000    781.563     27.437    574.466    760.445    595.570    574.466    574.466
 58.570    778.145    811.025    -32.879    574.549    781.053    604.494    574.549    574.549
 58.670    855.000    860.851     -5.851    574.632    819.270    616.174    574.632    574.632
 58.770    975.652    929.388     46.264    574.715    874.221    629.832    574.715    574.715
 58.870    936.000   1012.409    -76.409    574.797    943.373    643.776    574.797    574.797
 58.970   1046.000   1102.077    -56.077    574.879   1021.417    655.483    574.879    574.879
 59.070   1127.883   1187.664    -59.781    574.960   1100.402    662.175    574.960    574.960
 59.170   1221.000   1258.891    -37.891    575.041   1171.849    662.053    575.041    575.041
 59.270   1306.000   1309.306     -3.306    575.122   1229.025    655.392    575.122    575.122
 59.370   1325.000   1335.632    -10.632    575.202   1266.566    644.277    575.202    575.202
 59.470   1319.000   1335.818    -16.818    575.282   1279.775    631.350    575.282    575.282
 59.570   1383.000   1311.322     71.678    575.361   1267.889    618.829    575.361    575.361
 59.670   1244.000   1270.857    -26.857    575.440   1238.179    608.149    575.440    575.440
 59.770   1298.000   1228.579     69.421    575.518   1204.174    599.935    575.518    575.518
 59.870   1164.669   1198.191    -33.522    575.596   1179.628    594.139    575.596    575.596
 59.970   1186.000   1189.066     -3.066    575.674   1174.377    590.300    575.674    575.674
 60.070   1153.241   1206.138    -52.897    575.751   1193.949    587.830    575.751    575.751
 60.170   1291.000   1251.254     39.746    575.827   1240.695    586.224    575.827    575.827
 60.270   1325.318   1322.637      2.680    575.903   1313.173    585.153    575.903    575.903
 60.370   1449.000   1412.004     36.996    575.979   1403.289    584.434    575.979    575.979
 60.470   1502.000   1502.287     -0.287    576.054   1494.080    583.969    576.054    576.054
 60.570   1510.108   1568.701    -58.594    576.129   1560.825    583.704    576.129    576.129
 60.670   1581.000   1585.675     -4.675    576.202   1577.992    583.605    576.202    576.202
 60.770   1599.000   1539.896     59.104    576.276   1532.284    583.652    576.276    576.276
 60.870   1444.191   1438.972      5.219    576.349   1431.306    583.836    576.349    576.349
 60.970   1340.000   1305.319     34.681    576.421   1297.455    584.160    576.421    576.421
 61.070   1221.000   1163.549     57.451    576.493   1155.316    584.643    576.493    576.493
 61.170   1011.000   1032.873    -21.873    576.564   1024.057    585.328    576.564    576.564
 61.270    914.129    925.149    -11.020    576.634    915.447    586.303    576.634    576.634
 61.370    908.000    845.579     62.421    576.704    834.522    587.736    576.704    576.704
 61.470    820.951    794.660     26.291    576.773    781.491    589.917    576.773    576.773
 61.570    817.000    770.684     46.316    576.842    754.179    593.315    576.842    576.842
 61.670    780.000    772.044      7.956    576.910    750.301    598.609    576.910    576.910
 61.770    798.000    798.621     -0.621    576.977    768.861    606.675    576.977    576.977
 61.870    866.000    851.886     14.114    577.044    810.370    618.474    577.044    577.044
 61.970    940.546    933.726      6.820    577.110    875.902    634.817    577.110    577.110
 62.070   1036.000   1044.360     -8.360    577.176    965.351    656.030    577.176    577.176
 62.170   1209.110   1179.925     29.186    577.240   1075.400    681.571    577.240    577.240
 62.270   1347.000   1330.377     16.623    577.305   1197.759    709.693    577.305    577.305
 62.370   1468.000   1478.226    -10.226    577.368   1318.087    737.253    577.368    577.368
 62.470   1675.475   1599.061     76.414    577.431   1416.411    759.822    577.431    577.431
 62.570   1689.149   1666.366     22.783    577.492   1471.043    772.576    577.492    577.492
 62.670   1580.000   1662.202    -82.202    577.554   1467.304    772.251    577.554    577.554
 62.770   1550.000   1587.517    -37.517    577.614   1405.950    759.029    577.614    577.614
 62.870   1476.000   1461.467     14.533    577.674   1302.624    736.411    577.674    577.674
 62.970   1237.793   1310.596    -72.802    577.733   1179.014    709.247    577.733    577.733
 63.070   1169.000   1158.636     10.364    577.791   1054.510    681.875    577.791    577.791
 63.170   1080.699   1022.149     58.550    577.849    942.648    657.325    577.849    577.849
 63.270    858.155    910.093    -51.938    577.905    850.746    637.238    577.905    577.905
 63.370    836.753    824.982     11.771    577.961    780.855    622.078    577.961    577.961
 63.470    777.000    764.817     12.183    578.016    731.337    611.486    578.016    578.016
 63.570    769.000    725.149     43.851    578.071    698.553    604.656    578.071    578.071
 63.670    748.000    700.950     47.050    578.124    678.386    600.676    578.124    578.124
 63.770    735.224    687.913     47.311    578.177    667.304    598.771    578.177    578.177
 63.870    710.000    683.108     26.892    578.229    662.887    598.431    578.229    578.229
 63.970    638.221    685.167    -46.946    578.280    663.955    599.470    578.280    578.280
 64.070    686.000    694.206     -8.206    578.330    670.467    602.041    578.330    578.330
 64.170    744.452    711.595     32.857    578.380    683.287    606.650    578.380    578.380
 64.270    686.000    739.632    -53.632    578.428    703.860    614.151    578.428    578.428
 64.370    844.000    781.039     62.961    578.476    733.761    625.688    578.476    578.476
 64.470    870.000    838.233     31.767    578.523    774.128    642.539    578.523    578.523
 64.570    935.291    912.379     22.912    578.569    824.998    665.835    578.569    578.569
 64.670    946.884   1002.302    -55.418    578.614    884.632    696.141    578.614    578.614
 64.770   1131.343   1103.417     27.925    578.658    948.913    732.991    578.658    578.658
 64.870   1276.000   1206.929     69.071    578.701   1010.985    774.450    578.701    578.701
 64.970   1234.704   1299.948    -65.244    578.743   1061.662    816.821    578.743    578.743
 65.070   1406.000   1367.622     38.378    578.785   1091.600    854.596    578.785    578.785
 65.170   1361.717   1397.530    -35.813    578.825   1095.120    881.038    578.825    578.825
 65.270   1394.000   1384.214      9.786    578.865   1072.859    890.049    578.865    578.865
 65.370   1337.000   1331.366      5.634    578.903   1030.966    879.169    578.903    578.903
 65.470   1316.000   1250.532     65.468    578.941    978.193    851.184    578.941    578.941
 65.570   1099.000   1156.458    -57.458    578.978    922.971    812.405    578.978    578.978
 65.670   1100.000   1062.105     37.895    579.014    871.487    769.601    579.014    579.014
 65.770    967.000    976.143     -9.143    579.048    827.023    728.159    579.048    579.048
 65.870    920.247    902.784     17.464    579.082    790.269    691.604    579.082    579.082
 65.970    827.000    842.844    -15.844    579.115    760.272    661.702    579.115    579.115
 66.070    780.000    795.282    -15.282    579.147    735.656    638.789    579.147    579.147
 66.170    716.000    758.437    -42.437    579.177    715.423    622.207    579.177    579.177
 66.270    716.000    730.569    -14.569    579.207    699.020    610.768    579.207    579.207
 66.370    671.000    709.994    -38.994    579.236    686.083    603.155    579.236    579.236
 66.470    690.820    695.213     -4.393    579.264    676.294    598.186    579.264    579.264
 66.570    647.000    685.016    -38.016    579.291    669.368    594.938    579.291    579.291
 66.670    707.146    678.514     28.632    579.316    665.063    592.766    579.316    579.316
 66.770    634.883    675.103    -40.220    579.341    663.188    591.253    579.341    579.341
 66.870    725.421    674.427     50.994    579.364    663.635    590.153    579.364    579.364
 66.970    702.252    676.396     25.856    579.387    666.451    589.328    579.387    579.387
 67.070    675.000    681.272     -6.272    579.408    671.969    588.707    579.408    579.408
 67.170    665.000    689.838    -24.838    579.429    680.997    588.265    579.429    579.429
 67.270    707.000    703.622      3.378    579.448    695.061    588.004    579.448    579.448
 67.370    730.000    725.172      4.828    579.466    716.674    587.957    579.466    579.466
 67.470    767.000    758.296      8.704    579.484    749.584    588.185    579.484    579.484
 67.570    757.000    808.141    -51.141    579.500    798.850    588.776    579.500    579.500
 67.670    853.000    880.940    -27.940    579.515    870.594    589.840    579.515    579.515
 67.770   1031.742    983.240     48.502    579.528    971.247    591.495    579.528    579.528
 67.870   1157.000   1120.545     36.455    579.541   1106.214    593.839    579.541    579.541
 67.970   1249.000   1295.441    -46.441    579.553   1278.040    596.917    579.553    579.553
 68.070   1473.000   1505.521    -32.521    579.563   1484.369    600.680    579.563    579.563
 68.170   1665.000   1741.466    -76.466    579.572   1716.062    604.950    579.572    579.572
 68.270   2043.000   1985.591     57.409    579.581   1955.773    609.392    579.581    579.581
 68.370   2183.824   2211.310    -27.486    579.588   2177.422    613.502    579.588    579.588
 68.470   2464.830   2385.047     79.782    579.594   2348.067    616.646    579.594    579.594
 68.570   2495.000   2473.595     21.405    579.598   2435.123    618.197    579.598    579.598
 68.670   2403.348   2457.162    -53.814    579.602   2419.163    617.781    579.602    579.602
 68.770   2337.322   2339.719     -2.397    579.604   2304.070    615.470    579.604    579.604
 68.870   2184.000   2146.628     37.372    579.605   2114.724    611.741    579.605    579.605
 68.970   1889.000   1912.222    -23.222    579.605   1884.813    607.242    579.605    579.605
 69.070   1697.000   1668.299     28.701    579.604   1645.540    602.569    579.604    579.604
 69.170   1452.328   1438.760     13.568    579.602   1420.364    598.173    579.602    579.602
 69.270   1168.000   1238.650    -70.650    579.598   1224.054    594.337    579.598    579.598
 69.370   1127.000   1075.024     51.976    579.593   1063.534    591.193    579.593    579.593
 69.470    985.000    948.563     36.437    579.587    939.477    588.755    579.587    579.587
 69.570    903.652    855.584     48.068    579.580    848.271    586.950    579.580    579.580
 69.670    775.043    790.085    -15.041    579.572    784.030    585.665    579.572    579.572
 69.770    827.000    745.486     81.514    579.562    740.297    584.778    579.562    579.562
 69.870    728.949    715.802     13.147    579.551    711.193    584.177    579.551    579.551
 69.970    711.000    696.220     14.780    579.539    691.998    583.771    579.539    579.539
 70.070    738.000    683.236     54.764    579.525    679.275    583.493    579.525    579.525
 70.170    726.000    674.497     51.503    579.511    670.714    583.298    579.511    579.511
 70.270    755.000    668.523     86.477    579.495    664.862    583.158    579.495    579.495
 70.370    634.781    664.440    -29.659    579.478    660.860    583.057    579.478    579.478
 70.470    677.000    661.761     15.239    579.459    658.232    582.986    579.459    579.459
 70.570    711.000    660.240     50.760    579.439    656.734    582.942    579.439    579.439
 70.670    706.887    659.790     47.097    579.418    656.282    582.922    579.418    579.418
 70.770    656.772    660.455     -3.684    579.396    656.917    582.929    579.396    579.396
 70.870    654.000    662.423     -8.423    579.373    658.820    582.967    579.373    579.373
 70.970    712.253    666.080     46.173    579.348    662.369    583.049    579.348    579.348
 71.070    653.000    672.109    -19.109    579.322    668.228    583.190    579.322    579.322
 71.170    686.000    681.618      4.382    579.294    677.475    583.420    579.294    579.294
 71.270    656.000    696.288    -40.288    579.265    691.747    583.783    579.265    579.265
 71.370    724.000    718.497      5.503    579.235    713.361    584.339    579.235    579.235
 71.470    785.000    751.358     33.642    579.204    745.350    585.168    579.204    579.204
 71.570    845.392    798.585     46.808    579.171    791.329    586.366    579.171    579.171
 71.670    815.000    864.101    -49.101    579.137    855.121    588.034    579.137    579.137
 71.770    910.402    951.361    -40.959    579.102    940.090    590.261    579.102    579.102
 71.870   1128.610   1062.406     66.204    579.065   1048.225    593.100    579.065    579.065
 71.970   1236.000   1196.791     39.209    579.027   1179.094    596.540    579.027    579.027
 72.070   1393.056   1350.554     42.502    578.988   1328.835    600.482    578.988    578.988
 72.170   1517.000   1515.369      1.631    578.947   1489.339    604.715    578.947    578.947
 72.270   1724.000   1678.007     45.993    578.905   1647.717    608.901    578.905    578.905
 72.370   1806.000   1820.444    -14.444    578.861   1786.410    612.583    578.861    578.861
 72.470   1942.000   1921.748     20.252    578.817   1885.026    615.228    578.817    578.817
 72.570   1958.837   1963.317     -4.480    578.770   1925.435    616.362    578.770    578.770
 72.670   1901.000   1936.473    -35.473    578.723   1899.179    615.766    578.723    578.723
 72.770   1769.000   1846.905    -77.905    578.674   1811.790    613.585    578.674    578.674
 72.870   1668.911   1711.605    -42.694    578.624   1679.819    610.254    578.624    578.624
 72.970   1509.000   1551.455    -42.455    578.572   1523.612    606.302    578.572    578.572
 73.070   1322.000   1385.324    -63.324    578.519   1361.560    602.205    578.519    578.519
 73.170   1168.000   1227.542    -59.542    578.465   1207.640    598.315    578.465    578.465
 73.270   1100.521   1087.489     13.031    578.409   1071.009    594.856    578.409    578.409
 73.370    937.000    970.030    -33.030    578.352    956.424    591.938    578.352    578.352
 73.470    876.000    876.311     -0.311    578.293    865.011    589.580    578.293    578.293
 73.570    756.424    804.775    -48.352    578.233    795.253    587.746    578.233    578.233
 73.670    724.065    752.249    -28.184    578.172    744.040    586.373    578.172    578.172
 73.770    665.000    714.915    -49.915    578.109    707.628    585.389    578.109    578.109
 73.870    673.271    689.047    -15.776    578.045    682.355    584.730    578.045    578.045
 73.970    680.000    671.458      8.542    577.979    665.087    584.345    577.979    577.979
 74.070    610.185    659.686    -49.501    577.912    653.391    584.203    577.912    577.912
 74.170    636.000    651.983    -15.983    577.844    645.535    584.290    577.844    577.844
 74.270    643.000    647.196     -4.196    577.774    640.366    584.604    577.774    577.774
 74.370    646.000    644.603      1.397    577.703    637.158    585.151    577.703    577.703
 74.470    677.852    643.753     34.098    577.630    635.459    585.932    577.630    577.630
 74.570    625.000    644.333    -19.333    577.556    634.964    586.936    577.556    577.556
 74.670    653.000    646.061      6.939    577.481    635.423    588.135    577.481    577.481
 74.770    654.000    648.622      5.378    577.404    636.576    589.472    577.404    577.404
 74.870    622.000    651.617    -29.617    577.325    638.109    590.861    577.325    577.325
 74.970    707.000    654.547     52.453    577.246    639.643    592.183    577.246    577.246
 75.070    642.558    656.838    -14.279    577.164    640.741    593.298    577.164    577.164
 75.170    624.012    657.937    -33.924    577.082    640.986    594.073    577.082    577.082
 75.270    617.279    657.496    -40.217    576.998    640.109    594.427    576.998    576.998
 75.370    682.000    655.538     26.462    576.912    638.107    594.383    576.912    576.912
 75.470    671.000    652.481     18.519    576.825    635.268    594.075    576.825    576.825
 75.570    707.000    649.014     57.986    576.737    632.064    593.718    576.737    576.737
 75.670    699.000    645.936     53.064    576.647    629.036    593.571    576.647    576.647
 75.770    595.741    644.070    -48.329    576.555    626.726    593.916    576.555    576.555
 75.870    695.000    644.241     50.759    576.463    625.654    595.058    576.463    576.463
 75.970    700.915    647.285     53.630    576.368    626.325    597.329    576.368    576.368
 76.070    626.000    654.036    -28.036    576.273    629.225    601.075    576.273    576.273
 76.170    633.000    665.281    -32.281    576.176    634.798    606.641    576.176    576.176
 76.270    708.000    681.678     26.322    576.077    643.404    614.322    576.077    576.077
 76.370    685.000    703.622    -18.622    575.977    655.250    624.308    575.977    575.977
 76.470    699.607    731.094    -31.487    575.875    670.305    636.610    575.875    575.875
 76.570    728.867    763.492    -34.625    575.773    688.211    650.985    575.773    575.773
 76.670    807.000    799.492      7.508    575.668    708.203    666.874    575.668    575.668
 76.770    810.373    836.933    -26.560    575.562    729.048    683.351    575.562    575.562
 76.870    864.000    872.762     -8.762    575.455    749.011    699.099    575.455    575.455
 76.970    960.000    903.136     56.864    575.346    765.914    712.452    575.346    575.346
 77.070    916.000    923.864     -7.864    575.236    777.387    721.595    575.236    575.236
 77.170    921.250    931.448    -10.198    575.124    781.450    725.007    575.124    575.124
 77.270    905.000    924.410    -19.410    575.011    777.265    722.050    575.011    575.011
 77.370    915.000    903.972     11.028    574.896    765.519    713.257    574.896    574.896
 77.470    807.000    873.473    -66.473    574.780    748.097    700.079    574.780    574.780
 77.570    832.521    837.055     -4.534    574.662    727.336    684.319    574.662    574.662
 77.670    746.058    798.583    -52.525    574.543    705.418    667.658    574.543    574.543
 77.770    766.000    761.136      4.864    574.423    684.083    651.437    574.423    574.423
 77.870    755.000    726.888     28.112    574.301    664.557    636.603    574.301    574.301
 77.970    704.000    697.152      6.848    574.177    647.583    623.726    574.177    574.177
 78.070    709.285    672.491     36.795    574.052    633.475    613.052    574.052    574.052
 78.170    700.476    652.865     47.611    573.926    622.213    604.566    573.926    573.926
 78.270    622.000    637.819    -15.819    573.798    613.538    598.070    573.798    573.798
 78.370    581.268    626.655    -45.387    573.669    607.056    593.261    573.669    573.669
 78.470    641.000    618.596     22.404    573.538    602.326    589.802    573.538    573.538
 78.570    574.000    612.901    -38.901    573.406    598.930    587.372    573.406    573.406
 78.670    614.000    608.932      5.068    573.272    596.506    585.694    573.272    573.272
 78.770    627.698    606.187     21.511    573.137    594.769    584.551    573.137    573.137
 78.870    572.000    604.296    -32.296    573.000    593.509    583.782    573.000    573.000
 78.970    672.000    603.002     68.998    572.862    592.582    583.278    572.862    572.862
 79.070    615.000    602.143     12.857    572.722    591.893    582.968    572.722    572.722
 79.170    583.000    601.619    -18.619    572.581    591.385    582.812    572.581    572.581
 79.270    573.000    601.385    -28.385    572.439    591.031    582.788    572.439    572.439
 79.370    592.000    601.427     -9.427    572.295    590.821    582.897    572.295    572.295
 79.470    581.000    601.765    -20.765    572.149    590.760    583.150    572.149    572.149
 79.570    583.743    602.446    -18.703    572.003    590.866    583.579    572.003    572.003
 79.670    633.000    603.553     29.447    571.854    591.167    584.235    571.854    571.854
 79.770    606.000    605.212      0.788    571.704    591.703    585.207    571.704    571.704
 79.870    619.056    607.609     11.447    571.553    592.525    586.631    571.553    571.553
 79.970    650.116    611.017     39.099    571.400    593.699    588.710    571.400    571.400
 80.070    665.543    615.823     49.720    571.246    595.311    591.748    571.246    571.246
 80.170    633.000    622.562     10.438    571.091    597.472    596.168    571.091    571.091
 80.270    660.086    631.938     28.148    570.934    600.324    602.531    570.934    570.934
 80.370    709.000    644.836     64.164    570.775    604.046    611.544    570.775    570.775
 80.470    659.000    662.286     -3.286    570.615    608.849    624.025    570.615    570.615
 80.570    699.000    685.391     13.609    570.454    614.972    640.840    570.454    570.454
 80.670    674.273    715.199    -40.927    570.291    622.667    662.784    570.291    570.291
 80.770    788.807    752.543     36.264    570.127    632.189    690.434    570.127    570.127
 80.870    851.999    797.839     54.160    569.961    643.776    723.971    569.961    569.961
 80.970    846.000    850.861     -4.861    569.794    657.602    762.996    569.794    569.794
 81.070    886.000    910.502    -24.502    569.626    673.701    806.365    569.626    569.626
 81.170   1027.000    974.580     52.420    569.456    691.884    852.090    569.456    569.456
 81.270   1074.000   1039.764     34.236    569.284    711.665    897.323    569.284    569.284
 81.370   1132.952   1101.688     31.265    569.111    732.239    938.507    569.111    569.111
 81.470   1137.031   1155.444    -18.413    568.937    752.561    971.777    568.937    568.937
 81.570   1217.000   1196.452     20.548    568.762    771.518    993.666    568.762    568.762
 81.670   1257.000   1221.281     35.719    568.585    787.988   1001.863    568.585    568.585
 81.770   1229.666   1228.408      1.258    568.406    801.090    995.726    568.406    568.406
 81.870   1310.000   1218.201     91.799    568.226    810.226    976.218    568.226    568.226
 81.970   1210.000   1192.583     17.417    568.045    815.108    945.551    568.045    568.045
 82.070   1085.616   1154.632    -69.016    567.862    815.744    906.794    567.862    567.862
 82.170   1121.000   1108.045     12.955    567.678    812.341    863.436    567.678    567.678
 82.270   1079.000   1056.508     22.492    567.493    805.182    818.880    567.493    567.493
 82.370   1043.000   1003.231     39.769    567.306    794.606    775.996    567.306    567.306
 82.470    964.741    950.805     13.936    567.118    781.115    736.875    567.118    567.118
 82.570    923.000    901.219     21.781    566.928    765.441    702.772    566.928    566.928
 82.670    841.000    855.845    -14.845    566.737    748.454    674.193    566.737    566.737
 82.770    827.000    815.395     11.605    566.545    730.956    651.045    566.545    566.545
 82.870    718.000    779.976    -61.976    566.351    713.558    632.825    566.351    566.351
 82.970    765.401    749.298     16.103    566.156    696.698    618.807    566.156    566.156
 83.070    773.867    722.929     50.938    565.960    680.732    608.202    565.960    565.960
 83.170    689.457    700.486    -11.028    565.762    666.008    600.278    565.762    565.762
 83.270    640.000    681.692    -41.692    565.563    652.867    594.419    565.563    565.563
 83.370    659.000    666.361     -7.361    565.362    641.605    590.142    565.362    565.362
 83.470    600.000    654.353    -54.353    565.161    632.438    587.092    565.161    565.161
 83.570    662.340    645.542     16.798    564.957    625.487    585.020    564.957    564.957
 83.670    634.000    639.783     -5.783    564.753    620.779    583.757    564.753    564.753
 83.770    601.000    636.891    -35.891    564.547    618.247    583.183    564.547    564.547
 83.870    620.162    636.606    -16.443    564.340    617.729    583.199    564.340    564.340
 83.970    605.000    638.573    -33.573    564.131    618.968    583.711    564.131    564.131
 84.070    608.000    642.329    -34.329    563.922    621.610    584.607    563.922    563.922
 84.170    609.000    647.296    -38.296    563.711    625.212    585.754    563.711    563.711
 84.270    597.000    652.791    -55.791    563.498    629.251    586.992    563.498    563.498
 84.370    656.000    658.043     -2.043    563.285    633.139    588.137    563.285    563.285
 84.470    620.303    662.245    -41.942    563.070    636.266    588.994    563.070    563.070
 84.570    626.000    664.648    -38.648    562.853    638.064    589.381    562.853    562.853
 84.670    698.348    664.704     33.643    562.636    638.122    589.164    562.636    562.636
 84.770    626.000    662.209    -36.209    562.417    636.278    588.296    562.417    562.417
 84.870    680.142    657.348     22.794    562.197    632.667    586.830    562.197    562.197
 84.970    636.000    650.625    -14.625    561.976    627.656    584.902    561.976    561.976
 85.070    609.384    642.689    -33.305    561.753    621.719    582.685    561.753    561.753
 85.170    650.505    634.204     16.302    561.529    615.339    580.362    561.529    561.529
 85.270    582.000    625.763    -43.763    561.304    608.941    578.098    561.304    561.304
 85.370    587.000    617.851    -30.851    561.078    602.867    576.039    561.078    561.078
 85.470    596.053    610.832    -14.778    560.850    597.360    574.302    560.850    560.850
 85.570    577.000    604.953    -27.953    560.621    592.574    572.983    560.621    560.621
 85.670    591.647    600.355     -8.708    560.391    588.575    572.156    560.391    560.391
 85.770    632.000    597.094     34.906    560.160    585.363    571.877    560.160    560.160
 85.870    554.000    595.158    -41.158    559.928    582.888    572.184    559.928    559.928
 85.970    613.181    594.492     18.689    559.694    581.072    573.100    559.694    559.694
 86.070    610.000    595.014     14.986    559.459    579.830    574.627    559.459    559.459
 86.170    596.000    596.624     -0.624    559.223    579.084    576.746    559.223    559.223
 86.270    602.000    599.212      2.788    558.986    578.775    579.403    558.986    558.986
 86.370    589.034    602.656    -13.621    558.748    578.872    582.508    558.748    558.748
 86.470    624.000    606.821     17.179    558.509    579.377    585.925    558.509    558.509
 86.570    623.000    611.561     11.439    558.268    580.325    589.472    558.268    558.268
 86.670    620.000    616.713      3.287    558.026    581.785    592.919    558.026    558.026
 86.770    633.159    622.103     11.056    557.783    583.855    595.991    557.783    557.783
 86.870    618.566    627.560     -8.993    557.539    586.656    598.398    557.539    557.539
 86.970    660.000    632.942     27.058    557.294    590.323    599.863    557.294    557.294
 87.070    633.000    638.185     -5.185    557.048    594.986    600.190    557.048    557.048
 87.170    630.000    643.337    -13.337    556.801    600.758    599.316    556.801    556.801
 87.270    652.000    648.551      3.449    556.552    607.706    597.326    556.552    556.552
 87.370    629.800    654.031    -24.230    556.303    615.827    594.426    556.303    556.303
 87.470    661.175    659.940      1.236    556.052    625.025    590.877    556.052    556.052
 87.570    674.000    666.330      7.670    555.800    635.086    586.945    555.800    555.800
 87.670    676.000    673.094      2.906    555.547    645.663    582.868    555.547    555.547
 87.770    649.940    679.942    -30.003    555.294    656.268    578.847    555.294    555.294
 87.870    661.000    686.403    -25.403    555.039    666.276    575.036    555.039    555.039
 87.970    679.000    691.856    -12.856    554.783    674.953    571.550    554.783    554.783
 88.070    654.833    695.615    -40.782    554.526    681.548    568.455    554.526    554.526
 88.170    698.000    697.079      0.921    554.268    685.431    565.779    554.268    554.268
 88.270    741.945    695.903     46.042    554.009    686.264    563.516    554.009    554.009
 88.370    672.000    692.117    -20.117    553.749    684.106    561.638    553.749    553.749
 88.470    690.872    686.110      4.762    553.488    679.388    560.101    553.488    553.488
 88.570    651.000    678.515    -27.515    553.226    672.788    558.858    553.226    553.226
 88.670    643.010    670.064    -27.053    552.964    665.088    557.859    552.964    552.964
 88.770    701.000    661.493     39.507    552.700    657.066    557.062    552.700    552.700
 88.870    634.000    653.483    -19.483    552.435    649.440    556.429    552.435    552.435
 88.970    623.000    646.616    -23.616    552.169    642.820    555.929    552.169    552.169
 89.070    655.796    641.340     14.455    551.903    637.681    555.539    551.903    551.903
 89.170    654.192    637.949     16.243    551.635    634.334    555.239    551.635    551.635
 89.270    657.000    636.554     20.446    551.367    632.909    555.012    551.367    551.367
 89.370    631.857    637.096     -5.239    551.097    633.360    554.843    551.097    551.097
 89.470    661.000    639.345     21.655    550.827    635.473    554.718    550.827    550.827
 89.570    636.647    642.923     -6.276    550.556    638.886    554.620    550.556    550.556
 89.670    633.000    647.322    -14.322    550.284    643.109    554.534    550.284    550.284
 89.770    662.000    651.934     10.066    550.011    647.551    554.438    550.011    550.011
 89.870    700.712    656.086     44.626    549.738    651.560    554.314    549.738    549.738
 89.970    654.000    659.106     -5.106    549.463    654.485    554.141    549.463    549.463
 90.070    656.000    660.417     -4.417    549.188    655.764    553.901    549.188    549.188
 90.170    647.137    659.643    -12.505    548.912    655.032    553.586    548.912    548.912
 90.270    621.846    656.689    -34.843    548.635    652.195    553.192    548.635    548.635
 90.370    704.382    651.747     52.635    548.357    647.437    552.729    548.357    548.357
 90.470    675.735    645.221     30.514    548.079    641.148    552.210    548.079    548.079
 90.570    611.000    637.618    -26.618    547.799    633.817    551.654    547.799    547.799
 90.670    611.000    629.454    -18.454    547.519    625.943    551.079    547.519    547.519
 90.770    624.000    621.195      2.805    547.239    617.975    550.500    547.239    547.239
 90.870    613.949    613.226      0.723    546.957    610.286    549.932    546.957    546.957
 90.970    582.000    605.842    -23.842    546.675    603.162    549.384    546.675    546.675
 91.070    578.538    599.246    -20.708    546.392    596.798    548.863    546.392    546.392
 91.170    579.000    593.559    -14.559    546.109    591.311    548.374    546.109    546.109
 91.270    610.000    588.823     21.177    545.824    586.743    547.917    545.824    545.824
 91.370    579.000    585.025     -6.025    545.539    583.081    547.493    545.539    545.539
 91.470    569.000    582.111    -13.111    545.254    580.272    547.099    545.254    545.254
 91.570    570.891    580.006     -9.114    544.968    578.243    546.733    544.968    544.968
 91.670    584.844    578.627      6.217    544.681    576.916    546.392    544.681    544.681
 91.770    554.000    577.905    -23.905    544.393    576.223    546.075    544.393    544.393
 91.870    584.000    577.793      6.207    544.105    576.118    545.778    544.105    544.105
 91.970    614.000    578.274     35.726    543.817    576.584    545.502    543.817    543.817
 92.070    623.000    579.364     43.636    543.528    577.639    545.247    543.528    543.528
 92.170    535.000    581.122    -46.122    543.238    579.336    545.016    543.238    543.238
 92.270    593.000    583.638      9.362    542.948    581.765    544.811    542.948    542.948
 92.370    612.000    587.038     24.962    542.657    585.046    544.637    542.657    542.657
 92.470    557.000    591.473    -34.473    542.366    589.326    544.497    542.366    542.366
 92.570    575.863    597.107    -21.244    542.074    594.765    544.397    542.074    542.074
 92.670    649.000    604.110     44.890    541.782    601.526    544.342    541.782    541.782
 92.770    595.270    612.635    -17.365    541.489    609.761    544.335    541.489    541.489
 92.870    680.000    622.809     57.191    541.196    619.592    544.378    541.196    541.196
 92.970    608.000    634.707    -26.707    540.902    631.097    544.471    540.902    540.902
 93.070    649.000    648.343      0.657    540.608    644.291    544.611    540.608    540.608
 93.170    678.000    663.652     14.348    540.313    659.116    544.794    540.313    540.313
 93.270    644.993    680.481    -35.489    540.018    675.424    545.012    540.018    540.018
 93.370    681.795    698.578    -16.782    539.723    692.974    545.255    539.723    539.723
 93.470    688.971    717.586    -28.615    539.427    711.421    545.514    539.427    539.427
 93.570    799.000    737.053     61.947    539.131    730.321    545.778    539.131    539.131
 93.670    724.000    756.473    -32.473    538.835    749.176    546.040    538.835    538.835
 93.770    804.086    775.382     28.703    538.538    767.521    546.303    538.538    538.538
 93.870    754.000    793.392    -39.392    538.241    784.954    546.578    538.241    538.241
 93.970    828.728    810.347     18.380    537.944    801.293    546.896    537.944    537.944
 94.070    867.204    826.359     40.845    537.647    816.599    547.302    537.647    537.647
 94.170    831.000    841.744    -10.744    537.349    831.130    547.858    537.349    537.349
 94.270    836.000    856.901    -20.901    537.051    845.212    548.634    537.051    537.051
 94.370    841.844    872.163    -30.319    536.753    859.113    549.698    536.753    536.753
 94.470    879.000    887.710     -8.710    536.454    872.953    551.106    536.454    536.454
 94.570    883.000    903.547    -20.547    536.155    886.700    552.899    536.155    536.155
 94.670    883.000    919.560    -36.560    535.857    900.225    555.089    535.857    535.857
 94.770    920.000    935.588    -15.588    535.558    913.388    557.657    535.558    535.558
 94.870    898.000    951.464    -53.464    535.258    926.078    560.547    535.258    535.258
 94.970    963.000    966.962     -3.962    534.959    938.164    563.662    534.959    534.959
 95.070    945.000    981.695    -36.695    534.660    949.393    566.871    534.660    534.660
 95.170    929.428    995.011    -65.583    534.360    959.284    570.001    534.360    534.360
 95.270    944.429   1005.975    -61.546    534.061    967.098    572.859    534.061    534.061
 95.370   1004.125   1013.411     -9.286    533.761    971.868    575.232    533.761    533.761
 95.470    997.000   1016.065    -19.065    533.461    972.549    576.916    533.461    533.461
 95.570    980.000   1012.863    -32.863    533.162    968.233    577.739    533.162    533.162
 95.670   1008.000   1003.184      4.816    532.862    958.406    577.598    532.862    532.862
 95.770    996.000    987.081      8.919    532.562    943.131    576.481    532.562    532.562
 95.870    981.223    965.325     15.898    532.263    923.099    574.466    532.263    532.263
 95.970    939.000    939.280     -0.280    531.963    899.520    571.707    531.963    531.963
 96.070    969.854    910.677     59.177    531.664    873.927    568.403    531.664    531.664
 96.170    891.000    881.394      9.606    531.364    847.986    564.765    531.364    531.364
 96.270    833.000    853.296    -20.296    531.065    823.358    560.997    531.065    531.065
 96.370    848.000    828.140     19.860    530.766    801.620    557.279    530.766    530.766
 96.470    857.000    807.521     49.479    530.467    784.218    553.760    530.467    530.467
 96.570    854.000    792.845     61.155    530.168    772.443    550.556    530.168    530.168
 96.670    811.000    785.311     25.689    529.869    767.416    547.744    529.869    529.869
 96.770    864.000    785.906     78.094    529.571    770.078    545.369    529.571    529.571
 96.870    752.873    795.391    -42.518    529.273    781.179    543.446    529.273    529.273
 96.970    826.423    814.296     12.127    528.974    801.254    541.966    528.974    528.974
 97.070    885.000    842.857     42.143    528.677    830.569    540.903    528.677    528.677
 97.170    823.218    881.196    -57.977    528.379    869.277    540.223    528.379    528.379
 97.270    991.000    928.977     62.023    528.082    917.089    539.882    528.082    528.082
 97.370    948.963    985.549    -36.587    527.785    973.399    539.834    527.785    527.785
 97.470   1111.000   1049.853     61.147    527.489   1037.197    540.031    527.489    527.489
 97.570   1132.000   1120.364     11.636    527.193   1107.010    540.421    527.193    527.193
 97.670   1186.000   1195.063     -9.063    526.897   1180.875    540.950    526.897    526.897
 97.770   1298.642   1271.402     27.240    526.601   1256.305    541.557    526.601    526.601
 97.870   1352.000   1346.316      5.684    526.306   1330.299    542.178    526.306    526.306
 97.970   1344.223   1416.275    -72.053    526.012   1399.400    542.744    526.012    526.012
 98.070   1532.000   1477.449     54.551    525.718   1459.848    543.181    525.718    525.718
 98.170   1562.000   1526.008     35.992    525.424   1507.885    543.419    525.424    525.424
 98.270   1477.547   1558.602    -81.055    525.131   1540.222    543.398    525.131    525.131
 98.370   1534.000   1572.930    -38.930    524.839   1554.598    543.076    524.839    524.839
 98.470   1505.167   1568.206    -63.039    524.547   1550.238    542.440    524.547    524.547
 98.570   1584.000   1545.313     38.687    524.255   1528.009    541.506    524.255    524.255
 98.670   1500.000   1506.585     -6.585    523.964   1490.198    540.316    523.964    523.964
 98.770   1438.000   1455.330    -17.330    523.674   1440.056    538.928    523.674    523.674
 98.870   1425.000   1395.315     29.685    523.385   1381.286    537.407    523.385    523.385
 98.970   1329.604   1330.360     -0.755    523.096   1317.642    535.816    523.096    523.096
 99.070   1287.000   1264.066     22.934    522.808   1252.668    534.214    522.808    522.808
 99.170   1251.399   1199.672     51.727    522.520   1189.551    532.651    522.520    522.520
 99.270   1083.000   1139.980    -56.980    522.233   1131.055    531.168    522.233    522.233
 99.370   1091.000   1087.346      3.654    521.947   1079.503    529.798    521.947    521.947
 99.470   1035.794   1043.700     -7.906    521.662   1036.803    528.562    521.662    521.662
 99.570    993.000   1010.580    -17.580    521.377   1004.477    527.477    521.377    521.377
 99.670   1005.705    989.172     16.533    521.094    983.707    526.549    521.094    521.094
 99.770   1017.000    980.331     36.669    520.811    975.347    525.778    520.811    520.811
 99.870    938.000    984.601    -46.601    520.529    979.946    525.160    520.529    520.529
 99.970    942.992   1002.221    -59.229    520.248    997.755    524.683    520.248    520.248
100.070   1191.000   1033.132    157.868    519.968   1028.727    524.335    519.968    519.968
100.170   1090.923   1076.977     13.946    519.688   1072.522    524.101    519.688    519.688
100.270   1191.000   1133.094     57.906    519.410   1128.496    523.963    519.410    519.410
100.370   1144.295   1200.492    -56.197    519.133   1195.676    523.901    519.133    519.133
100.470   1287.000   1277.809      9.191    518.857   1272.722    523.897    518.857    518.857
100.570   1379.000   1363.357     15.643    518.581   1357.965    523.930    518.581    518.581
100.670   1471.000   1454.974     16.026    518.307   1449.266    523.979    518.307    518.307
100.770   1579.000   1550.094     28.906    518.034   1544.078    524.023    518.034    518.034
100.870   1582.074   1645.784    -63.710    517.762   1639.490    524.042    517.762    517.762
100.970   1760.000   1738.884     21.116    517.491   1732.360    524.018    517.491    517.491
101.070   1929.000   1826.246    102.754    517.221   1819.554    523.934    517.221    517.221
101.170   1978.000   1905.024     72.976    516.953   1898.232    523.784    516.953    516.953
101.270   1925.876   1972.908    -47.032    516.686   1966.088    523.566    516.686    516.686
101.370   2006.000   2028.211    -22.211    516.420   2021.423    523.286    516.420    516.420
101.470   2080.918   2069.745     11.173    516.155   2063.040    522.957    516.155    516.155
101.570   2110.000   2096.609     13.391    515.891   2090.016    522.597    515.891    515.891
101.670   2234.000   2108.019    125.981    515.629   2101.551    522.225    515.629    515.629
101.770   2147.000   2103.338     43.662    515.368   2096.987    521.859    515.368    515.368
101.870   2129.000   2082.323     46.677    515.108   2076.065    521.515    515.108    515.108
101.970   2047.325   2045.491      1.834    514.850   2039.291    521.206    514.850    514.850
102.070   1995.000   1994.419      0.581    514.593   1988.231    520.941    514.593    514.593
102.170   2002.480   1931.770     70.710    514.338   1925.541    520.726    514.338    514.338
102.270   1732.000   1861.017   -129.017    514.084   1854.697    520.559    514.084    514.084
102.370   1740.000   1785.973    -45.973    513.832   1779.516    520.439    513.832    513.832
102.470   1690.000   1710.299    -20.299    513.581   1703.666    520.354    513.581    513.581
102.570   1650.000   1637.134     12.866    513.332   1630.303    520.294    513.332    513.332
102.670   1476.000   1568.895    -92.895    513.084   1561.857    520.243    513.084    513.084
102.770   1563.380   1507.196     56.184    512.838   1499.958    520.185    512.838    512.838
102.870   1493.305   1452.853     40.452    512.593   1445.439    520.107    512.593    512.593
102.970   1374.000   1405.935    -31.935    512.351   1398.381    519.995    512.351    512.351
103.070   1438.707   1365.827     72.880    512.109   1358.179    519.840    512.109    512.109
103.170   1244.000   1331.332    -87.332    511.870   1323.646    519.633    511.870    511.870
103.270   1258.029   1300.804    -42.776    511.632   1293.141    519.368    511.632    511.632
103.370   1233.000   1272.334    -39.334    511.396   1264.762    519.039    511.396    511.396
103.470   1189.000   1244.006    -55.006    511.162   1236.596    518.641    511.162    511.162
103.570   1162.000   1214.171    -52.171    510.930   1206.997    518.173    510.930    510.930
103.670   1098.000   1181.671    -83.671    510.700   1174.802    517.638    510.700    510.700
103.770   1115.742   1145.971    -30.229    510.471   1139.469    517.044    510.471    510.471
103.870   1119.000   1107.145     11.855    510.244   1101.058    516.402    510.244    510.244
103.970   1023.000   1065.733    -42.733    510.020   1060.096    515.727    510.020    510.020
104.070   1083.420   1022.562     60.859    509.797   1017.394    515.033    509.797    509.797
104.170    954.000    978.581    -24.581    509.576    973.888    514.335    509.576    509.576
104.270    871.453    934.744    -63.292    509.358    930.518    513.646    509.358    509.358
104.370    849.000    891.935    -42.935    509.141    888.158    512.976    509.141    509.141
104.470    882.000    850.927     31.073    508.926    847.574    512.334    508.926    508.926
104.570    806.955    812.361     -5.406    508.714    809.398    511.725    508.714    508.714
104.670    744.000    776.727    -32.727    508.504    774.120    511.154    508.504    508.504
104.770    797.000    744.351     52.649    508.296    742.066    510.619    508.296    508.296
104.870    758.429    715.447     42.982    508.090    713.444    510.126    508.090    508.090
104.970    732.000    690.082     41.918    507.886    688.320    509.676    507.886    507.886
105.070    677.087    668.176      8.911    507.685    666.620    509.265    507.685    507.685
105.170    655.292    649.567      5.726    507.486    648.182    508.889    507.486    507.486
105.270    598.847    634.021    -35.174    507.289    632.778    508.547    507.289    507.289
105.370    661.000    621.263     39.737    507.095    620.134    508.235    507.095    507.095
105.470    652.000    610.998     41.002    506.903    609.959    507.950    506.903    506.903
105.570    647.000    602.930     44.070    506.713    601.960    507.688    506.713    506.713
105.670    591.000    596.785     -5.785    506.526    595.866    507.448    506.526    506.526
105.770    631.000    592.321     38.679    506.342    591.436    507.227    506.342    506.342
105.870    606.000    589.331     16.669    506.160    588.466    507.022    506.160    506.160
105.970    584.875    587.654     -2.780    505.980    586.796    506.833    505.980    505.980
106.070    646.000    587.171     58.829    505.803    586.308    506.659    505.803    505.803
106.170    612.701    587.801     24.900    505.629    586.921    506.499    505.629    505.629
106.270    601.924    589.498     12.426    505.457    588.591    506.353    505.457    505.457
106.370    598.314    592.246      6.067    505.288    591.299    506.221    505.288    505.288
106.470    622.000    596.048     25.952    505.122    595.049    506.104    505.122    505.122
106.570    595.000    600.920     -5.920    504.959    599.858    506.001    504.959    504.959
106.670    637.000    606.885     30.115    504.798    605.746    505.913    504.798    504.798
106.770    591.000    613.962    -22.962    504.640    612.734    505.841    504.640    504.640
106.870    656.000    622.156     33.844    504.485    620.826    505.785    504.485    504.485
106.970    654.044    631.451     22.594    504.333    630.006    505.743    504.333    504.333
107.070    635.920    641.797     -5.878    504.184    640.226    505.717    504.184    504.184
107.170    644.000    653.104     -9.104    504.038    651.396    505.703    504.038    504.038
107.270    674.000    665.230      8.770    503.895    663.377    505.702    503.895    503.895
107.370    705.000    677.986     27.014    503.754    675.981    505.709    503.754    503.754
107.470    702.662    691.128     11.534    503.617    688.969    505.723    503.617    503.617
107.570    747.000    704.362     42.638    503.483    702.051    505.738    503.483    503.483
107.670    704.258    717.348    -13.090    503.352    714.891    505.751    503.352    503.352
107.770    738.000    729.713      8.287    503.225    727.122    505.756    503.225    503.225
107.870    757.000    741.066     15.934    503.100    738.357    505.748    503.100    503.100
107.970    755.492    751.026      4.466    502.979    748.221    505.722    502.979    502.979
108.070    738.000    759.261    -21.261    502.861    756.388    505.673    502.861    502.861
108.170    715.000    765.538    -50.538    502.746    762.628    505.598    502.746    502.746
108.270    795.000    769.760     25.240    502.634    766.844    505.495    502.634    502.634
108.370    751.000    771.992    -20.992    502.526    769.103    505.363    502.526    502.526
108.470    777.000    772.460      4.540    502.422    769.629    505.205    502.422    502.422
108.570    795.000    771.519     23.481    502.321    768.772    505.025    502.321    502.321
108.670    742.000    769.601    -27.601    502.223    766.958    504.828    502.223    502.223
108.770    776.811    767.161      9.650    502.129    764.638    504.618    502.129    502.129
108.870    776.344    764.628     11.716    502.038    762.235    504.402    502.038    502.038
108.970    710.663    762.370    -51.707    501.951    760.112    504.184    501.951    501.951
109.070    721.020    760.672    -39.652    501.868    758.549    503.970    501.868    501.868
109.170    710.782    759.717    -48.935    501.788    757.726    503.762    501.788    501.788
109.270    788.000    759.582     28.418    501.712    757.716    503.564    501.712    501.712
109.370    770.565    760.234     10.331    501.640    758.486    503.378    501.640    501.640
109.470    784.370    761.531     22.838    501.571    759.891    503.206    501.571    501.571
109.570    738.000    763.231    -25.231    501.507    761.688    503.047    501.507    501.507
109.670    769.000    764.999      4.001    501.446    763.544    502.902    501.446    501.446
109.770    709.689    766.437    -56.748    501.389    765.059    502.770    501.389    501.389
109.870    741.000    767.108    -26.108    501.336    765.801    502.650    501.336    501.336
109.970    754.000    766.590    -12.590    501.287    765.347    502.540    501.287    501.287
110.070    736.000    764.522    -28.522    501.242    763.339    502.437    501.242    501.242
110.170    711.000    760.646    -49.646    501.201    759.528    502.334    501.201    501.201
110.270    673.000    754.887    -81.887    501.165    753.823    502.245    501.165    501.165
110.370    744.000    747.289     -3.289    501.132    746.275    502.162    501.132    501.132
110.470    777.363    738.041     39.322    501.103    737.077    502.085    501.103    501.103
110.570    770.619    727.433     43.186    501.079    726.517    502.013    501.079    501.079
110.670    697.000    715.810    -18.810    501.059    714.941    501.946    501.059    501.059
110.770    693.000    703.537    -10.537    501.043    702.711    501.885    501.043    501.043
110.870    681.000    690.964     -9.964    501.032    690.181    501.831    501.032    501.032
110.970    670.235    678.417     -8.182    501.025    677.674    501.783    501.025    501.025
111.070    656.000    666.182    -10.182    501.022    665.475    501.742    501.022    501.022
111.170    702.564    654.493     48.071    501.024    653.819    501.708    501.024    501.024
111.270    679.000    643.568     35.432    501.030    642.925    501.683    501.030    501.030
111.370    681.000    633.551     47.449    501.041    632.935    501.665    501.041    501.041
111.470    606.347    624.548    -18.200    501.056    623.953    501.656    501.056    501.056
111.570    640.000    616.621     23.379    501.076    616.046    501.655    501.076    501.076
111.670    623.000    609.798     13.202    501.101    609.238    501.662    501.101    501.101
111.770    634.000    604.069     29.931    501.130    603.521    501.678    501.130    501.130
111.870    645.000    599.397     45.603    501.164    598.857    501.702    501.164    501.164
111.970    570.000    595.723    -25.723    501.203    595.189    501.733    501.203    501.203
112.070    594.000    592.971      1.029    501.247    592.440    501.773    501.247    501.247
112.170    598.000    591.059      6.941    501.295    590.529    501.819    501.295    501.295
112.270    606.000    589.896     16.104    501.349    589.365    501.872    501.349    501.349
112.370    654.000    589.391     64.609    501.407    588.857    501.933    501.407    501.407
112.470    637.958    589.459     48.499    501.471    588.921    501.999    501.471    501.471
112.570    605.826    590.019     15.807    501.539    589.476    502.072    501.539    501.539
112.670    630.389    591.001     39.388    501.612    590.452    502.150    501.612    501.612
112.770    544.413    592.345    -47.932    501.691    591.790    502.234    501.691    501.691
112.870    589.000    594.002     -5.002    501.775    593.441    502.323    501.775    501.775
112.970    616.000    595.938     20.062    501.864    595.371    502.417    501.864    501.864
113.070    583.910    598.133    -14.223    501.958    597.560    502.517    501.958    501.958
113.170    631.000    600.581     30.419    502.058    600.001    502.623    502.058    502.058
113.270    639.000    603.290     35.710    502.162    602.704    502.734    502.162    502.162
113.370    586.002    606.287    -20.285    502.273    605.693    502.851    502.273    502.273
113.470    606.000    609.610     -3.610    502.388    609.008    502.975    502.388    502.388
113.570    583.041    613.317    -30.276    502.509    612.705    503.106    502.509    502.509
113.670    600.788    617.486    -16.698    502.636    616.861    503.244    502.636    502.636
113.770    637.000    622.219     14.781    502.768    621.578    503.392    502.768    502.768
113.870    586.000    627.649    -41.649    502.906    626.988    503.548    502.906    502.906
113.970    681.339    633.946     47.393    503.050    633.260    503.715    503.050    503.050
114.070    615.073    641.328    -26.255    503.199    640.612    503.893    503.199    503.199
114.170    687.908    650.076     37.832    503.354    649.321    504.083    503.354    503.354
114.270    650.559    660.541     -9.982    503.514    659.740    504.287    503.514    503.514
114.370    710.506    673.166     37.340    503.681    672.309    504.506    503.681    503.681
114.470    663.000    688.501    -25.501    503.853    687.576    504.741    503.853    503.853
114.570    706.000    707.221     -1.221    504.032    706.215    504.994    504.032    504.032
114.670    744.000    730.146     13.854    504.216    729.045    505.265    504.216    504.216
114.770    776.000    758.259     17.741    504.406    757.045    505.558    504.406    504.406
114.870    753.000    792.719    -39.719    504.603    791.374    505.873    504.603    504.603
114.970    789.000    834.874    -45.874    504.805    833.378    506.211    504.805    504.805
115.070    898.066    886.264     11.802    505.014    884.594    506.575    505.014    505.014
115.170    950.000    948.616      1.384    505.229    946.749    506.965    505.229    505.229
115.270    984.000   1023.830    -39.830    505.450   1021.741    507.383    505.450    505.450
115.370   1095.000   1113.944    -18.944    505.678   1111.607    507.830    505.678    505.678
115.470   1208.463   1221.092    -12.629    505.911   1218.480    508.305    505.911    505.911
115.570   1283.000   1347.440    -64.440    506.152   1344.525    508.810    506.152    506.152
115.670   1482.000   1495.101    -13.101    506.398   1491.857    509.343    506.398    506.398
115.770   1613.000   1666.040    -53.040    506.651   1662.442    509.905    506.651    506.651
115.870   1868.000   1861.961      6.039    506.911   1857.983    510.494    506.911    506.911
115.970   2122.000   2084.177     37.823    507.177   2079.799    511.109    507.177    507.177
116.070   2391.000   2333.484     57.516    507.450   2328.687    511.747    507.450    507.450
116.170   2597.000   2610.025    -13.025    507.730   2604.796    512.404    507.730    507.730
116.270   2956.390   2913.167     43.223    508.016   2907.496    513.077    508.016    508.016
116.370   3222.000   3241.390    -19.390    508.310   3235.275    513.763    508.310    508.310
116.470   3474.217   3592.195   -117.979    508.610   3585.639    514.455    508.610    508.610
116.570   3917.000   3962.018    -45.018    508.916   3955.032    515.149    508.916    508.916
116.670   4337.000   4346.318     -9.318    509.230   4338.916    515.842    509.230    509.230
116.770   4740.000   4739.450      0.550    509.551   4731.655    516.530    509.551    509.551
116.870   5031.671   5134.732   -103.060    509.879   5126.571    517.209    509.879    509.879
116.970   5408.000   5524.570   -116.570    510.214   5516.075    517.875    510.214    510.214
117.070   5859.459   5900.575    -41.116    510.556   5891.781    518.528    510.556    510.556
117.170   6283.000   6253.738     29.262    510.905   6244.683    519.164    510.905    510.905
117.270   6710.655   6574.694    135.962    511.262   6565.421    519.782    511.262    511.262
117.370   6892.000   6854.079     37.921    511.626   6844.632    520.378    511.626    511.626
117.470   6945.256   7083.001   -137.744    511.997   7073.427    520.950    511.997    511.997
117.570   7290.000   7253.617     36.383    512.376   7243.963    521.495    512.376    512.376
117.670   7469.000   7359.770    109.230    512.762   7350.083    522.010    512.762    512.762
117.770   7374.000   7397.569    -23.569    513.155   7387.894    522.492    513.155    513.155
117.870   7351.445   7365.805    -14.360    513.556   7356.185    522.941    513.556    513.556
117.970   7200.757   7266.085    -65.329    513.965   7256.560    523.356    513.965    513.965
118.070   7125.658   7102.644     23.014    514.381   7093.249    523.736    514.381    514.381
118.170   6977.000   6881.894     95.106    514.806   6872.662    524.081    514.806    514.806
118.270   6437.000   6611.815   -174.815    515.237   6602.777    524.393    515.237    515.237
118.370   6189.739   6301.328   -111.589    515.677   6292.511    524.672    515.677    515.677
118.470   6082.000   5959.722    122.278    516.125   5951.152    524.921    516.125    516.125
118.570   5617.000   5596.205     20.795    516.580   5587.905    525.141    516.580    516.580
118.670   5299.000   5219.560     79.440    517.044   5211.552    525.334    517.044    517.044
118.770   4841.000   4837.899      3.101    517.515   4830.203    525.505    517.515    517.515
118.870   4505.000   4458.496     46.504    517.995   4451.128    525.658    517.995    517.995
118.970   4163.000   4087.664     75.336    518.482   4080.635    525.799    518.482    518.482
119.070   3876.000   3730.688    145.312    518.978   3724.007    525.932    518.978    518.978
119.170   3465.000   3391.796     73.204    519.483   3385.465    526.066    519.483    519.483
119.270   3226.000   3074.171    151.829    519.995   3068.189    526.205    519.995    519.995
119.370   2900.000   2780.001    119.999    520.516   2774.360    526.356    520.516    520.516
119.470   2476.000   2510.560    -34.560    521.045   2505.251    526.526    521.045    521.045
119.570   2304.000   2266.317     37.683    521.583   2261.323    526.719    521.583    521.583
119.670   2074.155   2047.053     27.102    522.129   2042.357    526.940    522.129    522.129
119.770   1784.604   1851.994    -67.389    522.684   1847.573    527.194    522.684    522.684
119.870   1670.000   1679.927     -9.927    523.248   1675.757    527.484    523.248    523.248
119.970   1530.054   1529.324      0.730    523.820   1525.377    527.812    523.820    523.820
120.070   1483.000   1398.444     84.556    524.401   1394.691    528.182    524.401    524.401
120.170   1280.223   1285.430     -5.207    524.990   1281.838    528.596    524.990    524.990
120.270   1117.998   1188.388    -70.390    525.589   1184.924    529.055    525.589    525.589
120.370   1104.000   1105.456     -1.456    526.197   1102.085    529.560    526.197    526.197
120.470   1052.000   1034.858     17.142    526.813   1031.544    530.113    526.813    526.813
120.570    994.057    974.942     19.116    527.439    971.647    530.714    527.439    527.439
120.670    884.095    924.205    -40.110    528.074    920.891    531.365    528.074    528.074
120.770    924.000    881.308     42.692    528.717    877.937    532.066    528.717    528.717
120.870    803.270    845.079    -41.809    529.370    841.610    532.817    529.370    529.370
120.970    839.000    814.507     24.493    530.033    810.899    533.619    530.033    530.033
121.070    831.000    788.732     42.268    530.704    784.943    534.473    530.704    530.704
121.170    782.000    767.031     14.969    531.385    763.018    535.380    531.385    531.385
121.270    785.844    748.802     37.041    532.076    744.521    536.341    532.076    532.076
121.370    726.000    733.549     -7.549    532.776    728.953    537.357    532.776    532.776
121.470    697.000    720.863    -23.863    533.485    715.906    538.430    533.485    533.485
121.570    691.000    710.409    -19.409    534.205    705.043    539.561    534.205    534.205
121.670    712.000    701.914     10.086    534.933    696.088    540.751    534.933    534.933
121.770    703.000    695.152      7.848    535.672    688.815    542.003    535.672    535.672
121.870    690.000    689.939      0.061    536.420    683.037    543.317    536.420    536.420
121.970    714.350    686.119     28.232    537.179    678.598    544.696    537.179    537.179
122.070    673.000    683.561    -10.561    537.947    675.365    546.141    537.947    537.947
122.170    652.223    682.153    -29.930    538.725    673.224    547.653    538.725    538.725
122.270    682.861    681.794      1.067    539.513    672.075    549.234    539.513    539.513
122.370    635.384    682.394    -47.010    540.312    671.824    550.884    540.312    540.312
122.470    638.000    683.868    -45.868    541.120    672.388    552.604    541.120    541.120
122.570    649.000    686.132    -37.132    541.939    673.685    554.393    541.939    541.939
122.670    625.000    689.105    -64.105    542.768    675.633    556.247    542.768    542.768
122.770    665.000    692.700    -27.700    543.607    678.153    558.164    543.607    543.607
122.870    691.316    696.828     -5.512    544.457    681.160    560.137    544.457    544.457
122.970    741.063    701.396     39.667    545.317    684.569    562.159    545.317    545.317
123.070    725.000    706.302     18.698    546.188    688.288    564.219    546.188    546.188
123.170    688.000    711.440    -23.440    547.069    692.222    566.306    547.069    547.069
123.270    702.000    716.694    -14.694    547.961    696.272    568.405    547.961    547.961
123.370    714.000    721.945     -7.945    548.864    700.334    570.500    548.864    548.864
123.470    680.000    727.065    -47.065    549.778    704.298    572.572    549.778    549.778
123.570    751.524    731.925     19.599    550.702    708.055    574.602    550.702    550.702
123.670    724.209    736.394    -12.184    551.637    711.494    576.570    551.637    551.637
123.770    725.548    740.344    -14.795    552.584    714.508    578.454    552.584    552.584
123.870    751.781    743.655      8.126    553.541    716.999    580.235    553.541    553.541
123.970    722.173    746.223    -24.050    554.509    718.880    581.893    554.509    554.509
124.070    726.103    747.958    -21.855    555.489    720.076    583.413    555.489    555.489
124.170    778.000    748.769     29.231    556.480    720.510    584.783    556.480    556.480
124.270    732.000    748.688    -16.688    557.482    720.220    585.995    557.482    557.482
124.370    821.000    747.691     73.309    558.496    719.186    587.046    558.496    558.496
124.470    761.000    745.796     15.204    559.520    717.426    587.937    559.520    559.520
124.570    700.026    743.052    -43.026    560.557    714.983    588.672    560.557    560.557
124.670    712.724    739.526    -26.802    561.605    711.917    589.259    561.605    561.605
124.770    760.000    735.301     24.699    562.665    708.302    589.708    562.665    562.665
124.870    810.000    730.469     79.531    563.736    704.215    590.032    563.736    563.736
124.970    765.000    725.125     39.875    564.819    699.741    590.245    564.819    564.819
