neutron_powder_diffraction_0115
R_wp: 3.845
Temperature (K): 962.274
Counts: 83685.00
Wavelength (Ã…): 2.52098
COMMENTS
Test file for demonstrating the .xyy file format in Reel1.0
END OF HEADER
   tth       Y_obs     Y_calc      Y_res    Background    Phase_1_Nuc    Phase_1_Mag    Phase_2_Nuc    Phase_2_Mag
  9.970    600.000    557.510     42.490    556.338    557.307    556.338    556.542    556.338
 10.070    562.000    557.894      4.106    556.638    557.689    556.638    556.842    556.638
 10.170    532.357    558.281    -25.924    556.930    558.075    556.930    557.135    556.930
 10.270    597.000    558.673     38.327    557.212    558.467    557.212    557.418    557.212
 10.370    562.000    559.074      2.926    557.487    558.867    557.487    557.693    557.487
 10.470    596.000    559.488     36.512    557.752    559.280    557.752    557.960    557.752
 10.570    532.991    559.920    -26.929    558.010    559.711    558.010    558.218    558.010
 10.670    597.000    560.377     36.623    558.259    560.166    558.259    558.468    558.259
 10.770    564.386    560.867      3.519    558.499    560.656    558.499    558.710    558.499
 10.870    543.204    561.404    -18.200    558.732    561.192    558.732    558.943    558.732
 10.970    551.000    562.007    -11.007    558.957    561.794    558.957    559.168    558.957
 11.070    600.000    562.693     37.307    559.173    562.478    559.173    559.386    559.173
 11.170    579.173    563.499     15.674    559.382    563.283    559.382    559.595    559.382
 11.270    585.000    564.481     20.519    559.582    564.263    559.582    559.797    559.582
 11.370    578.000    565.735     12.265    559.775    565.517    559.775    559.991    559.775
 11.470    532.129    567.476    -35.347    559.960    567.256    559.960    560.177    559.960
 11.570    557.000    570.216    -13.216    560.138    569.993    560.138    560.355    560.138
 11.670    590.000    575.121     14.879    560.308    574.894    560.308    560.526    560.308
 11.770    581.851    584.372     -2.522    560.470    584.140    560.470    560.689    560.470
 11.870    663.000    600.902     62.098    560.625    600.659    560.625    560.845    560.625
 11.970    668.000    626.621     41.379    560.772    626.364    560.772    560.993    560.772
 12.070    691.000    658.838     32.162    560.912    658.561    560.912    561.134    560.912
 12.170    645.896    686.399    -40.503    561.045    686.106    561.045    561.268    561.045
 12.270    700.000    692.829      7.171    561.171    692.532    561.171    561.395    561.171
 12.370    725.000    672.925     52.075    561.289    672.638    561.289    561.515    561.289
 12.470    621.000    640.711    -19.711    561.401    640.441    561.401    561.627    561.401
 12.570    594.000    611.494    -17.494    561.505    611.239    561.505    561.733    561.505
 12.670    595.652    591.293      4.359    561.603    591.048    561.603    561.831    561.603
 12.770    558.000    579.576    -21.576    561.694    579.337    561.694    561.923    561.694
 12.870    534.000    573.455    -39.455    561.777    573.218    561.777    562.008    561.777
 12.970    581.000    570.286     10.714    561.855    570.050    561.855    562.086    561.855
 13.070    573.000    568.489      4.511    561.925    568.253    561.925    562.158    561.925
 13.170    555.000    567.333    -12.333    561.989    567.096    561.989    562.223    561.989
 13.270    587.000    566.515     20.485    562.046    566.278    562.046    562.281    562.046
 13.370    565.000    565.908     -0.908    562.097    565.670    562.097    562.333    562.097
 13.470    526.000    565.440    -39.440    562.142    565.201    562.142    562.379    562.142
 13.570    538.000    565.072    -27.072    562.180    564.833    562.180    562.418    562.180
 13.670    552.000    564.778    -12.778    562.212    564.537    562.212    562.451    562.212
 13.770    568.653    564.538      4.115    562.238    564.296    562.238    562.478    562.238
 13.870    578.000    564.338     13.662    562.257    564.096    562.257    562.499    562.257
 13.970    571.000    564.169      6.831    562.271    563.926    562.271    562.513    562.271
 14.070    530.000    564.024    -34.024    562.278    563.780    562.278    562.522    562.278
 14.170    518.000    563.896    -45.896    562.279    563.650    562.279    562.525    562.279
 14.270    543.000    563.780    -20.780    562.275    563.533    562.275    562.521    562.275
 14.370    543.000    563.674    -20.674    562.265    563.426    562.265    562.512    562.265
 14.470    546.572    563.575    -17.003    562.248    563.326    562.248    562.498    562.248
 14.570    536.790    563.481    -26.691    562.227    563.230    562.227    562.477    562.227
 14.670    576.000    563.391     12.609    562.199    563.139    562.199    562.451    562.199
 14.770    550.000    563.302    -13.302    562.166    563.049    562.166    562.419    562.166
 14.870    569.000    563.215      5.785    562.127    562.960    562.127    562.382    562.127
 14.970    519.000    563.127    -44.127    562.083    562.872    562.083    562.339    562.083
 15.070    597.773    563.040     34.733    562.034    562.782    562.034    562.291    562.034
 15.170    543.000    562.951    -19.951    561.979    562.692    561.979    562.237    561.979
 15.270    531.000    562.860    -31.860    561.919    562.600    561.919    562.178    561.919
 15.370    575.000    562.768     12.232    561.853    562.506    561.853    562.114    561.853
 15.470    574.000    562.675     11.325    561.782    562.412    561.782    562.045    561.782
 15.570    535.000    562.599    -27.599    561.707    562.334    561.707    561.971    561.707
 15.670    538.000    562.506    -24.506    561.626    562.240    561.626    561.891    561.626
 15.770    546.000    562.407    -16.407    561.540    562.140    561.540    561.807    561.540
 15.870    524.238    562.302    -38.063    561.449    562.033    561.449    561.718    561.449
 15.970    520.000    562.193    -42.193    561.353    561.922    561.353    561.623    561.353
 16.070    586.000    562.080     23.920    561.253    561.808    561.253    561.524    561.253
 16.170    539.000    561.964    -22.964    561.147    561.690    561.147    561.420    561.147
 16.270    596.043    561.844     34.199    561.037    561.569    561.037    561.312    561.037
 16.370    556.499    561.721     -5.222    560.922    561.444    560.922    561.199    560.922
 16.470    540.000    561.594    -21.594    560.803    561.316    560.803    561.081    560.803
 16.570    562.000    561.464      0.536    560.679    561.184    560.679    560.959    560.679
 16.670    524.258    561.330    -37.071    560.550    561.048    560.550    560.832    560.550
 16.770    520.219    561.194    -40.975    560.417    560.911    560.417    560.700    560.417
 16.870    585.834    561.078     24.757    560.280    560.792    560.280    560.565    560.280
 16.970    565.000    561.030      3.970    560.138    560.743    560.138    560.425    560.138
 17.070    541.000    560.891    -19.891    559.992    560.602    559.992    560.280    559.992
 17.170    532.253    560.739    -28.486    559.842    560.449    559.842    560.132    559.842
 17.270    553.000    560.583     -7.583    559.687    560.291    559.687    559.979    559.687
 17.370    526.129    560.424    -34.295    559.529    560.131    559.529    559.823    559.529
 17.470    597.000    560.262     36.738    559.366    559.966    559.366    559.662    559.366
 17.570    550.382    560.096     -9.714    559.199    559.798    559.199    559.497    559.199
 17.670    537.000    559.930    -22.930    559.028    559.630    559.028    559.328    559.028
 17.770    572.000    559.761     12.239    558.854    559.459    558.854    559.155    558.854
 17.870    594.336    559.585     34.751    558.675    559.281    558.675    558.979    558.675
 17.970    504.000    559.405    -55.405    558.493    559.099    558.493    558.799    558.493
 18.070    554.000    559.222     -5.222    558.306    558.914    558.306    558.614    558.306
 18.170    520.000    559.036    -39.036    558.117    558.726    558.117    558.427    558.117
 18.270    561.426    558.846      2.579    557.923    558.534    557.923    558.235    557.923
 18.370    522.000    558.653    -36.653    557.726    558.339    557.726    558.040    557.726
 18.470    523.000    558.457    -35.457    557.525    558.141    557.525    557.842    557.525
 18.570    576.406    558.258     18.147    557.321    557.939    557.321    557.640    557.321
 18.670    545.000    558.056    -13.056    557.113    557.735    557.113    557.434    557.113
 18.770    581.000    557.851     23.149    556.901    557.528    556.901    557.225    556.901
 18.870    549.015    557.643     -8.628    556.687    557.317    556.687    557.013    556.687
 18.970    535.853    557.433    -21.579    556.469    557.104    556.469    556.797    556.469
 19.070    543.427    557.219    -13.792    556.248    556.888    556.248    556.579    556.248
 19.170    563.000    557.004      5.996    556.023    556.671    556.023    556.357    556.023
 19.270    587.504    556.786     30.718    555.795    556.450    555.795    556.132    555.795
 19.370    534.000    556.578    -22.578    555.564    556.239    555.564    555.903    555.564
 19.470    577.479    556.413     21.067    555.330    556.071    555.330    555.672    555.330
 19.570    581.000    556.194     24.806    555.093    555.850    555.093    555.438    555.093
 19.670    574.000    555.968     18.032    554.853    555.620    554.853    555.201    554.853
 19.770    601.318    555.737     45.582    554.610    555.386    554.610    554.961    554.610
 19.870    546.000    555.503     -9.503    554.365    555.150    554.365    554.718    554.365
 19.970    565.000    555.267      9.733    554.116    554.911    554.116    554.472    554.116
 20.070    519.000    555.029    -36.029    553.864    554.670    553.864    554.224    553.864
 20.170    576.000    554.789     21.211    553.610    554.427    553.610    553.972    553.610
 20.270    538.667    554.548    -15.881    553.353    554.182    553.353    553.718    553.353
 20.370    522.000    554.317    -32.317    553.093    553.948    553.093    553.462    553.093
 20.470    536.390    554.088    -17.698    552.830    553.716    552.830    553.203    552.830
 20.570    518.000    553.886    -35.886    552.565    553.510    552.565    552.941    552.565
 20.670    565.795    553.645     12.150    552.298    553.265    552.298    552.677    552.298
 20.770    561.000    553.395      7.605    552.028    553.012    552.028    552.411    552.028
 20.870    586.154    553.143     33.011    551.755    552.757    551.755    552.142    551.755
 20.970    517.320    552.891    -35.571    551.480    552.500    551.480    551.871    551.480
 21.070    545.606    552.639     -7.033    551.203    552.244    551.203    551.597    551.203
 21.170    571.000    552.403     18.597    550.923    552.005    550.923    551.322    550.923
 21.270    559.000    552.153      6.847    550.641    551.750    550.641    551.044    550.641
 21.370    574.000    551.897     22.103    550.357    551.490    550.357    550.764    550.357
 21.470    548.102    551.640     -3.539    550.070    551.229    550.070    550.482    550.070
 21.570    589.130    551.384     37.747    549.781    550.968    549.781    550.198    549.781
 21.670    571.234    551.127     20.107    549.491    550.707    549.491    549.911    549.491
 21.770    525.280    550.871    -25.591    549.198    550.446    549.198    549.623    549.198
 21.870    499.000    550.616    -51.616    548.903    550.186    548.903    549.333    548.903
 21.970    593.212    550.361     42.850    548.606    549.926    548.606    549.041    548.606
 22.070    549.576    550.108     -0.532    548.307    549.668    548.307    548.748    548.307
 22.170    559.995    549.860     10.135    548.006    549.414    548.006    548.452    548.006
 22.270    544.000    549.637     -5.637    547.703    549.185    547.703    548.155    547.703
 22.370    558.001    549.401      8.600    547.398    548.944    547.398    547.856    547.398
 22.470    544.971    549.185     -4.214    547.092    548.721    547.092    547.556    547.092
 22.570    585.013    548.952     36.060    546.784    548.483    546.784    547.254    546.784
 22.670    581.911    548.724     33.187    546.474    548.248    546.474    546.950    546.474
 22.770    579.000    548.510     30.490    546.162    548.028    546.162    546.645    546.162
 22.870    541.000    548.340     -7.340    545.849    547.851    545.849    546.338    545.849
 22.970    528.000    548.160    -20.160    545.534    547.664    545.534    546.031    545.534
 23.070    535.000    547.987    -12.987    545.217    547.483    545.217    545.721    545.217
 23.170    562.482    547.825     14.657    544.899    547.314    544.899    545.411    544.899
 23.270    516.528    547.703    -31.174    544.580    547.184    544.580    545.099    544.580
 23.370    537.000    547.633    -10.633    544.259    547.106    544.259    544.786    544.259
 23.470    570.280    547.563     22.718    543.936    547.028    543.936    544.473    543.936
 23.570    531.000    547.539    -16.539    543.612    546.995    543.612    544.158    543.612
 23.670    568.000    547.583     20.417    543.287    547.031    543.287    543.842    543.287
 23.770    546.821    547.727     -0.906    542.961    547.165    542.961    543.525    542.961
 23.870    535.000    547.997    -12.997    542.633    547.425    542.633    543.207    542.633
 23.970    542.000    548.477     -6.477    542.304    547.895    542.304    542.888    542.304
 24.070    539.209    549.349    -10.141    541.974    548.758    541.974    542.569    541.974
 24.170    508.875    550.968    -42.093    541.642    550.366    541.642    542.249    541.642
 24.270    587.000    554.166     32.834    541.309    553.554    541.309    541.928    541.309
 24.370    551.509    560.347     -8.838    540.976    559.728    540.976    541.607    540.976
 24.470    548.891    571.216    -22.325    540.641    570.592    540.641    541.286    540.641
 24.570    580.877    587.654     -6.777    540.305    587.028    540.305    540.964    540.305
 24.670    623.401    607.685     15.716    539.968    607.059    539.968    540.641    539.968
 24.770    626.000    624.438      1.562    539.630    623.808    539.630    540.319    539.630
 24.870    638.000    628.158      9.842    539.291    627.516    539.291    539.996    539.291
 24.970    665.000    615.733     49.267    538.952    615.065    538.952    539.673    538.952
 25.070    568.748    595.280    -26.532    538.611    594.580    538.611    539.351    538.611
 25.170    543.364    576.070    -32.707    538.270    575.337    538.270    539.028    538.270
 25.270    525.033    562.137    -37.105    537.928    561.374    537.928    538.706    537.928
 25.370    590.000    553.549     36.451    537.585    552.759    537.585    538.384    537.585
 25.470    523.000    548.741    -25.741    537.241    547.924    537.241    538.063    537.241
 25.570    553.818    546.071      7.746    536.896    545.229    536.896    537.743    536.896
 25.670    569.000    544.459     24.541    536.551    543.591    536.551    537.423    536.551
 25.770    537.840    543.358     -5.518    536.205    542.462    536.205    537.104    536.205
 25.870    524.171    542.531    -18.360    535.859    541.605    535.859    536.787    535.859
 25.970    515.000    541.876    -26.876    535.512    540.918    535.512    536.471    535.512
 26.070    571.000    541.345     29.655    535.164    540.354    535.164    536.156    535.164
 26.170    624.000    540.911     83.089    534.816    539.885    534.816    535.844    534.816
 26.270    559.000    540.559     18.441    534.468    539.494    534.468    535.533    534.468
 26.370    573.000    540.279     32.721    534.119    539.173    534.119    535.225    534.119
 26.470    539.280    540.067     -0.787    533.769    538.916    533.769    534.920    533.769
 26.570    547.961    539.923      8.038    533.419    538.724    533.419    534.618    533.419
 26.670    536.000    539.850     -3.850    533.069    538.600    533.069    534.319    533.069
 26.770    546.000    539.858      6.142    532.718    538.551    532.718    534.025    532.718
 26.870    515.000    539.958    -24.958    532.367    538.590    532.367    533.735    532.367
 26.970    553.000    540.170     12.830    532.016    538.735    532.016    533.450    532.016
 27.070    570.000    540.519     29.481    531.664    539.012    531.664    533.172    531.664
 27.170    569.560    541.046     28.514    531.313    539.459    531.313    532.899    531.313
 27.270    508.265    541.809    -33.544    530.961    540.135    530.961    532.635    530.961
 27.370    522.503    542.900    -20.398    530.608    541.129    530.608    532.378    530.608
 27.470    562.000    544.488     17.512    530.256    542.611    530.256    532.132    530.256
 27.570    557.913    547.006     10.907    529.904    545.012    529.904    531.896    529.904
 27.670    540.859    551.853    -10.995    529.551    549.729    529.551    531.672    529.551
 27.770    593.000    563.242     29.758    529.199    560.971    529.199    531.462    529.199
 27.870    608.000    590.814     17.186    528.846    588.376    528.846    531.266    528.846
 27.970    649.000    648.696      0.304    528.493    646.065    528.493    531.088    528.493
 28.070    754.000    743.822     10.178    528.141    740.969    528.141    530.929    528.141
 28.170    806.000    855.371    -49.371    527.788    852.282    527.788    530.790    527.788
 28.270    904.000    926.966    -22.966    527.435    923.639    527.435    530.674    527.435
 28.370    935.000    909.523     25.477    527.083    905.963    527.083    530.582    527.083
 28.470    817.000    825.436     -8.436    526.731    821.620    526.731    530.516    526.731
 28.570    775.000    741.895     33.105    526.378    737.782    526.378    530.477    526.378
 28.670    688.562    707.881    -19.319    526.026    703.429    526.026    530.465    526.026
 28.770    735.000    731.310      3.690    525.675    726.486    525.675    530.479    525.675
 28.870    805.000    785.193     19.807    525.323    779.979    525.323    530.517    525.323
 28.970    829.000    821.382      7.618    524.971    815.769    524.971    530.571    524.971
 29.070    805.000    802.437      2.563    524.620    796.426    524.620    530.634    524.620
 29.170    741.000    738.188      2.812    524.269    731.777    524.269    530.692    524.269
 29.270    655.000    665.115    -10.115    523.919    658.318    523.919    530.729    523.919
 29.370    591.000    608.827    -17.827    523.569    601.679    523.569    530.726    523.569
 29.470    585.281    574.999     10.282    523.219    567.562    523.219    530.662    523.219
 29.570    585.000    557.852     27.148    522.869    550.208    522.869    530.515    522.869
 29.670    609.000    549.725     59.275    522.520    541.975    522.520    530.272    522.520
 29.770    617.000    545.549     71.451    522.171    537.799    522.171    529.922    522.171
 29.870    564.076    542.964     21.112    521.823    535.320    521.823    529.467    521.823
 29.970    543.000    541.098      1.902    521.476    533.658    521.476    528.915    521.476
 30.070    507.000    539.672    -32.672    521.128    532.516    521.128    528.284    521.128
 30.170    539.000    538.637      0.363    520.782    531.826    520.782    527.592    520.782
 30.270    543.000    538.112      4.888    520.435    531.685    520.435    526.861    520.435
 30.370    555.000    538.510     16.490    520.090    532.487    520.090    526.110    520.090
 30.470    561.000    540.766     20.234    519.745    535.148    519.745    525.356    519.745
 30.570    545.000    546.403     -1.403    519.400    541.181    519.400    524.612    519.400
 30.670    542.371    556.975    -14.605    519.056    552.127    519.056    523.886    519.056
 30.770    591.000    572.528     18.472    518.713    568.028    518.713    523.183    518.713
 30.870    584.625    589.535     -4.909    518.370    585.358    518.370    522.507    518.370
 30.970    603.958    600.101      3.857    518.029    596.226    518.029    521.858    518.029
 31.070    567.093    597.054    -29.962    517.687    593.464    517.687    521.237    517.687
 31.170    620.000    582.165     37.835    517.347    578.839    517.347    520.643    517.347
 31.270    594.000    563.635     30.365    517.007    560.550    517.007    520.073    517.007
 31.370    552.000    548.042      3.958    516.668    545.172    516.668    519.527    516.668
 31.470    528.000    537.609     -9.609    516.330    534.931    516.330    519.002    516.330
 31.570    501.769    531.636    -29.867    515.993    529.128    515.993    518.497    515.993
 31.670    524.000    528.476     -4.476    515.656    526.121    515.656    518.009    515.656
 31.770    555.000    526.767     28.233    515.320    524.549    515.320    517.537    515.320
 31.870    527.786    525.739      2.047    514.986    523.644    514.986    517.079    514.986
 31.970    530.000    525.051      4.949    514.652    523.067    514.652    516.635    514.652
 32.070    537.058    524.573     12.485    514.319    522.689    514.319    516.202    514.319
 32.170    554.733    524.259     30.474    513.986    522.465    513.986    515.780    513.986
 32.270    550.000    524.092     25.908    513.655    522.379    513.655    515.367    513.655
 32.370    501.579    524.069    -22.490    513.325    522.430    513.325    514.963    513.325
 32.470    511.693    524.200    -12.507    512.996    522.628    512.996    514.567    512.996
 32.570    540.488    524.502     15.985    512.667    522.992    512.667    514.177    512.667
 32.670    569.000    525.007     43.993    512.340    523.552    512.340    513.795    512.340
 32.770    506.903    525.760    -18.857    512.013    524.355    512.013    513.418    512.013
 32.870    578.000    526.825     51.175    511.688    525.466    511.688    513.046    511.688
 32.970    509.908    528.301    -18.393    511.364    526.984    511.364    512.680    511.364
 33.070    492.955    530.344    -37.389    511.041    529.066    511.041    512.318    511.041
 33.170    564.000    533.245     30.755    510.719    532.001    510.719    511.961    510.719
 33.270    520.000    537.646    -17.646    510.398    536.434    510.398    511.607    510.398
 33.370    532.000    545.087    -13.087    510.078    543.904    510.078    511.258    510.078
 33.470    517.100    559.012    -41.912    509.759    557.854    509.759    510.911    509.759
 33.570    608.000    585.883     22.117    509.441    584.745    509.441    510.569    509.441
 33.670    665.000    634.930     30.070    509.125    633.807    509.125    510.229    509.125
 33.770    726.606    714.325     12.281    508.809    713.213    508.809    509.893    508.809
 33.870    825.000    822.896      2.104    508.495    821.793    508.495    509.559    508.495
 33.970    972.000    939.519     32.481    508.182    938.429    508.182    509.228    508.182
 34.070   1016.748   1018.753     -2.005    507.871   1017.689    507.871    508.900    507.871
 34.170   1050.101   1015.776     34.325    507.560   1014.746    507.560    508.574    507.560
 34.270    969.000    932.420     36.580    507.251    931.422    507.251    508.251    507.251
 34.370    774.623    814.710    -40.087    506.943    813.732    506.943    507.930    506.943
 34.470    698.000    706.819     -8.819    506.637    705.853    506.637    507.611    506.637
 34.570    590.000    628.524    -38.524    506.331    627.567    506.331    507.295    506.331
 34.670    579.058    580.237     -1.179    506.027    579.287    506.027    506.981    506.027
 34.770    552.000    553.574     -1.574    505.724    552.630    505.724    506.669    505.724
 34.870    569.000    539.417     29.583    505.423    538.481    505.423    506.360    505.423
 34.970    513.000    531.491    -18.491    505.123    530.562    505.123    506.052    505.123
 35.070    551.000    526.485     24.515    504.824    525.562    504.824    505.747    504.824
 35.170    516.404    522.925     -6.521    504.527    522.008    504.527    505.443    504.527
 35.270    531.752    520.192     11.560    504.231    519.281    504.231    505.142    504.231
 35.370    527.000    518.005      8.995    503.936    517.099    503.936    504.842    503.936
 35.470    474.223    516.209    -41.986    503.643    515.307    503.643    504.545    503.643
 35.570    490.000    514.706    -24.706    503.351    513.808    503.351    504.249    503.351
 35.670    536.000    513.427     22.573    503.061    512.532    503.061    503.956    503.061
 35.770    482.000    512.324    -30.324    502.772    511.432    502.772    503.664    502.772
 35.870    532.647    511.361     21.286    502.484    510.471    502.484    503.374    502.484
 35.970    496.000    510.510    -14.510    502.198    509.623    502.198    503.086    502.198
 36.070    511.776    509.753      2.023    501.914    508.867    501.914    502.800    501.914
 36.170    500.747    509.074     -8.328    501.631    508.189    501.631    502.516    501.631
 36.270    503.000    508.463     -5.463    501.349    507.578    501.349    502.234    501.349
 36.370    476.921    507.910    -30.988    501.069    507.025    501.069    501.954    501.069
 36.470    493.000    507.410    -14.410    500.790    506.526    500.790    501.675    500.790
 36.570    546.020    506.961     39.059    500.513    506.077    500.513    501.399    500.513
 36.670    492.442    506.564    -14.122    500.238    505.678    500.238    501.124    500.238
 36.770    513.000    506.224      6.776    499.964    505.337    499.964    500.851    499.964
 36.870    483.000    505.960    -22.960    499.692    505.072    499.692    500.580    499.692
 36.970    477.000    505.816    -28.816    499.421    504.926    499.421    500.311    499.421
 37.070    502.906    505.883     -2.977    499.152    504.991    499.152    500.044    499.152
 37.170    496.000    506.314    -10.314    498.884    505.420    498.884    499.779    498.884
 37.270    514.000    507.317      6.683    498.618    506.420    498.618    499.515    498.618
 37.370    518.686    509.080      9.606    498.353    508.181    498.353    499.254    498.353
 37.470    562.000    511.633     50.367    498.090    510.731    498.090    498.994    498.090
 37.570    528.000    514.652     13.348    497.829    513.748    497.829    498.737    497.829
 37.670    480.248    517.294    -37.045    497.570    516.387    497.570    498.481    497.570
 37.770    486.000    518.352    -32.352    497.312    517.443    497.312    498.227    497.312
 37.870    479.998    517.218    -37.220    497.055    516.307    497.055    497.975    497.055
 37.970    519.000    514.551      4.449    496.801    513.637    496.801    497.725    496.801
 38.070    541.000    511.383     29.617    496.548    510.466    496.548    497.477    496.548
 38.170    507.000    508.344     -1.344    496.296    507.420    496.296    497.231    496.296
 38.270    524.000    505.752     18.248    496.047    504.821    496.047    496.986    496.047
 38.370    527.332    503.747     23.586    495.798    502.808    495.798    496.744    495.798
 38.470    506.000    502.300      3.700    495.552    501.353    495.552    496.504    495.552
 38.570    485.000    501.288    -16.288    495.308    500.334    495.308    496.265    495.308
 38.670    525.134    500.576     24.558    495.065    499.614    495.065    496.029    495.065
 38.770    480.000    500.052    -20.052    494.823    499.082    494.823    495.794    494.823
 38.870    492.000    499.639     -7.639    494.584    498.662    494.584    495.562    494.584
 38.970    493.611    499.290     -5.680    494.346    498.306    494.346    495.332    494.346
 39.070    486.724    498.982    -12.257    494.110    497.990    494.110    495.103    494.110
 39.170    532.372    498.700     33.672    493.876    497.700    493.876    494.877    493.876
 39.270    518.000    498.438     19.562    493.643    497.430    493.643    494.652    493.643
 39.370    485.000    498.193    -13.193    493.412    497.176    493.412    494.430    493.412
 39.470    467.443    497.962    -30.519    493.183    496.936    493.183    494.210    493.183
 39.570    518.000    497.744     20.256    492.956    496.709    492.956    493.991    492.956
 39.670    508.000    497.538     10.462    492.730    496.493    492.730    493.775    492.730
 39.770    478.840    497.343    -18.503    492.507    496.289    492.507    493.561    492.507
 39.870    520.188    497.159     23.029    492.285    496.095    492.285    493.349    492.285
 39.970    505.389    496.986      8.403    492.064    495.912    492.064    493.139    492.064
 40.070    474.447    496.825    -22.377    491.846    495.740    491.846    492.932    491.846
 40.170    470.000    496.675    -26.675    491.629    495.579    491.629    492.726    491.629
 40.270    475.000    496.538    -21.538    491.414    495.431    491.414    492.523    491.414
 40.370    453.000    496.414    -43.414    491.201    495.295    491.201    492.321    491.201
 40.470    483.341    496.305    -12.965    490.990    495.174    490.990    492.122    490.990
 40.570    469.772    496.213    -26.442    490.781    495.069    490.781    491.925    490.781
 40.670    470.284    496.139    -25.855    490.573    494.982    490.573    491.731    490.573
 40.770    489.000    496.086     -7.086    490.367    494.916    490.367    491.538    490.367
 40.870    507.453    496.058     11.394    490.163    494.875    490.163    491.348    490.163
 40.970    460.853    496.059    -35.206    489.961    494.862    489.961    491.160    489.961
 41.070    497.000    496.095      0.905    489.761    494.883    489.761    490.974    489.761
 41.170    503.000    496.173      6.827    489.562    494.946    489.562    490.791    489.562
 41.270    517.936    496.303     21.633    489.365    495.061    489.365    490.610    489.365
 41.370    485.000    496.499    -11.499    489.170    495.240    489.170    490.431    489.170
 41.470    507.000    496.779     10.221    488.977    495.504    488.977    490.254    488.977
 41.570    455.000    497.174    -42.174    488.786    495.882    488.786    490.080    488.786
 41.670    487.000    497.735    -10.735    488.597    496.426    488.597    489.909    488.597
 41.770    466.743    498.571    -31.827    488.409    497.243    488.409    489.740    488.409
 41.870    469.972    499.907    -29.935    488.224    498.561    488.224    489.573    488.224
 41.970    502.000    502.208     -0.208    488.040    500.844    488.040    489.409    488.040
 42.070    543.368    506.314     37.054    487.858    504.931    487.858    489.247    487.858
 42.170    519.308    513.498      5.810    487.678    512.098    487.678    489.088    487.678
 42.270    539.393    525.242     14.151    487.499    523.826    487.499    488.931    487.499
 42.370    547.000    542.571      4.429    487.323    541.140    487.323    488.777    487.323
 42.470    513.000    564.975    -51.975    487.148    563.534    487.148    488.626    487.148
 42.570    571.000    589.211    -18.211    486.976    587.760    486.976    488.477    486.976
 42.670    560.000    608.573    -48.573    486.805    607.110    486.805    488.331    486.805
 42.770    615.995    614.758      1.237    486.636    613.275    486.636    488.188    486.636
 42.870    647.055    604.296     42.758    486.469    602.783    486.469    488.048    486.469
 42.970    598.000    582.526     15.474    486.303    580.973    486.303    487.911    486.303
 43.070    541.000    557.967    -16.967    486.140    556.372    486.140    487.776    486.140
 43.170    526.000    536.489    -10.489    485.979    534.851    485.979    487.645    485.979
 43.270    511.000    520.486     -9.486    485.819    518.807    485.819    487.516    485.819
 43.370    495.000    509.923    -14.923    485.661    508.205    485.661    487.391    485.661
 43.470    508.000    503.547      4.453    485.505    501.792    485.505    487.269    485.505
 43.570    463.232    499.874    -36.641    485.351    498.080    485.351    487.150    485.351
 43.670    449.000    497.732    -48.732    485.199    495.901    485.199    487.034    485.199
 43.770    478.392    496.394    -18.002    485.049    494.524    485.049    486.922    485.049
 43.870    472.295    495.476    -23.180    484.900    493.565    484.900    486.813    484.900
 43.970    511.000    494.794     16.206    484.754    492.842    484.754    486.708    484.754
 44.070    491.000    494.265     -3.265    484.609    492.269    484.609    486.607    484.609
 44.170    535.027    493.843     41.184    484.466    491.802    484.466    486.509    484.466
 44.270    493.000    493.504     -0.504    484.325    491.415    484.325    486.416    484.325
 44.370    515.000    493.232     21.768    484.186    491.092    484.186    486.327    484.186
 44.470    528.000    493.013     34.987    484.049    490.821    484.049    486.241    484.049
 44.570    524.029    492.840     31.189    483.913    490.594    483.913    486.161    483.913
 44.670    475.000    492.706    -17.706    483.780    490.402    483.780    486.084    483.780
 44.770    458.830    492.607    -33.777    483.648    490.243    483.648    486.013    483.648
 44.870    482.000    492.539    -10.539    483.518    490.111    483.518    485.947    483.518
 44.970    493.000    492.500      0.500    483.390    490.005    483.390    485.886    483.390
 45.070    505.000    492.487     12.513    483.264    489.922    483.264    485.830    483.264
 45.170    509.000    492.501     16.499    483.140    489.861    483.140    485.780    483.140
 45.270    512.102    492.540     19.563    483.017    489.821    483.017    485.736    483.017
 45.370    494.000    492.604      1.396    482.897    489.802    482.897    485.699    482.897
 45.470    460.000    492.694    -32.694    482.778    489.804    482.778    485.668    482.778
 45.570    526.273    492.810     33.462    482.661    489.827    482.661    485.645    482.661
 45.670    486.000    492.955     -6.955    482.546    489.872    482.546    485.629    482.546
 45.770    465.665    493.129    -27.464    482.433    489.941    482.433    485.621    482.433
 45.870    515.082    493.335     21.748    482.321    490.034    482.321    485.623    482.321
 45.970    491.529    493.576     -2.047    482.212    490.155    482.212    485.633    482.212
 46.070    496.000    493.855      2.145    482.104    490.306    482.104    485.654    482.104
 46.170    519.927    494.178     25.749    481.998    490.491    481.998    485.686    481.998
 46.270    497.322    494.550      2.772    481.894    490.715    481.894    485.730    481.894
 46.370    477.295    494.979    -17.684    481.792    490.984    481.792    485.786    481.792
 46.470    465.733    495.474    -29.741    481.692    491.308    481.692    485.857    481.692
 46.570    533.000    496.048     36.952    481.593    491.697    481.593    485.944    481.593
 46.670    511.075    496.721     14.354    481.496    492.169    481.496    486.047    481.496
 46.770    497.000    497.525     -0.525    481.401    492.756    481.401    486.170    481.401
 46.870    527.000    498.523     28.477    481.308    493.516    481.308    486.313    481.308
 46.970    475.016    499.832    -24.817    481.217    494.567    481.217    486.480    481.217
 47.070    533.524    501.681     31.842    481.127    496.133    481.127    486.672    481.127
 47.170    522.000    504.464     17.536    481.039    498.605    481.039    486.894    481.039
 47.270    496.000    508.772    -12.772    480.953    502.572    480.953    487.147    480.953
 47.370    502.000    515.337    -13.337    480.869    508.759    480.869    487.436    480.869
 47.470    544.187    524.805     19.382    480.787    517.809    480.787    487.765    480.787
 47.570    562.000    537.353     24.647    480.706    529.895    480.706    488.138    480.706
 47.670    522.868    552.203    -29.336    480.627    544.234    480.627    488.561    480.627
 47.770    567.000    567.172     -0.172    480.550    558.639    480.550    489.039    480.550
 47.870    590.000    578.603     11.397    480.475    569.450    480.475    489.578    480.475
 47.970    577.000    582.640     -5.640    480.401    572.807    480.401    490.185    480.401
 48.070    577.000    578.074     -1.074    480.329    567.494    480.329    490.865    480.329
 48.170    576.000    567.599      8.401    480.259    556.197    480.259    491.626    480.259
 48.270    570.000    555.402     14.598    480.191    543.094    480.191    492.473    480.191
 48.370    569.000    544.638     24.362    480.124    531.332    480.124    493.413    480.124
 48.470    580.798    536.890     43.907    480.060    522.490    480.060    494.450    480.060
 48.570    551.000    532.518     18.482    479.996    516.924    479.996    495.585    479.996
 48.670    519.000    531.147    -12.147    479.935    514.264    479.935    496.816    479.935
 48.770    515.967    532.131    -16.163    479.875    513.869    479.875    498.136    479.875
 48.870    521.000    534.874    -13.874    479.817    515.161    479.817    499.530    479.817
 48.970    521.000    539.025    -18.025    479.761    517.814    479.761    500.973    479.761
 49.070    532.459    544.520    -12.061    479.707    521.800    479.707    502.428    479.707
 49.170    529.000    551.730    -22.730    479.654    527.542    479.654    503.843    479.654
 49.270    567.000    561.913      5.087    479.603    536.363    479.603    505.153    479.603
 49.370    579.000    578.311      0.689    479.553    551.580    479.553    506.284    479.553
 49.470    632.000    608.161     23.839    479.505    580.504    479.505    507.158    479.505
 49.570    633.000    665.218    -32.218    479.459    636.958    479.459    507.705    479.459
 49.670    779.222    770.871      8.350    479.415    742.374    479.415    507.879    479.415
 49.770    954.000    950.248      3.752    479.372    921.897    479.372    507.663    479.372
 49.870   1219.000   1220.326     -1.326    479.331   1192.489    479.331    507.075    479.331
 49.970   1574.000   1571.860      2.140    479.291   1544.868    479.291    506.166    479.291
 50.070   1972.251   1953.479     18.772    479.253   1927.610    479.253    505.005    479.253
 50.170   2231.430   2269.240    -37.810    479.217   2244.709    479.217    503.670    479.217
 50.270   2389.000   2405.668    -16.668    479.182   2382.622    479.182    502.235    479.182
 50.370   2334.000   2302.786     31.214    479.149   2281.278    479.149    500.765    479.149
 50.470   1967.000   2008.015    -41.015    479.118   1988.004    479.118    499.310    479.118
 50.570   1588.455   1632.078    -43.623    479.088   1613.464    479.088    497.906    479.088
 50.670   1236.951   1276.125    -39.174    479.060   1258.792    479.060    496.579    479.060
 50.770    959.000    998.635    -39.635    479.033    982.475    479.033    495.342    479.033
 50.870    766.112    814.148    -48.036    479.008    799.062    479.008    494.203    479.008
 50.970    722.029    707.600     14.429    478.985    693.499    478.985    493.163    478.985
 51.070    682.858    652.512     30.346    478.963    639.313    478.963    492.220    478.963
 51.170    640.000    624.305     15.695    478.943    611.924    478.943    491.371    478.943
 51.270    644.664    606.462     38.202    478.924    594.817    478.924    490.609    478.924
 51.370    547.237    591.205    -43.968    478.907    580.217    478.907    489.928    478.907
 51.470    609.580    576.692     32.889    478.891    566.287    478.891    489.323    478.891
 51.570    573.356    563.484      9.872    478.877    553.596    478.877    488.786    478.877
 51.670    547.000    552.429     -5.429    478.864    542.998    478.864    488.312    478.864
 51.770    551.074    543.959      7.116    478.853    534.930    478.853    487.894    478.853
 51.870    555.000    538.050     16.950    478.843    529.376    478.843    487.528    478.843
 51.970    543.000    534.403      8.597    478.835    526.039    478.835    487.208    478.835
 52.070    538.000    532.602      5.398    478.829    524.508    478.829    486.930    478.829
 52.170    566.175    532.299     33.876    478.824    524.440    478.824    486.689    478.824
 52.270    584.000    533.320     50.680    478.820    525.662    478.820    486.484    478.820
 52.370    505.161    535.755    -30.595    478.818    528.269    478.818    486.310    478.818
 52.470    559.000    540.086     18.914    478.817    532.744    478.817    486.164    478.817
 52.570    585.886    547.403     38.484    478.818    540.180    478.818    486.045    478.818
 52.670    571.000    559.710     11.290    478.820    552.585    478.820    485.951    478.820
 52.770    619.000    580.204     38.796    478.823    573.154    478.823    485.879    478.823
 52.870    640.000    613.250     26.750    478.828    606.256    478.828    485.828    478.828
 52.970    644.183    663.724    -19.541    478.835    656.769    478.835    485.797    478.835
 53.070    712.153    735.462    -23.309    478.842    728.529    478.842    485.785    478.842
 53.170    847.000    828.943     18.057    478.852    822.018    478.852    485.791    478.852
 53.270    906.742    938.670    -31.928    478.862    931.739    478.862    485.815    478.862
 53.370   1033.000   1050.758    -17.758    478.874   1043.808    478.874    485.855    478.874
 53.470   1119.000   1141.956    -22.956    478.887   1134.974    478.887    485.912    478.887
 53.570   1137.000   1184.844    -47.844    478.902   1177.816    478.902    485.985    478.902
 53.670   1214.000   1163.587     50.413    478.918   1156.494    478.918    486.074    478.918
 53.770   1110.000   1086.860     23.140    478.936   1079.681    478.936    486.179    478.936
 53.870    941.000    980.069    -39.069    478.954    972.783    478.954    486.300    478.954
 53.970    868.000    868.648     -0.648    478.974    861.235    478.974    486.438    478.974
 54.070    728.423    769.663    -41.240    478.996    762.106    478.996    486.592    478.996
 54.170    675.000    691.261    -16.261    479.018    683.546    479.018    486.763    479.018
 54.270    668.000    634.743     33.257    479.042    626.855    479.042    486.952    479.042
 54.370    610.000    597.168     12.832    479.067    589.091    479.067    487.159    479.067
 54.470    588.000    573.831     14.169    479.094    565.551    479.094    487.386    479.094
 54.570    604.000    560.102     43.898    479.121    551.601    479.121    487.632    479.121
 54.670    530.816    552.371    -21.555    479.150    543.631    479.150    487.899    479.150
 54.770    590.000    548.240     41.760    479.181    539.239    479.181    488.188    479.181
 54.870    504.916    546.306    -41.390    479.212    537.024    479.212    488.501    479.212
 54.970    583.862    545.834     38.028    479.245    536.245    479.245    488.839    479.245
 55.070    519.000    546.475    -27.475    479.279    536.555    479.279    489.205    479.279
 55.170    571.000    548.092     22.908    479.314    537.813    479.314    489.599    479.314
 55.270    614.000    550.668     63.332    479.350    540.000    479.350    490.025    479.350
 55.370    548.000    554.271     -6.271    479.387    543.180    479.387    490.485    479.387
 55.470    600.000    559.064     40.936    479.426    547.514    479.426    490.982    479.426
 55.570    609.430    565.370     44.060    479.466    553.323    479.466    491.520    479.466
 55.670    602.000    573.836     28.164    479.507    561.246    479.507    492.102    479.507
 55.770    606.000    585.761     20.239    479.549    572.580    479.549    492.735    479.549
 55.870    585.808    603.698    -17.890    479.592    589.872    479.592    493.421    479.592
 55.970    647.000    632.339     14.661    479.636    617.807    479.636    494.169    479.636
 56.070    652.133    679.519    -27.385    479.682    664.212    479.682    494.983    479.682
 56.170    728.000    756.773    -28.773    479.728    740.617    479.728    495.873    479.728
 56.270    847.000    878.501    -31.501    479.776    861.412    479.776    496.845    479.776
 56.370   1055.652   1058.759     -3.107    479.825   1040.649    479.825    497.911    479.825
 56.470   1324.045   1305.400     18.645    479.874   1286.175    479.874    499.081    479.874
 56.570   1599.952   1612.629    -12.677    479.925   1592.191    479.925    500.367    479.925
 56.670   1949.000   1954.078     -5.078    479.977   1932.323    479.977    501.781    479.977
 56.770   2323.000   2278.749     44.251    480.030   2255.561    480.030    503.339    480.030
 56.870   2441.000   2514.550    -73.550    480.084   2489.788    480.084    505.056    480.084
 56.970   2564.000   2590.737    -26.737    480.138   2564.222    480.138    506.950    480.138
 57.070   2414.000   2480.599    -66.599    480.194   2452.101    480.194    509.037    480.194
 57.170   2280.000   2223.435     56.565    480.251   2192.694    480.251    511.338    480.251
 57.270   1954.000   1894.280     59.720    480.309   1861.025    480.309    513.872    480.309
 57.370   1625.574   1562.233     63.341    480.368   1526.194    480.368    516.659    480.368
 57.470   1321.149   1272.922     48.227    480.428   1233.822    480.428    519.718    480.428
 57.570   1010.000   1047.772    -37.772    480.488   1005.328    480.488    523.068    480.488
 57.670    933.836    889.110     44.726    480.550    843.028    480.550    526.724    480.550
 57.770    841.000    787.501     53.499    480.613    737.479    480.613    530.696    480.613
 57.870    744.000    729.187     14.813    480.676    674.918    480.676    534.987    480.676
 57.970    731.000    701.614     29.386    480.740    642.795    480.740    539.588    480.740
 58.070    732.000    696.188     35.812    480.806    632.538    480.806    544.474    480.806
 58.170    668.516    708.631    -40.115    480.872    639.913    480.872    549.601    480.872
 58.270    724.000    737.837    -13.837    480.939    663.886    480.939    554.892    480.939
 58.370    732.000    784.081    -52.081    481.006    704.840    481.006    560.242    481.006
 58.470    861.000    847.160     13.840    481.075    762.719    481.075    565.503    481.075
 58.570    942.293    924.774     17.519    481.145    835.407    481.145    570.494    481.145
 58.670    984.000   1011.422    -27.422    481.215    917.620    481.215    574.999    481.215
 58.770   1097.000   1098.642     -1.642    481.286   1001.124    481.286    578.792    481.286
 58.870   1206.000   1177.429     28.571    481.358   1077.136    481.358    581.650    481.358
 58.970   1208.644   1240.492    -31.847    481.430   1138.544    481.430    583.390    481.430
 59.070   1293.000   1281.306     11.694    481.504   1178.941    481.504    583.895    481.504
 59.170   1357.000   1293.628     63.372    481.578   1192.110    481.578    583.135    481.578
 59.270   1380.000   1276.147    103.853    481.653   1176.676    481.653    581.171    481.653
 59.370   1178.996   1237.041    -58.045    481.729   1140.667    481.729    578.145    481.729
 59.470   1193.881   1190.846      3.036    481.805   1098.419    481.805    574.258    481.805
 59.570   1246.000   1152.155     93.845    481.882   1064.298    481.882    569.736    481.882
 59.670   1231.000   1133.066     97.934    481.960   1050.179    481.960    564.806    481.960
 59.770   1155.000   1143.305     11.695    482.038   1065.584    482.038    559.673    482.038
 59.870   1266.000   1188.705     77.295    482.117   1116.181    482.117    554.508    482.117
 59.970   1299.301   1267.435     31.867    482.197   1200.012    482.197    549.444    482.197
 60.070   1349.570   1367.014    -17.444    482.277   1304.506    482.277    544.575    482.277
 60.170   1447.000   1464.171    -17.171    482.358   1406.339    482.358    539.968    482.358
 60.270   1524.000   1528.530     -4.530    482.440   1475.100    482.440    535.659    482.440
 60.370   1463.000   1532.599    -69.599    482.522   1483.275    482.522    531.667    482.522
 60.470   1475.494   1466.519      8.976    482.605   1420.991    482.605    527.997    482.605
 60.570   1411.000   1344.324     66.676    482.689   1302.277    482.689    524.644    482.689
 60.670   1243.000   1193.626     49.374    482.773   1154.749    482.773    521.594    482.773
 60.770   1055.000   1041.411     13.589    482.857   1005.405    482.857    518.831    482.857
 60.870    948.614    906.978     41.636    482.942    873.567    482.942    516.337    482.942
 60.970    850.669    800.672     49.997    483.028    769.601    483.028    514.091    483.028
 61.070    723.000    725.271     -2.271    483.114    696.306    483.114    512.072    483.114
 61.170    688.000    678.772      9.228    483.201    651.703    483.201    510.261    483.201
 61.270    634.000    657.581    -23.581    483.288    632.217    483.288    508.636    483.288
 61.370    656.000    659.103     -3.103    483.376    635.275    483.376    507.178    483.376
 61.470    681.000    682.978     -1.978    483.464    660.533    483.464    505.869    483.464
 61.570    764.687    730.789     33.898    483.552    709.592    483.552    504.692    483.552
 61.670    777.000    804.491    -27.491    483.641    784.427    483.641    503.629    483.641
 61.770    907.521    903.965      3.555    483.731    884.933    483.731    502.665    483.731
 61.870    950.000   1024.455    -74.455    483.821   1006.372    483.821    501.787    483.821
 61.970   1086.000   1154.628    -68.628    483.911   1137.429    483.911    500.984    483.911
 62.070   1220.000   1275.829    -55.829    484.002   1259.462    484.002    500.245    484.002
 62.170   1309.000   1363.665    -54.665    484.093   1348.091    484.093    499.563    484.093
 62.270   1364.364   1394.798    -30.434    484.184   1379.977    484.184    498.931    484.184
 62.370   1331.000   1359.188    -28.188    484.276   1345.077    484.276    498.345    484.276
 62.470   1275.000   1267.161      7.839    484.368   1253.712    484.368    497.802    484.368
 62.570   1102.000   1142.127    -40.127    484.461   1129.292    484.461    497.298    484.461
 62.670    990.000   1008.318    -18.318    484.553    996.052    484.553    496.831    484.553
 62.770    858.000    884.077    -26.077    484.646    872.337    484.646    496.401    484.646
 62.870    716.000    780.269    -64.269    484.740    769.019    484.740    496.004    484.740
 62.970    696.469    700.913     -4.444    484.834    690.118    484.834    495.639    484.834
 63.070    621.822    644.887    -23.065    484.927    634.516    484.927    495.305    484.927
 63.170    575.000    608.127    -33.127    485.022    598.153    485.022    494.999    485.022
 63.270    637.000    585.699     51.301    485.116    576.095    485.116    494.720    485.116
 63.370    574.144    573.245      0.898    485.211    563.988    485.211    494.467    485.211
 63.470    609.000    567.712     41.288    485.306    558.777    485.306    494.237    485.306
 63.570    557.947    567.522     -9.576    485.401    558.888    485.401    494.029    485.401
 63.670    561.000    572.445    -11.445    485.496    564.089    485.496    493.842    485.496
 63.770    592.000    583.342      8.658    485.591    575.244    485.591    493.674    485.591
 63.870    618.000    601.831     16.169    485.687    593.971    485.687    493.525    485.687
 63.970    656.000    629.828     26.172    485.783    622.186    485.783    493.392    485.783
 64.070    615.000    668.923    -53.923    485.879    661.482    485.879    493.275    485.879
 64.170    742.000    719.613     22.387    485.975    712.357    485.975    493.172    485.975
 64.270    770.000    780.487    -10.487    486.071    773.401    486.071    493.083    486.071
 64.370    831.000    847.499    -16.499    486.167    840.574    486.167    493.007    486.167
 64.470    886.525    913.533    -27.007    486.264    906.760    486.264    492.943    486.264
 64.570    937.000    968.770    -31.770    486.360    962.147    486.360    492.890    486.360
 64.670   1026.000   1002.991     23.009    486.456    996.514    486.456    492.848    486.456
 64.770    951.000   1009.758    -58.758    486.553   1003.425    486.553    492.816    486.553
 64.870   1017.191    989.327     27.864    486.650    983.133    486.650    492.793    486.650
 64.970    903.355    947.656    -44.301    486.746    941.594    486.746    492.779    486.746
 65.070    943.920    893.449     50.471    486.843    887.511    486.843    492.773    486.843
 65.170    815.000    835.400    -20.400    486.939    829.573    486.939    492.776    486.939
 65.270    787.000    780.165      6.835    487.036    774.438    487.036    492.786    487.036
 65.370    714.000    731.491    -17.491    487.133    725.852    487.133    492.803    487.133
 65.470    670.000    690.564    -20.564    487.229    685.001    487.229    492.827    487.229
 65.570    629.231    657.093    -27.861    487.326    651.595    487.326    492.858    487.326
 65.670    573.000    630.309    -57.309    487.422    624.867    487.422    492.895    487.422
 65.770    584.000    609.366    -25.366    487.518    603.972    487.518    492.939    487.518
 65.870    549.000    593.387    -44.387    487.615    588.034    487.615    492.988    487.615
 65.970    548.000    581.523    -33.523    487.711    576.205    487.711    493.044    487.711
 66.070    588.000    573.040     14.960    487.807    567.754    487.807    493.105    487.807
 66.170    587.050    567.363     19.687    487.903    562.103    487.903    493.171    487.903
 66.270    545.703    564.064    -18.362    487.998    558.826    487.998    493.244    487.998
 66.370    554.000    562.841     -8.841    488.094    557.620    488.094    493.321    488.094
 66.470    557.000    563.510     -6.510    488.189    558.302    488.189    493.404    488.189
 66.570    543.000    566.057    -23.057    488.285    560.856    488.285    493.493    488.285
 66.670    563.000    570.731     -7.731    488.380    565.532    488.380    493.586    488.380
 66.770    549.000    578.218    -29.218    488.475    573.016    488.475    493.686    488.475
 66.870    552.000    589.884    -37.884    488.569    584.673    488.569    493.790    488.569
 66.970    588.195    608.099    -19.904    488.664    602.873    488.664    493.900    488.664
 67.070    643.363    636.579      6.783    488.758    631.332    488.758    494.016    488.758
 67.170    651.602    680.617    -29.015    488.852    675.344    488.852    494.137    488.852
 67.270    728.000    746.967    -18.967    488.945    741.663    488.945    494.265    488.945
 67.370    877.851    843.145     34.706    489.039    837.806    489.039    494.398    489.039
 67.470    948.000    975.951    -27.951    489.132    970.576    489.132    494.537    489.132
 67.570   1154.000   1149.272      4.728    489.225   1143.860    489.225    494.683    489.225
 67.670   1309.000   1361.501    -52.501    489.317   1356.055    489.317    494.836    489.317
 67.770   1580.751   1603.136    -22.384    489.409   1597.660    489.409    494.995    489.409
 67.870   1802.000   1855.078    -53.078    489.501   1849.578    489.501    495.162    489.501
 67.970   2111.000   2088.198     22.802    489.592   2082.677    489.592    495.336    489.592
 68.070   2219.605   2265.734    -46.129    489.683   2260.190    489.683    495.519    489.683
 68.170   2363.000   2351.811     11.189    489.774   2346.234    489.774    495.710    489.774
 68.270   2297.282   2326.248    -28.966    489.864   2320.611    489.864    495.910    489.864
 68.370   2144.966   2195.556    -50.590    489.954   2189.821    489.954    496.120    489.954
 68.470   1908.032   1988.960    -80.928    490.044   1983.083    490.044    496.340    490.044
 68.570   1738.241   1744.032     -5.791    490.133   1737.975    490.133    496.572    490.133
 68.670   1533.921   1494.537     39.384    490.221   1488.271    490.221    496.815    490.221
 68.770   1286.000   1265.122     20.878    490.309   1258.627    490.309    497.071    490.309
 68.870   1101.076   1070.417     30.659    490.397   1063.680    490.397    497.341    490.397
 68.970    875.000    916.113    -41.113    490.484    909.126    490.484    497.626    490.484
 69.070    822.002    801.037     20.965    490.571    793.791    490.571    497.928    490.571
 69.170    674.861    719.699    -44.838    490.657    712.188    490.657    498.248    490.657
 69.270    680.507    664.765     15.742    490.743    656.976    490.743    498.587    490.743
 69.370    675.026    628.935     46.091    490.828    620.853    490.828    498.949    490.828
 69.470    572.000    606.059    -34.059    490.912    597.665    490.912    499.335    490.912
 69.570    641.000    591.536     49.464    490.996    582.806    490.996    499.748    490.996
 69.670    553.000    582.234    -29.234    491.080    573.140    491.080    500.191    491.080
 69.770    536.671    576.190    -39.518    491.163    566.698    491.163    500.669    491.163
 69.870    584.299    572.248     12.051    491.245    562.321    491.245    501.184    491.245
 69.970    557.017    569.771    -12.754    491.327    559.365    491.327    501.743    491.327
 70.070    611.000    568.427     42.573    491.408    557.493    491.408    502.351    491.408
 70.170    605.129    568.065     37.064    491.488    556.546    491.488    503.015    491.488
 70.270    571.000    568.654      2.346    491.568    556.486    491.568    503.742    491.568
 70.370    579.000    570.271      8.729    491.647    557.382    491.647    504.542    491.647
 70.470    538.156    573.126    -34.970    491.726    559.432    491.726    505.424    491.726
 70.570    577.000    577.635     -0.635    491.804    563.042    491.804    506.401    491.804
 70.670    572.000    584.529    -12.529    491.881    568.928    491.881    507.483    491.881
 70.770    575.000    595.010    -20.010    491.957    578.279    491.957    508.687    491.957
 70.870    582.000    610.930    -28.930    492.033    592.930    492.033    510.027    492.033
 70.970    629.183    634.938     -5.755    492.108    615.514    492.108    511.521    492.108
 71.070    619.000    670.525    -51.525    492.182    649.502    492.182    513.187    492.182
 71.170    688.000    721.845    -33.845    492.256    699.029    492.256    515.043    492.256
 71.270    829.000    793.214     35.786    492.329    768.391    492.329    517.109    492.329
 71.370    874.000    888.245    -14.245    492.401    861.182    492.401    519.405    492.401
 71.470   1060.060   1008.673     51.387    492.472    979.119    492.472    521.950    492.472
 71.570   1099.000   1153.059    -54.059    492.543   1120.749    492.543    524.760    492.543
 71.670   1314.000   1315.620     -1.620    492.612   1280.277    492.612    527.849    492.612
 71.770   1496.000   1485.412     10.588    492.681   1446.754    492.681    531.227    492.681
 71.870   1581.000   1646.103    -65.103    492.749   1603.849    492.749    534.895    492.749
 71.970   1769.190   1776.995     -7.805    492.817   1730.875    492.817    538.843    492.817
 72.070   1881.040   1856.660     24.380    492.883   1806.430    492.883    543.047    492.883
 72.170   1841.000   1869.862    -28.862    492.948   1815.318    492.948    547.461    492.948
 72.270   1819.000   1814.511      4.489    493.013   1755.513    493.013    552.013    493.013
 72.370   1736.000   1702.769     33.231    493.077   1639.276    493.077    556.599    493.077
 72.470   1566.000   1555.119     10.881    493.140   1487.230    493.140    561.076    493.140
 72.570   1448.000   1392.801     55.199    493.202   1320.796    493.202    565.264    493.202
 72.670   1315.000   1233.236     81.764    493.263   1157.605    493.263    568.953    493.263
 72.770   1108.000   1088.521     19.479    493.323   1009.977    493.323    571.922    493.323
 72.870    927.098    965.482    -38.383    493.382    884.947    493.382    573.967    493.382
 72.970    860.000    866.413     -6.414    493.441    784.965    493.441    574.931    493.441
 73.070    809.000    790.212     18.788    493.498    709.005    493.498    574.741    493.498
 73.170    746.460    733.677     12.783    493.554    653.845    493.554    573.415    493.554
 73.270    690.000    692.726     -2.726    493.610    615.295    493.610    571.066    493.610
 73.370    667.000    663.335      3.665    493.664    589.147    493.664    567.873    493.664
 73.470    647.000    642.089      4.911    493.718    571.774    493.718    564.052    493.718
 73.570    604.000    626.411    -22.411    493.770    560.377    493.770    559.822    493.770
 73.670    614.000    614.530     -0.530    493.821    552.987    493.821    555.382    493.821
 73.770    652.000    605.332     46.668    493.872    548.328    493.872    550.895    493.872
 73.870    569.009    598.167    -29.157    493.921    545.619    493.921    546.489    493.921
 73.970    600.000    592.661      7.339    493.969    544.399    493.969    542.254    493.969
 74.070    586.000    588.576     -2.576    494.017    544.369    494.017    538.250    494.017
 74.170    583.595    585.706     -2.112    494.063    545.286    494.063    534.514    494.063
 74.270    567.000    583.809    -16.809    494.108    546.889    494.108    531.064    494.108
 74.370    597.000    582.566     14.434    494.152    548.856    494.152    527.903    494.152
 74.470    627.366    581.573     45.793    494.195    550.787    494.195    525.026    494.195
 74.570    569.000    580.359    -11.359    494.236    552.222    494.236    522.424    494.236
 74.670    603.000    578.466     24.534    494.277    552.716    494.277    520.080    494.277
 74.770    638.000    575.600     62.400    494.317    551.993    494.317    517.976    494.317
 74.870    524.662    571.739    -47.077    494.355    550.051    494.355    516.093    494.355
 74.970    632.000    567.158     64.842    494.392    547.184    494.392    514.412    494.392
 75.070    591.000    562.324     28.676    494.428    543.879    494.428    512.913    494.428
 75.170    594.000    557.762     36.238    494.463    540.682    494.463    511.577    494.463
 75.270    525.702    553.996    -28.294    494.497    538.133    494.497    510.387    494.497
 75.370    533.428    551.527    -18.099    494.530    536.750    494.530    509.326    494.530
 75.470    561.607    550.848     10.759    494.561    537.043    494.561    508.379    494.561
 75.570    571.036    552.447     18.589    494.591    539.513    494.591    507.532    494.591
 75.670    513.000    556.796    -43.796    494.620    544.643    494.620    506.774    494.620
 75.770    594.000    564.306     29.694    494.648    552.855    494.648    506.093    494.648
 75.870    597.000    575.255     21.745    494.675    564.437    494.675    505.479    494.675
 75.970    569.000    589.684    -20.684    494.700    579.439    494.700    504.925    494.700
 76.070    633.637    607.290     26.347    494.724    597.564    494.724    504.422    494.724
 76.170    637.000    627.316      9.684    494.747    618.062    494.747    503.965    494.747
 76.270    660.000    648.483     11.517    494.768    639.661    494.768    503.549    494.768
 76.370    696.959    668.961     27.998    494.788    660.534    494.788    503.167    494.788
 76.470    686.000    686.428     -0.428    494.807    678.367    494.807    502.816    494.807
 76.570    678.000    698.344    -20.344    494.825    690.622    494.825    502.493    494.825
 76.670    740.000    702.571     37.429    494.841    695.167    494.841    502.195    494.841
 76.770    708.000    698.191      9.809    494.856    691.083    494.856    501.919    494.856
 76.870    690.000    685.929      4.071    494.870    679.098    494.870    501.662    494.870
 76.970    630.000    667.801    -37.801    494.882    661.229    494.882    501.423    494.882
 77.070    614.885    646.310    -31.425    494.894    639.979    494.894    501.200    494.894
 77.170    641.000    623.785     17.215    494.903    617.679    494.903    500.992    494.903
 77.270    612.000    602.079      9.921    494.912    596.182    494.912    500.796    494.912
 77.370    625.601    582.477     43.124    494.919    576.776    494.919    500.612    494.919
 77.470    592.385    565.720     26.665    494.924    560.200    494.924    500.439    494.924
 77.570    528.243    552.072    -23.829    494.929    546.722    494.929    500.276    494.929
 77.670    487.000    541.428    -54.428    494.931    536.236    494.931    500.122    494.931
 77.770    517.000    533.439    -16.439    494.933    528.395    494.933    499.976    494.933
 77.870    560.926    527.632     33.293    494.933    522.728    494.933    499.837    494.933
 77.970    552.000    523.515     28.485    494.932    518.741    494.932    499.706    494.932
 78.070    552.582    520.640     31.942    494.929    515.988    494.929    499.581    494.929
 78.170    506.000    518.641    -12.641    494.925    514.104    494.925    499.462    494.925
 78.270    474.000    517.241    -43.241    494.919    512.813    494.919    499.348    494.919
 78.370    495.034    516.248    -21.214    494.912    511.922    494.912    499.239    494.912
 78.470    548.000    515.534     32.466    494.904    511.304    494.904    499.134    494.904
 78.570    496.650    515.023    -18.373    494.894    510.883    494.894    499.034    494.894
 78.670    509.000    514.671     -5.671    494.883    510.616    494.883    498.938    494.883
 78.770    506.000    514.460     -8.460    494.870    510.485    494.870    498.845    494.870
 78.870    543.000    514.388     28.612    494.855    510.488    494.855    498.756    494.855
 78.970    507.463    514.464     -7.001    494.840    510.634    494.840    498.670    494.840
 79.070    492.000    514.704    -22.704    494.822    510.940    494.822    498.587    494.822
 79.170    501.000    515.130    -14.130    494.804    511.428    494.804    498.506    494.804
 79.270    474.464    515.770    -41.306    494.783    512.125    494.783    498.428    494.783
 79.370    486.000    516.655    -30.655    494.762    513.064    494.762    498.352    494.762
 79.470    469.000    517.824    -48.824    494.739    514.284    494.739    498.278    494.739
 79.570    490.102    519.331    -29.229    494.714    515.837    494.714    498.206    494.714
 79.670    543.000    521.246     21.754    494.687    517.796    494.687    498.136    494.687
 79.770    482.005    523.675    -41.670    494.660    520.266    494.660    498.067    494.660
 79.870    568.150    526.763     41.387    494.630    523.392    494.630    497.999    494.630
 79.970    549.000    530.704     18.296    494.599    527.369    494.599    497.932    494.599
 80.070    552.210    535.722     16.488    494.567    532.422    494.567    497.866    494.567
 80.170    527.000    542.221    -15.221    494.533    538.953    494.533    497.800    494.533
 80.270    539.704    550.558    -10.853    494.498    547.322    494.498    497.733    494.498
 80.370    562.312    561.129      1.183    494.460    557.925    494.460    497.667    494.460
 80.470    536.000    574.270    -38.270    494.422    571.097    494.422    497.599    494.422
 80.570    566.909    590.146    -23.236    494.382    587.005    494.382    497.531    494.382
 80.670    599.000    608.657     -9.657    494.340    605.548    494.340    497.460    494.340
 80.770    659.258    629.365     29.893    494.296    626.290    494.296    497.388    494.296
 80.870    615.445    651.467    -36.022    494.251    648.427    494.251    497.315    494.251
 80.970    681.000    673.829      7.171    494.205    670.825    494.205    497.239    494.205
 81.070    733.529    695.116     38.413    494.157    692.148    494.157    497.161    494.157
 81.170    620.000    713.984    -93.984    494.107    711.054    494.107    497.081    494.107
 81.270    686.690    729.261    -42.571    494.055    726.368    494.055    496.999    494.055
 81.370    744.000    740.037      3.963    494.002    737.182    494.002    496.916    494.002
 81.470    752.000    745.742      6.258    493.948    742.923    493.948    496.832    493.948
 81.570    744.223    746.187     -1.964    493.892    743.403    493.892    496.746    493.892
 81.670    746.000    741.555      4.445    493.834    738.804    493.834    496.660    493.834
 81.770    737.000    732.323      4.677    493.774    729.603    493.774    496.573    493.774
 81.870    720.000    719.231      0.769    493.713    716.538    493.713    496.485    493.713
 81.970    713.000    703.271      9.729    493.650    700.603    493.650    496.397    493.650
 82.070    702.000    685.594     16.406    493.586    682.948    493.586    496.308    493.586
 82.170    660.000    667.292     -7.292    493.520    664.665    493.520    496.219    493.520
 82.270    678.870    649.194     29.676    493.452    646.584    493.452    496.130    493.452
 82.370    657.000    631.807     25.193    493.383    629.212    493.383    496.041    493.383
 82.470    623.435    615.400      8.034    493.312    612.819    493.312    495.951    493.312
 82.570    607.000    600.159      6.841    493.239    597.589    493.239    495.861    493.239
 82.670    630.000    586.289     43.711    493.165    583.728    493.165    495.771    493.165
 82.770    529.000    574.033    -45.033    493.089    571.479    493.089    495.680    493.089
 82.870    566.890    563.622      3.268    493.011    561.074    493.011    495.589    493.011
 82.970    552.000    555.242     -3.242    492.932    552.697    492.932    495.498    492.932
 83.070    529.000    549.011    -20.011    492.851    546.469    492.851    495.406    492.851
 83.170    548.000    544.973      3.027    492.768    542.433    492.768    495.314    492.768
 83.270    526.000    543.091    -17.091    492.684    540.551    492.684    495.221    492.684
 83.370    585.829    543.227     42.602    492.598    540.687    492.598    495.127    492.598
 83.470    506.266    545.140    -38.873    492.510    542.598    492.510    495.033    492.510
 83.570    542.000    548.473     -6.473    492.421    545.928    492.421    494.939    492.421
 83.670    525.535    552.761    -27.227    492.330    550.214    492.330    494.843    492.330
 83.770    555.000    557.443     -2.443    492.237    554.893    492.237    494.747    492.237
 83.870    547.000    561.883    -14.883    492.142    559.330    492.142    494.651    492.142
 83.970    538.000    565.416    -27.416    492.046    562.862    492.046    494.553    492.046
 84.070    563.790    567.439     -3.649    491.948    564.884    491.948    494.455    491.948
 84.170    557.644    567.526     -9.882    491.849    564.971    491.849    494.356    491.849
 84.270    532.000    565.545    -33.545    491.747    562.991    491.747    494.256    491.747
 84.370    554.000    561.686     -7.686    491.644    559.134    491.644    494.156    491.644
 84.470    520.000    556.379    -36.379    491.540    553.828    491.540    494.054    491.540
 84.570    534.000    550.163    -16.163    491.433    547.613    491.433    493.952    491.433
 84.670    569.000    543.569     25.431    491.325    541.020    491.325    493.849    491.325
 84.770    552.000    537.060     14.940    491.216    534.509    491.216    493.745    491.216
 84.870    552.000    530.991     21.009    491.104    528.438    491.104    493.640    491.104
 84.970    550.000    525.608     24.392    490.991    523.051    490.991    493.535    490.991
 85.070    518.000    521.048     -3.048    490.876    518.486    490.876    493.428    490.876
 85.170    499.500    517.353    -17.853    490.759    514.784    490.759    493.321    490.759
 85.270    470.000    514.495    -44.495    490.641    511.916    490.641    493.213    490.641
 85.370    494.231    512.396    -18.165    490.521    509.807    490.521    493.104    490.521
 85.470    497.000    510.960    -13.960    490.399    508.360    490.399    492.994    490.399
 85.570    528.000    510.091     17.909    490.276    507.478    490.276    492.883    490.276
 85.670    512.621    509.709      2.913    490.151    507.082    490.151    492.772    490.151
 85.770    481.285    509.764    -28.480    490.024    507.123    490.024    492.660    490.024
 85.870    468.700    510.243    -41.543    489.895    507.585    489.895    492.546    489.895
 85.970    516.000    511.168      4.832    489.765    508.492    489.765    492.433    489.765
 86.070    495.458    512.602    -17.144    489.633    509.907    489.633    492.318    489.633
 86.170    524.000    514.641      9.359    489.499    511.924    489.499    492.203    489.499
 86.270    501.000    517.407    -16.407    489.364    514.667    489.364    492.087    489.364
 86.370    507.972    521.038    -13.066    489.227    518.274    489.227    491.970    489.227
 86.470    540.574    525.672     14.902    489.088    522.880    489.088    491.853    489.088
 86.570    566.000    531.423     34.577    488.948    528.602    488.948    491.735    488.948
 86.670    546.000    538.358      7.642    488.806    535.506    488.806    491.617    488.806
 86.770    538.533    546.470     -7.936    488.662    543.584    488.662    491.498    488.662
 86.870    610.000    555.642     54.358    488.516    552.721    488.516    491.379    488.516
 86.970    565.000    565.635     -0.635    488.369    562.676    488.369    491.259    488.369
 87.070    592.000    576.059     15.941    488.220    573.061    488.220    491.139    488.220
 87.170    584.012    586.378     -2.366    488.069    583.342    488.069    491.019    488.069
 87.270    593.000    595.917     -2.917    487.917    592.841    487.917    490.898    487.917
 87.370    634.588    603.903     30.685    487.763    600.789    487.763    490.777    487.763
 87.470    569.969    609.570    -39.601    487.607    606.420    487.607    490.656    487.607
 87.570    617.000    612.324      4.676    487.450    609.138    487.450    490.535    487.450
 87.670    646.000    611.913     34.087    487.291    608.694    487.291    490.414    487.291
 87.770    593.962    608.515    -14.554    487.130    605.265    487.130    490.293    487.130
 87.870    651.000    602.678     48.322    486.968    599.397    486.968    490.172    486.968
 87.970    642.000    595.166     46.834    486.804    591.852    486.804    490.052    486.804
 88.070    614.943    586.814     28.129    486.638    583.466    486.638    489.932    486.638
 88.170    620.000    578.434     41.566    486.471    575.050    486.471    489.813    486.471
 88.270    627.000    570.749     56.251    486.302    567.326    486.302    489.694    486.302
 88.370    526.000    564.357    -38.357    486.131    560.891    486.131    489.576    486.131
 88.470    571.000    559.701     11.299    485.959    556.190    485.959    489.460    485.959
 88.570    599.000    557.053     41.947    485.785    553.492    485.785    489.344    485.785
 88.670    540.000    556.505    -16.505    485.609    552.891    485.609    489.230    485.609
 88.770    601.000    557.973     43.027    485.432    554.303    485.432    489.118    485.432
 88.870    568.000    561.214      6.786    485.253    557.483    485.253    489.007    485.253
 88.970    556.000    565.834     -9.834    485.072    562.039    485.072    488.899    485.072
 89.070    534.745    571.315    -36.571    484.890    567.452    484.890    488.793    484.890
 89.170    588.000    577.038     10.962    484.707    573.102    484.707    488.690    484.707
 89.270    614.408    582.316     32.092    484.521    578.301    484.521    488.590    484.521
 89.370    626.000    586.453     39.547    484.334    582.353    484.334    488.494    484.334
 89.470    551.009    588.828    -37.819    484.146    584.637    484.146    488.402    484.146
 89.570    617.051    589.014     28.038    483.955    584.723    483.955    488.314    483.955
 89.670    585.000    586.871     -1.871    483.764    582.472    483.764    488.231    483.764
 89.770    627.711    582.571     45.140    483.570    578.055    483.570    488.154    483.570
 89.870    611.640    576.532     35.108    483.375    571.889    483.375    488.082    483.375
 89.970    545.639    569.296    -23.657    483.179    564.516    483.179    488.018    483.179
 90.070    529.000    561.425    -32.425    482.981    556.497    482.981    487.960    482.981
 90.170    597.201    553.428     43.774    482.781    548.343    482.781    487.911    482.781
 90.270    586.002    545.726     40.275    482.580    540.474    482.580    487.871    482.580
 90.370    515.000    538.643    -23.643    482.377    533.212    482.377    487.840    482.377
 90.470    516.638    532.393    -15.755    482.173    526.773    482.173    487.819    482.173
 90.570    558.366    527.098     31.268    481.967    521.276    481.967    487.810    481.967
 90.670    503.403    522.793    -19.391    481.760    516.757    481.760    487.813    481.760
 90.770    531.000    519.450     11.550    481.551    513.185    481.551    487.829    481.551
 90.870    517.312    516.995      0.317    481.341    510.487    481.341    487.858    481.341
 90.970    547.986    515.336     32.651    481.129    508.568    481.129    487.903    481.129
 91.070    513.000    514.374     -1.374    480.916    507.332    480.916    487.963    480.916
 91.170    553.330    514.029     39.301    480.701    506.693    480.701    488.040    480.701
 91.270    523.200    514.244      8.956    480.485    506.596    480.485    488.134    480.485
 91.370    502.000    514.997    -12.997    480.267    507.017    480.267    488.247    480.267
 91.470    529.000    516.305     12.695    480.048    507.974    480.048    488.378    480.048
 91.570    481.888    518.226    -36.338    479.827    509.522    479.827    488.529    479.827
 91.670    536.000    520.842     15.158    479.605    511.744    479.605    488.699    479.605
 91.770    521.000    524.322     -3.322    479.381    514.807    479.381    488.890    479.381
 91.870    540.000    528.824     11.176    479.156    518.871    479.156    489.101    479.156
 91.970    535.533    534.528      1.005    478.930    524.115    478.930    489.331    478.930
 92.070    555.000    541.624     13.376    478.702    530.731    478.702    489.580    478.702
 92.170    559.000    550.291      8.709    478.473    538.899    478.473    489.847    478.473
 92.270    537.000    560.674    -23.674    478.242    548.765    478.242    490.128    478.242
 92.370    563.000    572.862     -9.862    478.010    560.423    478.010    490.422    478.010
 92.470    578.000    586.867     -8.867    477.777    573.887    477.777    490.724    477.777
 92.570    585.000    602.605    -17.605    477.542    589.079    477.542    491.029    477.542
 92.670    609.000    619.879    -10.879    477.306    605.808    477.306    491.332    477.306
 92.770    669.000    638.366     30.634    477.068    623.759    477.068    491.626    477.068
 92.870    627.000    657.618    -30.618    476.830    642.490    476.830    491.902    476.830
 92.970    627.675    677.069    -49.394    476.590    661.448    476.590    492.151    476.590
 93.070    675.646    696.085    -20.439    476.348    680.007    476.348    492.364    476.348
 93.170    744.000    714.044     29.956    476.106    697.556    476.106    492.530    476.106
 93.270    686.777    730.461    -43.684    475.862    713.619    475.862    492.639    475.862
 93.370    787.937    745.084     42.853    475.616    727.953    475.616    492.684    475.616
 93.470    790.000    757.933     32.067    475.370    740.585    475.370    492.655    475.370
 93.570    806.000    769.225     36.775    475.122    751.737    475.122    492.550    475.122
 93.670    795.024    779.270     15.754    474.873    761.721    474.873    492.364    474.873
 93.770    826.000    788.355     37.645    474.623    770.824    474.623    492.098    474.623
 93.870    803.929    796.715      7.214    474.372    779.278    474.372    491.756    474.372
 93.970    773.000    804.584    -31.584    474.119    787.311    474.119    491.342    474.119
 94.070    841.368    812.244     29.124    473.865    795.197    473.865    490.865    473.865
 94.170    869.826    820.029     49.797    473.610    803.261    473.610    490.334    473.610
 94.270    832.000    828.234      3.766    473.354    811.788    473.354    489.760    473.354
 94.370    870.000    836.970     33.030    473.097    820.879    473.097    489.151    473.097
 94.470    818.568    846.026    -27.457    472.838    830.313    472.838    488.518    472.838
 94.570    908.000    854.802     53.198    472.579    839.481    472.579    487.871    472.579
 94.670    907.000    862.480     44.520    472.318    847.557    472.318    487.218    472.318
 94.770    907.000    867.849     39.151    472.056    853.322    472.056    486.566    472.056
 94.870    915.000    869.658     45.342    471.793    855.520    471.793    485.922    471.793
 94.970    938.000    866.824     71.176    471.530    853.063    471.530    485.289    471.530
 95.070    841.000    858.692    -17.692    471.265    845.289    471.265    484.673    471.265
 95.170    906.000    845.231     60.769    470.999    832.166    470.999    484.076    470.999
 95.270    841.000    827.078     13.922    470.732    814.327    470.732    483.501    470.732
 95.370    849.000    805.410     43.590    470.464    792.946    470.464    482.950    470.464
 95.470    810.000    781.770     28.230    470.195    769.565    470.195    482.423    470.195
 95.570    772.000    757.826     14.174    469.925    745.852    469.925    481.923    469.925
 95.670    763.000    735.253     27.747    469.654    723.481    469.654    481.448    469.654
 95.770    678.653    715.651    -36.998    469.382    704.052    469.382    481.000    469.382
 95.870    711.000    700.487     10.513    469.109    689.033    469.109    480.579    469.109
 95.970    724.000    691.070     32.930    468.835    679.731    468.835    480.185    468.835
 96.070    677.103    688.530    -11.427    468.561    677.277    468.561    479.818    468.561
 96.170    668.000    693.804    -25.804    468.285    682.609    468.285    479.477    468.285
 96.270    750.973    707.627     43.347    468.009    696.463    468.009    479.163    468.009
 96.370    737.000    730.510      6.490    467.731    719.349    467.731    478.876    467.731
 96.470    731.000    762.710    -31.710    467.453    751.524    467.453    478.616    467.453
 96.570    773.109    804.182    -31.073    467.175    792.943    467.175    478.383    467.175
 96.670    821.223    854.520    -33.297    466.895    843.202    466.895    478.178    466.895
 96.770    902.350    912.891    -10.541    466.614    901.465    466.614    478.001    466.614
 96.870    935.000    977.971    -42.971    466.333    966.412    466.333    477.852    466.333
 96.970   1048.000   1047.906      0.094    466.051   1036.184    466.051    477.733    466.051
 97.070   1103.000   1120.277    -17.277    465.769   1108.365    465.769    477.644    465.769
 97.170   1240.890   1192.120     48.770    465.485   1179.989    465.485    477.586    465.485
 97.270   1319.305   1259.975     59.329    465.201   1247.595    465.201    477.560    465.201
 97.370   1322.000   1320.039      1.961    464.917   1307.378    464.917    477.569    464.917
 97.470   1332.341   1368.456    -36.115    464.631   1355.482    464.631    477.613    464.631
 97.570   1401.821   1401.788      0.033    464.345   1388.465    464.345    477.695    464.345
 97.670   1475.000   1417.593     57.407    464.059   1403.881    464.059    477.817    464.059
 97.770   1383.000   1414.918    -31.918    463.771   1400.775    463.771    477.980    463.771
 97.870   1363.000   1394.484    -31.484    463.484   1379.861    463.484    478.188    463.484
 97.970   1292.000   1358.468    -66.468    463.195   1343.315    463.195    478.443    463.195
 98.070   1297.543   1310.032    -12.489    462.906   1294.294    462.906    478.747    462.906
 98.170   1209.611   1252.806    -43.195    462.617   1236.426    462.617    479.105    462.617
 98.270   1240.861   1190.494     50.367    462.327   1173.413    462.327    479.517    462.327
 98.370   1092.000   1126.623    -34.623    462.037   1108.778    462.037    479.989    462.037
 98.470   1012.000   1064.446    -52.446    461.746   1045.771    461.746    480.522    461.746
 98.570    989.000   1006.775    -17.775    461.455    987.202    461.455    481.121    461.455
 98.670    913.000    956.021    -43.021    461.163    935.481    461.163    481.787    461.163
 98.770    916.146    914.183      1.964    460.871    892.602    460.871    482.525    460.871
 98.870    849.000    882.858    -33.858    460.579    860.164    460.579    483.338    460.579
 98.970    906.387    863.277     43.110    460.286    839.391    460.286    484.226    460.286
 99.070    905.498    856.326     49.172    459.993    831.170    459.993    485.195    459.993
 99.170    888.000    862.587     25.413    459.700    836.082    459.700    486.244    459.700
 99.270    856.000    882.358    -26.358    459.406    854.423    459.406    487.375    459.406
 99.370    958.000    915.662     42.338    459.112    886.216    459.112    488.589    459.112
 99.470    984.773    962.239     22.534    458.818    931.201    458.818    489.886    458.818
 99.570   1019.000   1021.512     -2.512    458.524    988.805    458.524    491.263    458.524
 99.670   1032.933   1092.546    -59.612    458.229   1058.095    458.229    492.719    458.229
 99.770   1148.000   1173.992    -25.992    457.935   1137.727    457.935    494.247    457.935
 99.870   1263.000   1264.038     -1.038    457.640   1225.897    457.640    495.841    457.640
 99.970   1427.882   1360.362     67.520    457.345   1320.292    457.345    497.492    457.345
100.070   1540.000   1460.124     79.876    457.050   1418.084    457.050    499.187    457.050
100.170   1502.791   1560.008    -57.217    456.755   1515.974    456.755    500.910    456.755
100.270   1604.000   1656.362    -52.362    456.460   1610.329    456.460    502.641    456.460
100.370   1747.000   1745.451      1.549    456.165   1697.437    456.165    504.357    456.165
100.470   1970.000   1823.786    146.214    455.870   1773.836    455.870    506.029    455.870
100.570   1902.000   1888.436     13.564    455.575   1836.624    455.575    507.626    455.575
100.670   2016.000   1937.187     78.813    455.280   1883.622    455.280    509.113    455.280
100.770   1936.000   1968.517    -32.517    454.985   1913.345    454.985    510.451    454.985
100.870   1984.000   1981.494      2.506    454.690   1924.897    454.690    511.603    454.690
100.970   1928.000   1975.742    -47.742    454.395   1917.937    454.395    512.532    454.395
101.070   1951.000   1951.579     -0.579    454.101   1892.820    454.101    513.202    454.101
101.170   1962.555   1910.265     52.290    453.806   1850.832    453.806    513.587    453.806
101.270   1880.000   1854.152     25.848    453.512   1794.344    453.512    513.665    453.512
101.370   1825.000   1786.594     38.406    453.218   1726.725    453.218    513.425    453.218
101.470   1658.000   1711.593    -53.593    452.925   1651.976    452.925    512.867    452.925
101.570   1643.000   1633.303      9.697    452.632   1574.243    452.632    511.999    452.632
101.670   1557.000   1555.576      1.424    452.339   1497.360    452.339    510.842    452.339
101.770   1427.622   1481.639    -54.017    452.046   1424.529    452.046    509.422    452.046
101.870   1402.000   1413.911    -11.911    451.754   1358.137    451.754    507.772    451.754
101.970   1376.000   1353.958     22.042    451.462   1299.714    451.462    505.931    451.462
102.070   1293.000   1302.503     -9.503    451.171   1249.945    451.171    503.935    451.171
102.170   1336.000   1259.480     76.520    450.880   1208.727    450.880    501.823    450.880
102.270   1182.000   1224.113    -42.113    450.589   1175.247    450.589    499.631    450.589
102.370   1148.055   1195.007    -46.953    450.299   1148.081    450.299    497.391    450.299
102.470   1235.413   1170.372     65.040    450.010   1125.408    450.010    495.131    450.010
102.570   1159.518   1148.087     11.430    449.721   1105.083    449.721    492.877    449.721
102.670   1072.000   1126.026    -54.026    449.433   1084.957    449.433    490.649    449.433
102.770   1102.000   1102.319     -0.319    449.146   1063.146    449.146    488.463    449.146
102.870   1033.000   1075.606    -42.606    448.859   1038.275    448.859    486.332    448.859
102.970   1037.000   1045.185     -8.185    448.573   1009.630    448.573    484.267    448.573
103.070   1002.000   1011.020     -9.020    448.287    977.168    448.287    482.274    448.287
103.170    948.762    973.614    -24.852    448.003    941.386    448.003    480.360    448.003
103.270    952.000    933.821     18.179    447.719    903.137    447.719    478.527    447.719
103.370    939.691    892.666     47.025    447.436    863.441    447.436    476.777    447.436
103.470    848.000    851.202     -3.202    447.154    823.352    447.154    475.111    447.154
103.570    801.000    810.418     -9.418    446.873    783.861    446.873    473.528    446.873
103.670    755.000    771.189    -16.189    446.592    745.843    446.592    472.027    446.592
103.770    714.152    734.237    -20.085    446.313    710.022    446.313    470.607    446.313
103.870    762.000    700.118     61.882    446.035    676.959    446.035    469.265    446.035
103.970    700.000    669.214     30.786    445.757    647.035    445.757    467.998    445.757
104.070    628.000    641.733    -13.733    445.481    620.463    445.481    466.803    445.481
104.170    586.692    617.728    -31.036    445.206    597.301    445.206    465.678    445.206
104.270    621.420    597.119     24.301    444.932    577.470    444.932    464.619    444.932
104.370    581.000    579.720      1.280    444.659    560.788    444.659    463.623    444.659
104.470    599.000    565.271     33.729    444.387    546.998    444.387    462.687    444.387
104.570    603.000    553.468     49.532    444.117    535.800    444.117    461.806    444.117
104.670    562.192    543.992     18.200    443.847    526.878    443.847    460.979    443.847
104.770    508.070    536.532    -28.462    443.579    519.924    443.579    460.202    443.579
104.870    553.125    530.800     22.325    443.313    514.653    443.313    459.472    443.313
104.970    550.000    526.547     23.453    443.047    510.818    443.047    458.785    443.047
105.070    485.121    523.568    -38.447    442.784    508.218    442.784    458.140    442.784
105.170    562.000    521.706     40.294    442.521    506.698    442.521    457.534    442.521
105.270    512.000    520.850     -8.850    442.260    506.149    442.260    456.964    442.260
105.370    554.000    520.932     33.068    442.001    506.507    442.001    456.427    442.001
105.470    522.000    521.927      0.073    441.743    507.746    441.743    455.922    441.743
105.570    539.195    523.839     15.356    441.486    509.875    441.486    455.447    441.486
105.670    528.000    526.702      1.298    441.232    512.928    441.232    455.000    441.232
105.770    537.000    530.566      6.434    440.978    516.958    440.978    454.580    440.978
105.870    549.000    535.492     13.508    440.727    522.026    440.727    454.184    440.727
105.970    588.000    541.536     46.464    440.477    528.190    440.477    453.811    440.477
106.070    528.397    548.738    -20.341    440.229    535.492    440.229    453.461    440.229
106.170    589.000    557.114     31.886    439.983    543.948    439.983    453.132    439.983
106.270    564.000    566.636     -2.636    439.739    553.532    439.739    452.823    439.739
106.370    589.000    577.234     11.766    439.497    564.174    439.497    452.533    439.497
106.470    558.317    588.781    -30.464    439.256    575.748    439.256    452.262    439.256
106.570    587.000    601.094    -14.094    439.017    588.073    439.017    452.010    439.017
106.670    603.000    613.934    -10.934    438.781    600.909    438.781    451.775    438.781
106.770    634.603    627.008      7.596    438.546    613.964    438.546    451.557    438.546
106.870    616.000    639.972    -23.972    438.314    626.896    438.314    451.356    438.314
106.970    680.307    652.448     27.859    438.084    639.325    438.084    451.171    438.084
107.070    634.810    664.034    -29.224    437.855    650.851    437.855    451.003    437.855
107.170    670.000    674.341     -4.341    437.629    661.085    437.629    450.852    437.629
107.270    678.000    683.024     -5.024    437.406    669.681    437.406    450.717    437.406
107.370    647.452    689.832    -42.380    437.184    676.389    437.184    450.598    437.184
107.470    643.000    694.662    -51.662    436.965    681.105    436.965    450.496    436.965
107.570    656.000    697.567    -41.567    436.748    683.883    436.748    450.410    436.748
107.670    701.000    698.760      2.240    436.534    684.934    436.534    450.342    436.534
107.770    645.000    698.579    -53.579    436.322    684.597    436.322    450.291    436.322
107.870    672.557    697.432    -24.875    436.112    683.278    436.112    450.258    436.112
107.970    701.670    695.739      5.931    435.905    681.398    435.905    450.243    435.905
108.070    740.636    693.885     46.752    435.701    679.340    435.701    450.246    435.701
108.170    705.000    692.183     12.817    435.499    677.417    435.499    450.270    435.499
108.270    723.797    690.846     32.951    435.300    675.843    435.300    450.313    435.300
108.370    686.316    690.011     -3.694    435.103    674.751    435.103    450.378    435.103
108.470    683.000    689.673     -6.673    434.910    674.137    434.910    450.464    434.910
108.570    693.432    689.729      3.704    434.719    673.897    434.719    450.573    434.719
108.670    692.486    689.971      2.515    434.531    673.823    434.531    450.706    434.531
108.770    694.482    690.109      4.373    434.345    673.621    434.345    450.864    434.345
108.870    696.000    689.790      6.210    434.163    672.939    434.163    451.048    434.163
108.970    691.580    688.643      2.937    433.984    671.403    433.984    451.260    433.984
109.070    674.000    686.324    -12.324    433.807    668.669    433.807    451.501    433.807
109.170    632.000    682.574    -50.574    433.634    664.475    433.634    451.774    433.634
109.270    632.633    677.251    -44.618    433.464    658.679    433.464    452.079    433.464
109.370    686.290    670.360     15.930    433.297    651.281    433.297    452.418    433.297
109.470    673.000    662.034     10.966    433.133    642.414    433.133    452.795    433.133
109.570    698.397    652.511     45.887    432.972    632.314    432.972    453.210    432.972
109.670    591.000    642.090    -51.090    432.815    621.278    432.815    453.667    432.815
109.770    651.000    631.099     19.901    432.661    609.630    432.661    454.168    432.661
109.870    633.650    619.861     13.789    432.510    597.692    432.510    454.715    432.510
109.970    589.000    608.680    -19.680    432.363    585.765    432.363    455.311    432.363
110.070    599.000    597.828      1.172    432.220    574.117    432.220    455.961    432.220
110.170    602.000    587.539     14.461    432.079    562.980    432.079    456.665    432.079
110.270    549.571    578.005    -28.434    431.943    552.542    431.943    457.429    431.943
110.370    531.896    569.374    -37.477    431.810    542.949    431.810    458.255    431.810
110.470    563.000    561.753      1.247    431.680    534.304    431.680    459.147    431.680
110.570    520.000    555.208    -35.208    431.555    526.668    431.555    460.110    431.555
110.670    543.000    549.766     -6.766    431.433    520.066    431.433    461.145    431.433
110.770    532.116    545.421    -13.306    431.315    514.488    431.315    462.259    431.315
110.870    575.000    542.142     32.858    431.201    509.897    431.201    463.455    431.201
110.970    536.000    539.873     -3.873    431.091    506.234    431.091    464.736    431.091
111.070    572.000    538.545     33.455    430.984    503.426    430.984    466.108    430.984
111.170    556.000    538.078     17.922    430.882    501.389    430.882    467.574    430.882
111.270    562.000    538.388     23.612    430.784    500.034    430.784    469.139    430.784
111.370    594.000    539.391     54.609    430.690    499.275    430.690    470.807    430.690
111.470    539.000    541.008     -2.008    430.600    499.026    430.600    472.582    430.600
111.570    554.000    543.163     10.837    430.514    499.209    430.514    474.467    430.514
111.670    536.000    545.790     -9.790    430.433    499.754    430.433    476.467    430.433
111.770    579.000    548.831     30.169    430.356    500.600    430.356    478.586    430.356
111.870    508.000    552.238    -44.238    430.283    501.694    430.283    480.825    430.283
111.970    561.000    555.976      5.024    430.215    503.001    430.215    483.188    430.215
112.070    567.000    560.017      6.983    430.151    504.489    430.151    485.676    430.151
112.170    576.000    564.347     11.653    430.092    506.144    430.092    488.293    430.092
112.270    552.000    568.963    -16.963    430.037    507.960    430.037    491.038    430.037
112.370    586.652    573.871     12.780    429.987    509.945    429.987    493.911    429.987
112.470    588.538    579.090      9.448    429.942    512.118    429.942    496.911    429.942
112.570    596.793    584.646     12.147    429.902    514.509    429.902    500.035    429.902
112.670    536.000    590.578    -54.578    429.866    517.160    429.866    503.281    429.866
112.770    629.425    596.935     32.490    429.835    520.126    429.835    506.641    429.835
112.870    566.431    603.782    -37.351    429.809    523.479    429.809    510.109    429.809
112.970    637.718    611.200     26.518    429.788    527.310    429.788    513.675    429.788
113.070    572.046    619.297    -47.250    429.773    531.740    429.773    517.325    429.773
113.170    623.000    628.211     -5.211    429.762    536.923    429.762    521.046    429.762
113.270    645.622    638.125      7.497    429.756    543.059    429.756    524.817    429.756
113.370    587.000    649.273    -62.273    429.756    550.406    429.756    528.616    429.756
113.470    674.456    661.957     12.499    429.761    559.291    429.761    532.418    429.761
113.570    683.482    676.535      6.946    429.771    570.103    429.771    536.192    429.771
113.670    667.000    693.563    -26.563    429.786    583.431    429.786    539.904    429.786
113.770    680.000    713.659    -33.659    429.807    599.931    429.807    543.517    429.807
113.870    753.000    737.578     15.422    429.834    620.400    429.834    546.988    429.834
113.970    734.000    766.260    -32.260    429.866    645.822    429.866    550.274    429.866
114.070    816.274    800.835     15.439    429.904    677.372    429.904    553.328    429.904
114.170    791.000    842.634    -51.634    429.947    716.429    429.947    556.103    429.947
114.270    890.589    893.202     -2.613    429.996    764.582    429.996    558.554    429.996
114.370    890.000    954.287    -64.287    430.051    823.624    430.051    560.638    430.051
114.470   1083.808   1027.831     55.977    430.112    895.535    430.112    562.315    430.112
114.570   1140.000   1115.935     24.065    430.178    982.447    430.178    563.553    430.178
114.670   1161.000   1220.805    -59.805    430.251   1086.593    430.251    564.328    430.251
114.770   1377.111   1344.681     32.430    430.330   1210.227    430.330    564.624    430.330
114.870   1558.000   1489.743     68.257    430.414   1355.534    430.414    564.438    430.414
114.970   1706.000   1657.997     48.003    430.505   1524.514    430.505    563.774    430.505
115.070   1888.000   1851.138     36.862    430.603   1718.850    430.603    562.649    430.603
115.170   2149.000   2070.411     78.589    430.706   1939.759    430.706    561.087    430.706
115.270   2398.000   2316.452     81.548    430.816   2187.849    430.816    559.121    430.816
115.370   2530.009   2589.146    -59.136    430.932   2462.963    430.932    556.792    430.932
115.470   2913.974   2887.482     26.492    431.055   2764.051    431.055    554.142    431.055
115.570   3173.000   3209.443    -36.443    431.184   3089.049    431.184    551.217    431.184
115.670   3565.000   3551.915     13.085    431.320   3434.801    431.320    548.065    431.320
115.770   4012.161   3910.642    101.519    431.462   3797.003    431.462    544.732    431.462
115.870   4343.401   4280.212     63.188    431.611   4170.201    431.611    541.261    431.611
115.970   4717.849   4654.099     63.750    431.767   4547.831    431.767    537.695    431.767
116.070   4912.000   5024.747   -112.747    431.930   4922.297    431.930    534.071    431.930
116.170   5269.949   5383.702   -113.753    432.100   5285.114    432.100    530.423    432.100
116.270   5807.049   5721.817     85.233    432.277   5627.105    432.277    526.781    432.277
116.370   6034.000   6029.523      4.477    432.460   5938.675    432.460    523.172    432.460
116.470   6163.590   6297.213   -133.623    432.651   6210.195    432.651    519.616    432.651
116.570   6486.205   6515.745    -29.539    432.849   6432.499    432.849    516.133    432.849
116.670   6693.780   6677.049     16.731    433.055   6597.502    433.055    512.738    433.055
116.770   6810.000   6774.812     35.188    433.268   6698.874    433.268    509.444    433.268
116.870   6802.000   6805.096     -3.096    433.488   6732.663    433.488    506.261    433.488
116.970   6704.000   6766.781    -62.781    433.715   6697.737    433.715    503.195    433.715
117.070   6698.000   6661.684     36.316    433.950   6595.902    433.950    500.253    433.950
117.170   6507.000   6494.343     12.657    434.193   6431.690    434.193    497.439    434.193
117.270   6156.358   6271.514   -115.157    434.443   6211.853    434.443    494.755    434.443
117.370   5861.000   6001.512   -140.512    434.701   5944.702    434.701    492.203    434.701
117.470   5647.000   5693.544    -46.544    434.967   5639.445    434.967    489.782    434.967
117.570   5341.000   5357.121    -16.121    435.241   5305.595    435.241    487.491    435.241
117.670   5051.000   5001.591     49.409    435.522   4952.502    435.522    485.330    435.522
117.770   4527.255   4635.792   -108.537    435.812   4589.007    435.812    483.297    435.812
117.870   4297.669   4267.798     29.871    436.110   4223.191    436.110    481.387    436.110
117.970   3831.075   3904.751    -73.677    436.416   3862.198    436.416    479.600    436.416
118.070   3586.055   3552.741     33.314    436.730   3512.126    436.730    477.930    436.730
118.170   3344.000   3216.750    127.250    437.052   3177.961    437.052    476.376    437.052
118.270   2951.000   2900.641     50.359    437.383   2863.573    437.383    474.932    437.383
118.370   2552.000   2607.191    -55.191    437.722   2571.745    437.722    473.595    437.722
118.470   2257.670   2338.168    -80.498    438.070   2304.250    438.070    472.361    438.070
118.570   2129.807   2094.426     35.381    438.426   2061.948    438.426    471.226    438.426
118.670   1864.000   1876.027    -12.027    438.791   1844.906    438.791    470.186    438.791
118.770   1664.835   1682.370    -17.535    439.165   1652.529    439.165    469.236    439.165
118.870   1499.000   1512.323    -13.323    439.548   1483.688    439.548    468.373    439.548
118.970   1388.000   1364.357     23.643    439.939   1336.858    439.939    467.592    439.939
119.070   1190.000   1236.668    -46.668    440.339   1210.241    440.339    466.891    440.339
119.170   1174.761   1127.297     47.463    440.749   1101.880    440.749    466.264    440.749
119.270   1005.000   1034.228    -29.228    441.167   1009.763    441.167    465.709    441.167
119.370   1021.000    955.471     65.529    441.595    931.904    441.595    465.222    441.595
119.470    843.000    889.130    -46.130    442.032    866.409    442.032    464.799    442.032
119.570    818.000    833.446    -15.446    442.478    811.522    442.478    464.438    442.478
119.670    761.000    786.828    -25.828    442.933    765.653    442.933    464.135    442.933
119.770    805.000    747.865     57.135    443.398    727.397    443.398    463.887    443.398
119.870    677.973    715.332    -37.358    443.873    695.530    443.873    463.692    443.873
119.970    690.940    688.180      2.761    444.357    669.004    444.357    463.547    444.357
120.070    705.942    665.525     40.417    444.851    646.939    444.851    463.449    444.851
120.170    677.000    646.631     30.369    445.355    628.600    445.355    463.397    445.355
120.270    626.000    630.893     -4.893    445.869    613.384    445.869    463.388    445.869
120.370    614.613    617.814     -3.201    446.392    600.796    446.392    463.420    446.392
120.470    623.646    606.995     16.651    446.926    590.439    446.926    463.491    446.926
120.570    621.511    598.111     23.399    447.470    581.991    447.470    463.600    447.470
120.670    614.000    590.903     23.097    448.024    575.193    448.024    463.744    448.024
120.770    536.000    585.162    -49.162    448.588    569.838    448.588    463.923    448.588
120.870    620.270    580.718     39.552    449.162    565.757    449.162    464.135    449.162
120.970    559.000    577.421    -18.421    449.747    562.801    449.747    464.379    449.747
121.070    551.000    575.163    -24.163    450.343    560.866    450.343    464.653    450.343
121.170    532.106    573.883    -41.778    450.949    559.890    450.949    464.956    450.949
121.270    546.000    573.479    -27.479    451.565    559.772    451.565    465.287    451.565
121.370    537.000    573.874    -36.874    452.193    560.438    452.193    465.645    452.193
121.470    547.088    575.000    -27.913    452.831    561.820    452.831    466.029    452.831
121.570    541.000    576.792    -35.792    453.480    563.854    453.480    466.439    453.480
121.670    558.819    579.182    -20.363    454.140    566.472    454.140    466.873    454.140
121.770    599.000    582.099     16.901    454.812    569.606    454.812    467.330    454.812
121.870    566.000    585.471    -19.471    455.494    573.182    455.494    467.809    455.494
121.970    603.000    589.215     13.785    456.188    577.122    456.188    468.310    456.188
122.070    568.000    593.248    -25.248    456.893    581.341    456.893    468.832    456.893
122.170    627.688    597.475     30.213    457.609    585.746    457.609    469.374    457.609
122.270    634.000    601.799     32.201    458.337    590.239    458.337    469.935    458.337
122.370    610.000    606.114      3.886    459.076    594.718    459.076    470.514    459.076
122.470    587.000    610.312    -23.312    459.828    599.073    459.828    471.111    459.828
122.570    659.000    614.280     44.720    460.590    603.194    460.590    471.724    460.590
122.670    631.000    617.908     13.092    461.365    606.970    461.365    472.353    461.365
122.770    605.000    621.088    -16.088    462.152    610.296    462.152    472.997    462.152
122.870    641.617    623.724     17.894    462.951    613.074    462.951    473.654    462.951
122.970    614.000    625.732    -11.732    463.761    615.224    463.761    474.326    463.761
123.070    658.000    627.051     30.949    464.584    616.683    464.584    475.010    464.584
123.170    651.000    627.642     23.358    465.420    617.415    465.420    475.706    465.420
123.270    667.707    627.493     40.213    466.267    617.407    466.267    476.413    466.267
123.370    611.000    626.617    -15.617    467.127    616.672    467.127    477.132    467.127
123.470    629.435    625.050      4.385    468.000    615.248    468.000    477.861    468.000
123.570    600.000    622.846    -22.846    468.885    613.188    468.885    478.600    468.885
123.670    693.000    620.073     72.927    469.783    610.561    469.783    479.350    469.783
123.770    605.000    616.806    -11.806    470.694    607.443    470.694    480.111    470.694
123.870    652.029    613.127     38.902    471.618    603.915    471.618    480.881    471.618
123.970    624.000    609.117     14.883    472.555    600.057    472.555    481.663    472.555
124.070    627.000    604.857     22.143    473.504    595.952    473.504    482.455    473.504
124.170    664.000    600.423     63.577    474.467    591.674    474.467    483.258    474.467
124.270    612.000    595.888     16.112    475.444    587.297    475.444    484.073    475.444
124.370    597.000    591.316      5.684    476.433    582.884    476.433    484.901    476.433
124.470    618.043    586.766     31.277    477.436    578.494    477.436    485.741    477.436
124.570    640.000    582.288     57.712    478.453    574.176    478.453    486.594    478.453
124.670    577.310    577.923     -0.613    479.483    569.971    479.483    487.461    479.483
124.770    561.861    573.706    -11.845    480.527    565.914    480.527    488.342    480.527
124.870    575.000    569.663      5.337    481.585    562.030    481.585    489.238    481.585
124.970    560.000    565.816     -5.816    482.657    558.341    482.657    490.149    482.657
