neutron_powder_diffraction_0090
R_wp: 4.023
Temperature (K): 840.104
Counts: 83562.00
Wavelength (Ã…): 2.52098
COMMENTS
Test file for demonstrating the .xyy file format in Reel1.0
END OF HEADER
   tth       Y_obs     Y_calc      Y_res    Background    Phase_1_Nuc    Phase_1_Mag    Phase_2_Nuc    Phase_2_Mag
  9.970    606.000    553.039     52.961    551.316    552.362    551.316    551.811    551.498
 10.070    508.807    553.736    -44.928    551.918    553.056    551.918    552.414    552.101
 10.170    530.027    554.430    -24.403    552.508    553.746    552.508    553.006    552.693
 10.270    605.000    555.126     49.874    553.085    554.438    553.085    553.585    553.272
 10.370    585.414    555.828     29.586    553.650    555.137    553.650    554.152    553.838
 10.470    595.000    556.541     38.459    554.202    555.845    554.202    554.707    554.393
 10.570    526.261    557.268    -31.008    554.743    556.569    554.743    555.249    554.935
 10.670    588.000    558.018     29.982    555.272    557.314    555.272    555.780    555.466
 10.770    523.641    558.799    -35.158    555.788    558.091    555.788    556.299    555.984
 10.870    597.000    559.623     37.377    556.293    558.911    556.293    556.806    556.491
 10.970    563.935    560.507      3.428    556.787    559.791    556.787    557.302    556.987
 11.070    520.600    561.476    -40.875    557.269    560.755    557.269    557.786    557.470
 11.170    631.000    562.560     68.440    557.739    561.835    557.739    558.258    557.943
 11.270    551.000    563.812    -12.812    558.198    563.082    558.198    558.719    558.404
 11.370    573.000    565.321      7.679    558.645    564.587    558.645    559.169    558.853
 11.470    591.000    567.270     23.730    559.082    566.530    559.082    559.607    559.292
 11.570    644.000    570.073     73.927    559.507    569.327    559.507    560.035    559.719
 11.670    571.000    574.645     -3.645    559.921    573.893    559.921    560.451    560.136
 11.770    617.000    582.697     34.303    560.325    581.937    560.325    560.857    560.541
 11.870    596.000    596.631     -0.631    560.717    595.858    560.717    561.252    560.936
 11.970    640.517    618.410     22.107    561.099    617.621    561.099    561.636    561.320
 12.070    691.010    647.079     43.930    561.470    646.270    561.470    562.009    561.693
 12.170    656.000    675.181    -19.181    561.830    674.352    561.830    562.372    562.056
 12.270    653.000    687.611    -34.611    562.180    686.772    562.180    562.725    562.409
 12.370    679.000    674.769      4.231    562.520    673.931    562.520    563.067    562.751
 12.470    620.603    646.949    -26.346    562.850    646.122    562.850    563.399    563.083
 12.570    650.000    619.172     30.828    563.169    618.355    563.169    563.721    563.404
 12.670    580.518    598.504    -17.986    563.478    597.694    563.478    564.032    563.716
 12.770    539.000    585.648    -46.648    563.777    584.840    563.777    564.334    564.018
 12.870    597.000    578.554     18.446    564.066    577.744    564.066    564.625    564.310
 12.970    585.000    574.828     10.172    564.345    574.015    564.345    564.907    564.592
 13.070    535.518    572.803    -37.285    564.615    571.986    564.615    565.179    564.864
 13.170    584.000    571.598     12.402    564.875    570.776    564.875    565.442    565.127
 13.270    558.905    570.818    -11.914    565.125    569.992    565.125    565.695    565.380
 13.370    529.233    570.290    -41.057    565.366    569.459    565.366    565.938    565.624
 13.470    598.482    569.929     28.553    565.597    569.092    565.597    566.173    565.858
 13.570    563.000    569.684     -6.684    565.820    568.842    565.820    566.397    566.083
 13.670    565.000    569.524     -4.524    566.032    568.675    566.032    566.613    566.299
 13.770    520.757    569.424    -48.668    566.236    568.570    566.236    566.819    566.506
 13.870    547.924    569.370    -21.446    566.431    568.511    566.431    567.017    566.703
 13.970    569.000    569.350     -0.350    566.616    568.484    566.616    567.205    566.892
 14.070    530.164    569.354    -39.191    566.793    568.483    566.793    567.385    567.072
 14.170    585.628    569.377     16.250    566.961    568.499    566.961    567.556    567.244
 14.270    545.000    569.415    -24.415    567.120    568.530    567.120    567.718    567.406
 14.370    587.000    569.461     17.539    567.271    568.570    567.271    567.872    567.560
 14.470    565.000    569.513     -4.513    567.413    568.616    567.413    568.017    567.706
 14.570    576.000    569.569      6.431    567.546    568.665    567.546    568.153    567.843
 14.670    545.000    569.627    -24.627    567.671    568.716    567.671    568.281    567.972
 14.770    548.000    569.686    -21.686    567.788    568.768    567.788    568.401    568.092
 14.870    533.000    569.745    -36.745    567.896    568.821    567.896    568.513    568.204
 14.970    529.000    569.821    -40.821    567.997    568.889    567.997    568.616    568.309
 15.070    580.644    569.885     10.760    568.089    568.946    568.089    568.712    568.405
 15.170    541.000    569.941    -28.941    568.173    568.995    568.173    568.799    568.493
 15.270    544.000    569.994    -25.994    568.250    569.041    568.250    568.879    568.574
 15.370    570.308    570.095      0.213    568.318    569.134    568.318    568.951    568.646
 15.470    557.000    570.203    -13.203    568.379    569.234    568.379    569.015    568.711
 15.570    599.000    570.244     28.756    568.432    569.268    568.432    569.071    568.769
 15.670    530.329    570.274    -39.945    568.477    569.290    568.477    569.120    568.818
 15.770    583.889    570.299     13.590    568.515    569.307    568.515    569.161    568.861
 15.870    525.000    570.318    -45.318    568.545    569.318    568.545    569.195    568.896
 15.970    533.000    570.333    -37.333    568.568    569.324    568.568    569.222    568.924
 16.070    594.090    570.341     23.749    568.584    569.324    568.584    569.241    568.944
 16.170    546.000    570.345    -24.345    568.593    569.318    568.593    569.254    568.958
 16.270    545.208    570.342    -25.135    568.594    569.307    568.594    569.259    568.964
 16.370    589.954    570.334     19.620    568.588    569.290    568.588    569.257    568.963
 16.470    584.000    570.320     13.680    568.575    569.267    568.575    569.248    568.956
 16.570    577.000    570.301      6.699    568.556    569.238    568.556    569.232    568.942
 16.670    577.000    570.275      6.725    568.529    569.203    568.529    569.209    568.921
 16.770    568.000    570.244     -2.244    568.496    569.163    568.496    569.180    568.893
 16.870    542.000    570.208    -28.208    568.456    569.116    568.456    569.144    568.859
 16.970    559.000    570.165    -11.165    568.409    569.064    568.409    569.102    568.818
 17.070    530.622    570.117    -39.495    568.356    569.006    568.356    569.053    568.770
 17.170    570.553    570.064      0.489    568.296    568.942    568.296    568.997    568.717
 17.270    523.483    570.005    -46.521    568.230    568.872    568.230    568.935    568.657
 17.370    541.000    569.942    -28.942    568.157    568.798    568.157    568.867    568.591
 17.470    520.000    569.878    -49.878    568.078    568.723    568.078    568.793    568.519
 17.570    544.000    569.807    -25.807    567.993    568.641    567.993    568.712    568.440
 17.670    597.000    569.726     27.274    567.902    568.549    567.902    568.626    568.356
 17.770    529.000    569.640    -40.640    567.805    568.451    567.805    568.533    568.266
 17.870    532.000    569.548    -37.548    567.702    568.347    567.702    568.435    568.170
 17.970    534.000    569.452    -35.452    567.592    568.238    567.592    568.330    568.068
 18.070    542.000    569.350    -27.350    567.477    568.124    567.477    568.220    567.961
 18.170    562.000    569.243     -7.243    567.357    568.004    567.357    568.104    567.848
 18.270    531.000    569.132    -38.132    567.230    567.880    567.230    567.983    567.729
 18.370    520.000    569.029    -49.029    567.098    567.764    567.098    567.856    567.605
 18.470    518.000    568.965    -50.965    566.960    567.686    566.960    567.723    567.476
 18.570    533.015    568.845    -35.830    566.817    567.551    566.817    567.585    567.341
 18.670    548.000    568.714    -20.714    566.668    567.406    566.668    567.442    567.201
 18.770    551.000    568.578    -17.578    566.514    567.256    566.514    567.293    567.056
 18.870    568.225    568.438     -0.213    566.354    567.101    566.354    567.140    566.906
 18.970    552.554    568.294    -15.739    566.189    566.941    566.189    566.981    566.751
 19.070    545.000    568.145    -23.145    566.019    566.777    566.019    566.816    566.591
 19.170    568.000    567.997      0.003    565.844    566.613    565.844    566.647    566.426
 19.270    539.906    567.847    -27.942    565.664    566.447    565.664    566.473    566.256
 19.370    571.000    567.687      3.313    565.479    566.269    565.479    566.294    566.082
 19.470    530.000    567.523    -37.523    565.289    566.088    565.289    566.111    565.902
 19.570    596.000    567.377     28.623    565.094    565.925    565.094    565.922    565.719
 19.670    517.000    567.208    -50.208    564.894    565.737    564.894    565.729    565.531
 19.770    550.613    567.031    -16.418    564.690    565.541    564.690    565.531    565.338
 19.870    536.000    566.851    -30.851    564.481    565.343    564.481    565.329    565.141
 19.970    551.000    566.677    -15.677    564.267    565.149    564.267    565.122    564.940
 20.070    570.000    566.493      3.507    564.048    564.945    564.048    564.911    564.734
 20.170    564.000    566.302     -2.302    563.826    564.734    563.826    564.695    564.525
 20.270    538.000    566.108    -28.108    563.598    564.518    563.598    564.475    564.311
 20.370    525.016    565.912    -40.896    563.367    564.300    563.367    564.251    564.094
 20.470    537.000    565.722    -28.722    563.131    564.088    563.131    564.023    563.872
 20.570    522.000    565.559    -43.559    562.890    563.902    562.890    563.791    563.647
 20.670    523.422    565.357    -41.936    562.646    563.677    562.646    563.555    563.418
 20.770    518.959    565.150    -46.191    562.397    563.444    562.397    563.314    563.186
 20.870    527.000    564.939    -37.939    562.145    563.209    562.145    563.070    562.949
 20.970    515.000    564.727    -49.727    561.888    562.971    561.888    562.822    562.710
 21.070    537.230    564.513    -27.283    561.627    562.730    561.627    562.571    562.467
 21.170    546.792    564.297    -17.505    561.363    562.487    561.363    562.315    562.220
 21.270    590.000    564.082     25.918    561.094    562.243    561.094    562.057    561.971
 21.370    539.898    563.889    -23.991    560.822    562.022    560.822    561.794    561.718
 21.470    584.000    563.680     20.320    560.546    561.783    560.546    561.528    561.462
 21.570    556.692    563.510     -6.818    560.267    561.582    560.267    561.259    561.203
 21.670    534.000    563.332    -29.332    559.984    561.372    559.984    560.986    560.941
 21.770    560.000    563.137     -3.137    559.697    561.144    559.697    560.710    560.677
 21.870    554.417    562.919     -8.502    559.407    560.892    559.407    560.431    560.409
 21.970    496.000    562.703    -66.703    559.113    560.641    559.113    560.149    560.140
 22.070    532.000    562.524    -30.524    558.816    560.426    558.816    559.863    559.867
 22.170    561.637    562.310     -0.674    558.515    560.175    558.515    559.575    559.592
 22.270    529.000    562.097    -33.097    558.212    559.922    558.212    559.284    559.315
 22.370    523.772    561.899    -38.127    557.905    559.685    557.905    558.989    559.035
 22.470    533.000    561.698    -28.698    557.595    559.442    557.595    558.692    558.754
 22.570    578.000    561.511     16.489    557.281    559.212    557.281    558.393    558.470
 22.670    522.194    561.317    -39.124    556.965    558.974    556.965    558.090    558.184
 22.770    521.261    561.131    -39.870    556.646    558.741    556.646    557.786    557.897
 22.870    534.000    560.952    -26.952    556.324    558.514    556.324    557.478    557.608
 22.970    526.315    560.785    -34.470    555.998    558.297    555.998    557.169    557.317
 23.070    545.000    560.634    -15.634    555.670    558.095    555.670    556.856    557.025
 23.170    615.000    560.499     54.501    555.339    557.906    555.339    556.542    556.731
 23.270    605.736    560.386     45.351    555.006    557.737    555.006    556.226    556.436
 23.370    570.000    560.302      9.698    554.670    557.595    554.670    555.907    556.140
 23.470    567.000    560.254      6.746    554.331    557.487    554.331    555.586    555.844
 23.570    545.000    560.254    -15.254    553.989    557.425    553.989    555.264    555.546
 23.670    592.689    560.317     32.372    553.645    557.422    553.645    554.939    555.248
 23.770    580.000    560.464     19.536    553.298    557.501    553.298    554.613    554.949
 23.870    594.000    560.732     33.268    552.949    557.698    552.949    554.285    554.650
 23.970    557.000    561.171     -4.171    552.598    558.063    552.598    553.956    554.351
 24.070    541.000    561.895    -20.895    552.244    558.710    552.244    553.625    554.052
 24.170    567.000    563.157      3.843    551.888    559.893    551.888    553.293    553.753
 24.270    589.000    565.504     23.496    551.529    562.157    551.529    552.959    553.454
 24.370    583.000    569.949     13.051    551.169    566.516    551.169    552.624    553.157
 24.470    584.000    577.934      6.066    550.806    574.415    550.806    552.289    552.860
 24.570    572.000    590.746    -18.746    550.441    587.139    550.441    551.952    552.564
 24.670    593.474    608.166    -14.692    550.074    604.470    550.074    551.615    552.269
 24.770    622.955    626.416     -3.461    549.705    622.627    549.705    551.276    551.977
 24.870    629.636    637.013     -7.377    549.334    633.119    549.334    550.938    551.686
 24.970    651.000    632.754     18.246    548.961    628.739    548.961    550.599    551.397
 25.070    613.990    616.766     -2.776    548.587    612.615    548.587    550.259    551.111
 25.170    601.363    597.921      3.443    548.210    593.626    548.210    549.920    550.828
 25.270    603.047    582.287     20.760    547.832    577.844    547.832    549.580    550.548
 25.370    597.000    571.613     25.387    547.451    567.017    547.451    549.241    550.271
 25.470    555.000    565.183    -10.183    547.070    560.430    547.070    548.902    549.999
 25.570    564.132    561.542      2.590    546.686    556.626    546.686    548.564    549.731
 25.670    611.000    559.450     51.550    546.301    554.362    546.301    548.226    549.469
 25.770    548.169    558.145     -9.976    545.914    552.877    545.914    547.889    549.211
 25.870    545.684    557.251    -11.567    545.526    551.793    545.526    547.554    548.960
 25.970    540.412    556.598    -16.186    545.136    550.939    545.136    547.220    548.715
 26.070    514.786    556.109    -41.323    544.745    550.237    544.745    546.888    548.477
 26.170    532.575    555.746    -23.172    544.353    549.649    544.353    546.557    548.248
 26.270    576.829    555.486     21.343    543.959    549.151    543.959    546.229    548.026
 26.370    559.146    555.316      3.830    543.563    548.728    543.563    545.903    547.814
 26.470    621.000    555.230     65.770    543.167    548.373    543.167    545.580    547.612
 26.570    595.000    555.225     39.775    542.769    548.084    542.769    545.261    547.421
 26.670    575.779    555.303     20.476    542.370    547.860    542.370    544.944    547.242
 26.770    540.151    555.470    -15.319    541.970    547.706    541.970    544.632    547.075
 26.870    576.000    555.737     20.263    541.569    547.632    541.569    544.323    546.922
 26.970    544.179    556.118    -11.939    541.167    547.651    541.167    544.019    546.783
 27.070    609.000    556.637     52.363    540.763    547.786    540.763    543.720    546.659
 27.170    520.120    557.327    -37.207    540.359    548.067    540.359    543.427    546.553
 27.270    601.000    558.235     42.765    539.954    548.542    539.954    543.139    546.463
 27.370    605.000    559.432     45.568    539.548    549.279    539.548    542.857    546.393
 27.470    591.000    561.045     29.955    539.141    550.404    539.141    542.581    546.342
 27.570    611.000    563.361     47.639    538.733    552.203    538.733    542.313    546.311
 27.670    528.359    567.268    -38.909    538.324    555.563    538.324    542.051    546.301
 27.770    600.000    575.538     24.462    537.915    563.254    537.915    541.797    546.314
 27.870    636.000    595.218     40.782    537.505    582.318    537.505    541.550    546.348
 27.970    654.000    638.794     15.206    537.094    625.239    537.094    541.311    546.404
 28.070    732.046    717.822     14.224    536.682    703.574    536.682    541.079    546.483
 28.170    814.000    825.513    -11.513    536.270    810.545    536.270    540.854    546.582
 28.270    927.000    920.864      6.136    535.858    905.165    535.858    540.636    546.701
 28.370   1008.949    945.719     63.230    535.444    929.288    535.444    540.424    546.837
 28.470    838.468    885.320    -46.852    535.031    868.145    535.031    540.216    546.987
 28.570    814.999    794.259     20.739    534.617    776.316    534.617    540.012    547.147
 28.670    788.649    735.275     53.374    534.202    716.545    534.202    539.809    547.312
 28.770    704.000    733.756    -29.756    533.787    714.234    533.787    539.606    547.475
 28.870    787.000    776.338     10.662    533.372    756.039    533.372    539.399    547.629
 28.970    874.518    823.871     50.647    532.956    802.826    532.956    539.185    547.765
 29.070    803.000    832.430    -29.430    532.540    810.683    532.540    538.961    547.873
 29.170    790.009    787.892      2.118    532.124    765.490    532.124    538.724    547.942
 29.270    699.000    717.681    -18.681    531.707    694.682    531.707    538.468    547.962
 29.370    655.000    654.264      0.736    531.291    630.745    531.291    538.192    547.922
 29.470    658.399    611.560     46.839    530.874    587.615    530.874    537.890    547.812
 29.570    572.553    588.135    -15.582    530.457    563.873    530.457    537.560    547.623
 29.670    618.489    576.775     41.714    530.040    552.311    530.040    537.200    547.349
 29.770    606.000    571.225     34.775    529.623    546.684    529.623    536.807    546.985
 29.870    587.000    568.064     18.936    529.206    543.569    529.206    536.382    546.529
 29.970    573.000    565.883      7.117    528.788    541.557    528.788    535.925    545.983
 30.070    640.000    564.199     75.801    528.371    540.158    528.371    535.437    545.350
 30.170    590.000    562.871     27.129    527.954    539.224    527.954    534.921    544.638
 30.270    565.000    561.931      3.069    527.537    538.773    527.537    534.380    543.855
 30.370    542.679    561.626    -18.946    527.121    539.041    527.121    533.817    543.011
 30.470    585.000    562.588     22.412    526.704    540.644    526.704    533.236    542.116
 30.570    626.000    565.994     60.006    526.287    544.743    526.287    532.641    541.181
 30.670    621.764    573.360     48.404    525.871    552.837    525.871    532.036    540.218
 30.770    608.000    585.576     22.424    525.455    565.807    525.455    531.424    539.235
 30.870    569.247    601.216    -31.969    525.040    582.212    525.040    530.810    538.243
 30.970    630.000    614.960     15.040    524.624    596.727    524.624    530.194    537.248
 31.070    610.000    618.708     -8.708    524.209    601.247    524.209    529.581    536.259
 31.170    634.544    608.768     25.776    523.794    592.074    523.794    528.972    535.279
 31.270    574.000    591.015    -17.015    523.380    575.071    523.380    528.368    534.314
 31.370    550.479    573.454    -22.975    522.966    558.236    522.966    527.771    533.367
 31.470    565.000    560.197      4.803    522.553    545.675    522.553    527.181    532.440
 31.570    555.000    551.754      3.246    522.140    537.897    522.140    526.600    531.534
 31.670    582.780    546.861     35.920    521.727    533.636    521.727    526.027    530.652
 31.770    537.000    544.012     -7.012    521.315    531.387    521.315    525.463    529.793
 31.870    597.000    542.180     54.820    520.904    530.123    520.904    524.908    528.957
 31.970    540.000    540.846     -0.846    520.493    529.327    520.493    524.361    528.145
 32.070    557.261    539.796     17.465    520.083    528.785    520.083    523.823    527.355
 32.170    576.979    538.952     38.027    519.673    528.419    519.673    523.293    526.587
 32.270    501.515    538.282    -36.767    519.264    528.200    519.264    522.772    525.841
 32.370    556.000    537.780     18.220    518.856    528.121    518.856    522.258    525.114
 32.470    552.000    537.447     14.553    518.449    528.186    518.449    521.752    524.408
 32.570    545.000    537.298      7.702    518.042    528.411    518.042    521.253    523.719
 32.670    593.000    537.356     55.644    517.636    528.821    517.636    520.760    523.048
 32.770    509.390    537.658    -28.269    517.231    529.453    517.231    520.274    522.393
 32.870    499.816    538.258    -38.442    516.826    530.363    516.826    519.795    521.755
 32.970    578.081    539.236     38.845    516.423    531.631    516.423    519.321    521.130
 33.070    564.000    540.712     23.288    516.020    533.380    516.020    518.853    520.520
 33.170    563.843    542.891     20.952    515.618    535.815    515.618    518.390    519.923
 33.270    575.000    546.182     28.818    515.218    539.347    515.218    517.932    519.338
 33.370    563.069    551.521     11.548    514.818    544.911    514.818    517.479    518.765
 33.470    526.304    561.063    -34.760    514.419    554.664    514.419    517.031    518.202
 33.570    584.931    579.220      5.711    514.021    573.018    514.021    516.587    517.650
 33.670    609.000    613.298     -4.298    513.623    607.279    513.623    516.148    517.108
 33.770    677.379    672.012      5.367    513.227    666.161    513.227    515.712    516.575
 33.870    770.000    760.272      9.728    512.832    754.577    512.832    515.280    516.050
 33.970    905.000    870.668     34.332    512.439    865.119    512.439    514.852    515.534
 34.070   1020.000    974.249     45.751    512.046    968.844    512.046    514.428    515.025
 34.170   1023.000   1021.435      1.565    511.654   1016.177    511.654    514.007    514.524
 34.270   1029.000    980.875     48.125    511.263    975.768    511.263    513.590    514.030
 34.370    824.071    879.715    -55.644    510.874    874.748    510.874    513.175    513.542
 34.470    816.003    767.542     48.461    510.486    762.698    510.486    512.764    513.060
 34.570    588.000    675.519    -87.519    510.099    670.785    510.099    512.356    512.585
 34.670    626.155    612.861     13.294    509.713    608.228    509.713    511.951    512.115
 34.770    612.000    575.531     36.469    509.328    570.993    509.328    511.549    511.651
 34.870    592.000    554.958     37.042    508.945    550.510    508.945    511.149    511.192
 34.970    587.000    543.612     43.388    508.563    539.249    508.563    510.752    510.737
 35.070    512.916    536.807    -23.891    508.182    532.525    508.182    510.358    510.288
 35.170    511.000    532.200    -21.200    507.802    527.996    507.802    509.967    509.843
 35.270    555.720    528.761     26.959    507.424    524.629    507.424    509.578    509.403
 35.370    490.000    526.038    -36.038    507.047    521.975    507.047    509.192    508.966
 35.470    549.000    523.807     25.193    506.672    519.809    506.672    508.808    508.534
 35.570    504.000    521.939    -17.939    506.298    518.002    506.298    508.427    508.106
 35.670    537.981    520.346     17.635    505.925    516.467    505.925    508.048    507.682
 35.770    455.000    518.966    -63.966    505.554    515.142    505.554    507.672    507.261
 35.870    539.433    517.756     21.677    505.184    513.982    505.184    507.298    506.844
 35.970    522.000    516.681      5.319    504.816    512.956    504.816    506.926    506.431
 36.070    463.000    515.718    -52.718    504.449    512.039    504.449    506.557    506.021
 36.170    542.444    514.847     27.597    504.083    511.211    504.083    506.190    505.614
 36.270    507.000    514.055     -7.055    503.719    510.459    503.719    505.825    505.210
 36.370    489.000    513.332    -24.332    503.357    509.773    503.357    505.463    504.810
 36.470    491.000    512.668    -21.668    502.996    509.145    502.996    505.103    504.413
 36.570    508.000    512.061     -4.061    502.637    508.571    502.637    504.745    504.019
 36.670    533.000    511.507     21.493    502.279    508.048    502.279    504.390    503.628
 36.770    540.043    511.009     29.034    501.923    507.578    501.923    504.037    503.239
 36.870    530.954    510.573     20.381    501.568    507.170    501.568    503.686    502.854
 36.970    562.000    510.224     51.776    501.215    506.846    501.215    503.338    502.471
 37.070    500.335    510.010     -9.675    500.864    506.655    500.864    502.992    502.091
 37.170    469.000    510.029    -41.029    500.514    506.696    500.514    502.648    501.714
 37.270    505.000    510.436     -5.436    500.166    507.123    500.166    502.307    501.340
 37.370    542.000    511.428     30.572    499.820    508.133    499.820    501.967    500.969
 37.470    533.000    513.162     19.838    499.475    509.885    499.475    501.630    500.600
 37.570    518.000    515.620      2.380    499.132    512.357    499.132    501.296    500.233
 37.670    532.000    518.409     13.591    498.791    515.161    498.791    500.964    499.869
 37.770    515.000    520.632     -5.632    498.451    517.398    498.451    500.634    499.508
 37.870    497.000    521.183    -24.183    498.113    517.962    498.113    500.306    499.149
 37.970    516.000    519.685     -3.685    497.777    516.475    497.777    499.981    498.793
 38.070    512.000    516.872     -4.872    497.443    513.671    497.443    499.658    498.440
 38.170    471.267    513.681    -42.414    497.110    510.487    497.110    499.338    498.089
 38.270    484.000    510.665    -26.665    496.779    507.475    496.779    499.020    497.740
 38.370    504.000    508.128     -4.128    496.451    504.940    496.451    498.704    497.394
 38.470    487.000    506.184    -19.184    496.123    502.996    496.123    498.391    497.050
 38.570    522.458    504.774     17.684    495.798    501.586    495.798    498.080    496.709
 38.670    523.000    503.763     19.237    495.475    500.575    495.475    497.771    496.370
 38.770    509.004    503.019      5.985    495.153    499.829    495.153    497.465    496.033
 38.870    483.000    502.439    -19.439    494.833    499.246    494.833    497.162    495.699
 38.970    487.000    501.957    -14.957    494.515    498.761    494.515    496.861    495.367
 39.070    491.000    501.534    -10.534    494.199    498.333    494.199    496.562    495.038
 39.170    476.000    501.148    -25.148    493.885    497.942    493.885    496.266    494.711
 39.270    524.450    500.789     23.661    493.573    497.576    493.573    495.973    494.386
 39.370    522.000    500.450     21.550    493.262    497.230    493.262    495.682    494.064
 39.470    520.000    500.129     19.871    492.954    496.900    492.954    495.394    493.744
 39.570    507.000    499.818      7.182    492.647    496.579    492.647    495.108    493.427
 39.670    512.000    499.526     12.474    492.343    496.276    492.343    494.825    493.112
 39.770    504.000    499.248      4.752    492.040    495.986    492.040    494.544    492.799
 39.870    505.000    498.983      6.017    491.740    495.708    491.740    494.267    492.488
 39.970    482.000    498.730    -16.730    491.441    495.441    491.441    493.992    492.180
 40.070    516.000    498.490     17.510    491.144    495.186    491.144    493.719    491.874
 40.170    467.000    498.262    -31.262    490.849    494.942    490.849    493.450    491.571
 40.270    464.000    498.049    -34.049    490.557    494.710    490.557    493.183    491.270
 40.370    493.000    497.849     -4.849    490.266    494.492    490.266    492.919    490.971
 40.470    477.000    497.665    -20.665    489.977    494.288    489.977    492.658    490.675
 40.570    497.644    497.497      0.147    489.691    494.099    489.691    492.399    490.381
 40.670    501.000    497.348      3.652    489.406    493.928    489.406    492.144    490.089
 40.770    452.527    497.220    -44.694    489.123    493.777    489.123    491.891    489.800
 40.870    519.513    497.117     22.396    488.843    493.649    488.843    491.642    489.513
 40.970    541.005    497.041     43.964    488.564    493.547    488.564    491.395    489.228
 41.070    509.000    496.998     12.002    488.287    493.477    488.287    491.151    488.946
 41.170    464.000    496.994    -32.994    488.013    493.444    488.013    490.911    488.666
 41.270    515.034    497.037     17.996    487.740    493.458    487.740    490.674    488.388
 41.370    502.000    497.139      4.861    487.470    493.529    487.470    490.439    488.113
 41.470    472.000    497.316    -25.316    487.202    493.673    487.202    490.208    487.840
 41.570    477.000    497.588    -20.588    486.936    493.912    486.936    489.980    487.570
 41.670    472.000    497.993    -25.993    486.672    494.281    486.672    489.756    487.302
 41.770    469.000    498.597    -29.597    486.410    494.849    486.410    489.535    487.036
 41.870    539.681    499.535     40.145    486.150    495.749    486.150    489.317    486.773
 41.970    483.000    501.085    -18.085    485.892    497.259    485.892    489.102    486.512
 42.070    539.664    503.771     35.893    485.636    499.905    485.636    488.892    486.253
 42.170    490.652    508.470    -17.818    485.383    504.563    485.383    488.684    485.997
 42.270    519.000    516.386      2.614    485.131    512.437    485.131    488.480    485.743
 42.370    533.748    528.750      4.997    484.882    524.760    484.882    488.280    485.492
 42.470    488.000    546.155    -58.155    484.635    542.124    484.635    488.084    485.243
 42.570    536.000    567.598    -31.598    484.390    563.528    484.390    487.892    484.996
 42.670    570.000    589.446    -19.446    484.147    585.335    484.147    487.703    484.752
 42.770    602.000    605.126     -3.126    483.906    600.970    483.906    487.519    484.511
 42.870    618.696    607.762     10.934    483.667    603.553    483.667    487.338    484.272
 42.970    577.810    595.846    -18.036    483.431    591.573    483.431    487.162    484.035
 43.070    620.225    574.953     45.271    483.196    570.607    483.196    486.990    483.800
 43.170    528.000    552.444    -24.444    482.964    548.020    482.964    486.822    483.569
 43.270    529.000    533.084     -4.084    482.734    528.581    482.734    486.659    483.339
 43.370    498.000    518.682    -20.682    482.506    514.099    482.506    486.500    483.113
 43.470    473.000    509.075    -36.075    482.281    504.414    482.281    486.346    482.888
 43.570    538.198    503.154     35.044    482.057    498.413    482.057    486.197    482.667
 43.670    521.000    499.643     21.357    481.836    494.819    481.836    486.053    482.447
 43.770    492.000    497.531     -5.531    481.616    492.624    481.616    485.914    482.231
 43.870    467.000    496.179    -29.179    481.399    491.184    481.399    485.781    482.016
 43.970    501.188    495.237      5.951    481.185    490.152    481.185    485.653    481.805
 44.070    537.769    494.533     43.236    480.972    489.354    480.972    485.530    481.596
 44.170    476.570    493.985    -17.415    480.761    488.707    480.761    485.414    481.390
 44.270    505.000    493.548     11.452    480.553    488.167    480.553    485.303    481.186
 44.370    512.000    493.197     18.803    480.347    487.710    480.347    485.199    480.985
 44.470    507.000    492.917     14.083    480.143    487.317    480.143    485.101    480.787
 44.570    464.000    492.695    -28.695    479.941    486.978    479.941    485.010    480.591
 44.670    477.483    492.522    -15.039    479.742    486.682    479.742    484.926    480.398
 44.770    495.822    492.392      3.429    479.544    486.425    479.544    484.850    480.208
 44.870    485.000    492.302     -7.302    479.349    486.200    479.349    484.781    480.021
 44.970    528.000    492.247     35.753    479.156    486.004    479.156    484.720    479.836
 45.070    510.000    492.225     17.775    478.965    485.834    478.965    484.668    479.655
 45.170    496.000    492.235      3.765    478.776    485.689    478.776    484.624    479.476
 45.270    497.000    492.276      4.724    478.590    485.567    478.590    484.590    479.300
 45.370    479.000    492.347    -13.347    478.405    485.466    478.405    484.565    479.128
 45.470    475.000    492.448    -17.448    478.223    485.388    478.223    484.550    478.958
 45.570    510.237    492.581     17.656    478.043    485.331    478.043    484.547    478.792
 45.670    483.333    492.747     -9.413    477.866    485.297    477.866    484.554    478.628
 45.770    465.000    492.946    -27.946    477.690    485.285    477.690    484.573    478.468
 45.870    546.000    493.181     52.819    477.517    485.298    477.517    484.605    478.312
 45.970    503.000    493.455      9.545    477.345    485.338    477.345    484.651    478.158
 46.070    468.000    493.770    -25.770    477.176    485.406    477.176    484.710    478.008
 46.170    531.935    494.132     37.804    477.009    485.506    477.009    484.784    477.862
 46.270    531.775    494.544     37.230    476.845    485.642    476.845    484.874    477.719
 46.370    453.000    495.014    -42.014    476.682    485.819    476.682    484.980    477.581
 46.470    486.000    495.548     -9.548    476.522    486.044    476.522    485.104    477.445
 46.570    462.000    496.158    -34.158    476.364    486.325    476.364    485.247    477.314
 46.670    466.000    496.857    -30.857    476.208    486.676    476.208    485.409    477.188
 46.770    452.907    497.666    -44.759    476.054    487.117    476.054    485.592    477.065
 46.870    511.194    498.620     12.574    475.902    487.680    475.902    485.798    476.947
 46.970    503.000    499.785      3.215    475.753    488.431    475.753    486.026    476.833
 47.070    516.008    501.288     14.721    475.605    489.493    475.605    486.280    476.724
 47.170    507.000    503.358      3.642    475.460    491.097    475.460    486.559    476.620
 47.270    503.426    506.386     -2.960    475.317    493.629    475.317    486.866    476.520
 47.370    490.000    510.931    -20.931    475.176    497.648    475.176    487.202    476.426
 47.470    557.000    517.658     39.342    475.037    503.817    475.037    487.567    476.338
 47.570    546.000    527.121     18.879    474.900    512.687    474.900    487.964    476.254
 47.670    524.000    539.409    -15.409    474.766    524.348    474.766    488.392    476.177
 47.770    569.263    553.714     15.549    474.634    537.989    474.634    488.854    476.105
 47.870    541.179    567.911    -26.731    474.503    551.487    474.503    489.349    476.039
 47.970    552.558    578.523    -25.965    474.375    561.369    474.375    489.879    475.979
 48.070    599.000    582.019     16.981    474.249    564.104    474.249    490.442    475.925
 48.170    622.182    577.460     44.722    474.125    558.756    474.125    491.037    475.876
 48.270    573.421    567.479      5.942    474.003    547.956    474.003    491.664    475.833
 48.370    526.291    555.963    -29.673    473.884    535.592    473.884    492.319    475.796
 48.470    541.296    545.786     -4.490    473.766    524.539    473.766    492.999    475.764
 48.570    555.000    538.364     16.636    473.651    516.221    473.651    493.699    475.736
 48.670    531.000    534.014     -3.014    473.537    510.960    473.537    494.412    475.712
 48.770    534.000    532.401      1.599    473.426    508.432    473.426    495.129    475.691
 48.870    548.000    532.952     15.048    473.317    508.074    473.317    495.841    475.671
 48.970    519.577    535.161    -15.584    473.210    509.394    473.210    496.536    475.651
 49.070    528.000    538.728    -10.728    473.105    512.108    473.105    497.201    475.630
 49.170    574.817    543.702     31.116    473.002    516.281    473.002    497.821    475.605
 49.270    520.958    550.701    -29.743    472.901    522.549    472.901    498.380    475.575
 49.370    575.000    561.531     13.469    472.802    532.733    472.802    498.862    475.538
 49.470    559.762    580.484    -20.722    472.705    551.142    472.705    499.254    475.492
 49.570    696.000    616.423     79.577    472.610    586.648    472.610    499.543    475.435
 49.670    685.000    684.850      0.150    472.517    654.765    472.517    499.718    475.365
 49.770    837.000    807.692     29.308    472.427    777.425    472.427    499.773    475.283
 49.870   1036.000   1007.497     28.503    472.338    977.183    472.338    499.706    475.187
 49.970   1277.783   1294.368    -16.585    472.251   1264.153    472.251    499.519    475.078
 50.070   1661.627   1649.102     12.525    472.167   1619.139    472.167    499.218    474.957
 50.170   2032.820   2011.317     21.503    472.084   1981.767    472.084    498.814    474.825
 50.270   2261.000   2283.704    -22.704    472.003   2254.713    472.003    498.319    474.684
 50.370   2399.000   2366.599     32.401    471.925   2338.272    471.925    497.749    474.536
 50.470   2161.000   2223.702    -62.702    471.848   2196.080    471.848    497.118    474.382
 50.570   1937.000   1915.442     21.558    471.773   1888.528    471.773    496.443    474.224
 50.670   1587.860   1548.486     39.374    471.701   1522.274    471.701    495.739    474.065
 50.770   1204.219   1212.715     -8.495    471.630   1187.202    471.630    495.018    473.905
 50.870    935.000    956.649    -21.649    471.561    931.840    471.561    494.293    473.748
 50.970    745.000    789.258    -44.258    471.494    765.156    471.494    493.575    473.592
 51.070    717.323    694.149     23.174    471.429    670.752    471.429    492.872    473.440
 51.170    633.000    646.003    -13.003    471.366    623.299    471.366    492.191    473.293
 51.270    634.409    621.965     12.444    471.305    599.931    471.305    491.537    473.150
 51.370    601.000    606.663     -5.663    471.246    585.268    471.246    490.914    473.013
 51.470    568.000    592.830    -24.830    471.189    572.037    471.189    490.325    472.881
 51.570    638.000    578.975     59.025    471.133    558.744    471.133    489.772    472.755
 51.670    595.000    565.994     29.006    471.080    546.287    471.080    489.256    472.634
 51.770    552.455    554.966     -2.511    471.028    535.744    471.028    488.778    472.519
 51.870    549.000    546.453      2.547    470.979    527.677    470.979    488.338    472.410
 51.970    557.000    540.500     16.500    470.931    522.132    470.931    487.935    472.307
 52.070    543.000    536.822      6.178    470.885    518.824    470.885    487.569    472.208
 52.170    582.000    535.010     46.990    470.841    517.345    470.841    487.240    472.115
 52.270    550.506    534.713     15.793    470.799    517.345    470.799    486.946    472.027
 52.370    555.000    535.763     19.237    470.758    518.656    470.758    486.686    471.944
 52.470    566.000    538.233     27.767    470.719    521.353    470.719    486.460    471.866
 52.570    521.786    542.578    -20.791    470.683    525.891    470.683    486.267    471.792
 52.670    585.681    549.819     35.862    470.648    533.294    470.648    486.105    471.723
 52.770    570.000    561.824      8.176    470.614    545.428    470.614    485.974    471.658
 52.870    628.295    581.559     46.736    470.583    565.262    470.583    485.873    471.597
 52.970    636.000    613.074     22.926    470.553    596.847    470.553    485.802    471.540
 53.070    680.256    660.930     19.326    470.525    644.743    470.525    485.759    471.486
 53.170    715.508    728.836    -13.328    470.499    712.663    470.499    485.745    471.437
 53.270    788.000    817.573    -29.573    470.475    801.388    470.475    485.759    471.391
 53.370    912.000    922.546    -10.546    470.452    906.322    470.452    485.800    471.348
 53.470   1075.000   1031.370     43.630    470.431   1015.083    470.431    485.869    471.309
 53.570   1127.000   1122.566      4.434    470.412   1106.192    470.412    485.965    471.273
 53.670   1124.000   1169.755    -45.755    470.395   1153.267    470.395    486.089    471.240
 53.770   1124.000   1155.962    -31.962    470.379   1139.331    470.379    486.240    471.210
 53.870   1101.000   1086.960     14.040    470.365   1070.151    470.365    486.419    471.183
 53.970    974.000    986.050    -12.050    470.352    969.029    470.352    486.625    471.159
 54.070    938.000    878.206     59.794    470.341    860.941    470.341    486.861    471.138
 54.170    743.000    780.770    -37.770    470.332    763.230    470.332    487.126    471.119
 54.270    754.138    702.386     51.752    470.325    684.542    470.325    487.421    471.103
 54.370    589.000    644.961    -55.961    470.319    626.785    470.319    487.746    471.090
 54.470    590.004    606.145    -16.142    470.314    587.608    470.314    488.104    471.080
 54.570    595.000    581.661     13.339    470.312    562.731    470.312    488.495    471.072
 54.670    589.000    567.086     21.914    470.311    547.732    470.311    488.920    471.066
 54.770    572.000    558.845     13.155    470.311    539.033    470.311    489.380    471.063
 54.870    524.301    554.488    -30.186    470.313    534.182    470.313    489.879    471.062
 54.970    593.000    552.538     40.462    470.317    531.700    470.317    490.416    471.064
 55.070    566.000    552.199     13.801    470.322    530.789    470.322    490.994    471.068
 55.170    522.272    553.084    -30.812    470.329    531.059    470.329    491.616    471.075
 55.270    515.178    555.036    -39.858    470.337    532.351    470.337    492.283    471.084
 55.370    574.000    558.032     15.968    470.347    534.641    470.347    492.998    471.095
 55.470    524.518    562.146    -37.628    470.358    537.999    470.358    493.763    471.109
 55.570    575.000    567.566      7.434    470.371    542.610    470.371    494.582    471.125
 55.670    578.000    574.667      3.333    470.385    548.846    470.385    495.457    471.143
 55.770    606.000    584.199     21.801    470.401    557.455    470.401    496.391    471.163
 55.870    606.000    597.636      8.364    470.418    569.905    470.418    497.389    471.186
 55.970    668.027    617.766     50.262    470.437    588.981    470.437    498.453    471.211
 56.070    639.000    649.492    -10.492    470.457    619.583    470.457    499.587    471.238
 56.170    678.000    700.632    -22.632    470.479    669.523    470.479    500.795    471.268
 56.270    735.000    782.159    -47.159    470.502    749.770    470.502    502.081    471.300
 56.370    859.879    907.084    -47.205    470.526    873.334    470.526    503.449    471.334
 56.470   1028.000   1087.278    -59.278    470.552   1052.085    470.552    504.903    471.371
 56.570   1172.000   1328.203   -156.203    470.579   1291.485    470.579    506.447    471.410
 56.670   1669.215   1622.583     46.632    470.607   1584.261    470.607    508.086    471.451
 56.770   1985.000   1944.654     40.346    470.637   1904.652    470.637    509.823    471.495
 56.870   2208.000   2246.825    -38.825    470.668   2205.065    470.668    511.661    471.541
 56.970   2484.000   2463.250     20.750    470.700   2419.646    470.700    513.603    471.590
 57.070   2500.000   2530.637    -30.637    470.734   2485.079    470.734    515.652    471.641
 57.170   2352.696   2426.169    -73.473    470.769   2378.517    470.769    517.808    471.695
 57.270   2072.000   2185.941   -113.941    470.806   2136.045    470.806    520.072    471.751
 57.370   1912.000   1877.860     34.140    470.843   1825.580    470.843    522.442    471.810
 57.470   1567.000   1564.710      2.290    470.882   1509.925    470.882    524.914    471.872
 57.570   1240.000   1288.469    -48.469    470.922   1231.079    470.922    527.483    471.936
 57.670   1056.449   1069.711    -13.263    470.963   1009.632    470.963    530.138    472.002
 57.770    881.000    911.991    -30.991    471.006    849.157    471.006    532.868    472.072
 57.870    786.000    808.014    -22.014    471.050    742.378    471.050    535.656    472.144
 57.970    772.000    746.012     25.988    471.095    677.546    471.095    538.481    472.218
 58.070    739.000    714.718     24.282    471.141    643.418    471.141    541.316    472.296
 58.170    688.000    706.082    -18.082    471.188    631.970    471.188    544.133    472.375
 58.270    674.000    715.826    -41.826    471.236    638.960    471.236    546.893    472.458
 58.370    768.901    742.541     26.361    471.286    663.015    471.286    549.558    472.543
 58.470    807.000    786.057     20.943    471.337    704.013    471.337    552.082    472.630
 58.570    843.975    845.699     -1.724    471.388    761.325    471.388    554.420    472.720
 58.670    881.638    918.768    -37.130    471.441    832.300    471.441    556.523    472.812
 58.770    993.000    999.572     -6.572    471.495    911.296    471.495    558.344    472.907
 58.870   1092.959   1079.852     13.106    471.550    990.099    471.550    559.842    473.004
 58.970   1128.601   1151.229    -22.628    471.606   1060.363    471.606    560.977    473.103
 59.070   1229.000   1207.268     21.732    471.664   1115.684    471.664    561.722    473.205
 59.170   1271.306   1242.479     28.827    471.722   1150.587    471.722    562.058    473.308
 59.270   1301.402   1251.960     49.442    471.781   1160.173    471.781    561.976    473.415
 59.370   1264.000   1235.711     28.289    471.841   1144.434    471.841    561.482    473.524
 59.470   1193.439   1202.400     -8.961    471.902   1112.019    471.902    560.593    473.636
 59.570   1160.571   1165.941     -5.370    471.964   1076.810    471.964    559.334    473.750
 59.670   1227.000   1139.337     87.663    472.027   1051.777    472.027    557.742    473.868
 59.770   1186.000   1132.211     53.789    472.091   1046.503    472.091    555.858    473.988
 59.870   1180.000   1151.554     28.446    472.156   1067.938    472.156    553.729    474.112
 59.970   1220.000   1201.435     18.565    472.222   1120.105    472.222    551.402    474.240
 60.070   1343.000   1279.727     63.273    472.289   1200.835    472.289    548.925    474.370
 60.170   1393.000   1374.855     18.145    472.357   1298.515    472.357    546.341    474.505
 60.270   1536.000   1465.423     70.577    472.425   1391.718    472.425    543.693    474.643
 60.370   1562.385   1523.746     38.639    472.494   1452.724    472.494    541.018    474.784
 60.470   1529.000   1525.161      3.839    472.565   1456.838    472.565    538.346    474.928
 60.570   1475.000   1461.207     13.793    472.636   1395.562    472.636    535.706    475.076
 60.670   1388.000   1344.895     43.105    472.708   1281.873    472.708    533.118    475.225
 60.770   1225.000   1201.463     23.537    472.780   1140.988    472.780    530.601    475.377
 60.870   1076.000   1055.751     20.249    472.854    997.729    472.854    528.166    475.531
 60.970    965.664    925.827     39.837    472.928    870.158    472.928    525.824    475.684
 61.070    816.004    821.784     -5.780    473.003    768.362    473.003    523.582    475.838
 61.170    772.000    746.885     25.115    473.078    695.605    473.078    521.442    475.990
 61.270    697.000    699.930     -2.930    473.155    650.687    473.155    519.406    476.140
 61.370    632.000    678.031    -46.031    473.232    630.723    473.232    517.475    476.286
 61.470    638.278    678.910    -40.632    473.310    633.437    473.310    515.647    476.428
 61.570    671.970    702.053    -30.083    473.388    658.319    473.388    513.918    476.563
 61.670    815.000    748.514     66.486    473.467    706.426    473.467    512.287    476.691
 61.770    805.975    819.524    -13.549    473.547    778.995    473.547    510.748    476.810
 61.870    930.000    914.379     15.621    473.627    875.328    473.627    509.299    476.920
 61.970    951.000   1028.250    -77.250    473.708    990.603    473.708    507.934    477.020
 62.070   1143.162   1150.522     -7.360    473.790   1114.216    473.790    506.649    477.109
 62.170   1202.000   1264.126    -62.126    473.872   1229.107    473.872    505.440    477.188
 62.270   1293.000   1346.893    -53.893    473.955   1313.115    473.955    504.303    477.255
 62.370   1293.000   1377.509    -84.509    474.038   1344.933    474.038    503.233    477.311
 62.470   1264.000   1346.400    -82.400    474.122   1314.986    474.122    502.228    477.358
 62.570   1243.000   1262.126    -19.126    474.207   1231.825    474.207    501.282    477.395
 62.670   1080.000   1145.486    -65.486    474.292   1116.244    474.292    500.394    477.423
 62.770   1028.000   1018.665      9.335    474.377    990.426    474.377    499.560    477.445
 62.870    879.462    898.919    -19.457    474.463    871.629    474.463    498.777    477.460
 62.970    737.000    796.921    -59.921    474.549    770.532    474.549    498.042    477.470
 63.070    666.099    717.186    -51.088    474.636    691.650    474.636    497.354    477.476
 63.170    635.000    659.433    -24.433    474.724    634.708    474.724    496.708    477.480
 63.270    627.000    620.439      6.561    474.811    596.486    474.811    496.104    477.482
 63.370    633.000    595.867     37.133    474.899    572.649    474.899    495.539    477.484
 63.470    617.800    581.652     36.148    474.988    559.133    474.988    495.011    477.486
 63.570    602.440    574.780     27.660    475.077    552.925    475.077    494.519    477.489
 63.670    574.000    573.554      0.446    475.166    552.330    475.166    494.060    477.494
 63.770    554.000    577.542    -23.542    475.255    556.914    475.255    493.632    477.501
 63.870    621.000    587.358     33.642    475.345    567.292    475.345    493.234    477.510
 63.970    614.000    604.352      9.648    475.436    584.817    475.436    492.866    477.522
 64.070    715.000    630.197     84.803    475.526    611.159    475.526    492.524    477.537
 64.170    621.000    666.329    -45.329    475.617    647.759    475.617    492.207    477.556
 64.270    725.000    713.285     11.715    475.708    695.152    475.708    491.916    477.578
 64.370    727.000    769.977    -42.977    475.799    752.255    475.799    491.647    477.603
 64.470    794.628    833.034    -38.406    475.891    815.698    475.891    491.401    477.632
 64.570    940.998    896.329     44.669    475.982    879.359    475.982    491.175    477.664
 64.670    973.240    951.140     22.100    476.074    934.519    476.074    490.969    477.699
 64.770    985.000    987.896     -2.896    476.167    971.612    476.167    490.783    477.737
 64.870   1046.342    999.749     46.593    476.259    983.789    476.259    490.615    477.779
 64.970   1011.000    985.605     25.395    476.351    969.957    476.351    490.464    477.824
 65.070    940.552    950.015     -9.463    476.444    934.662    476.444    490.330    477.871
 65.170    926.943    900.777     26.166    476.537    885.699    476.537    490.212    477.922
 65.270    861.000    846.232     14.768    476.630    831.410    476.630    490.109    477.975
 65.370    803.000    793.132      9.868    476.723    778.543    476.723    490.021    478.030
 65.470    698.000    745.540    -47.540    476.816    731.163    476.816    489.948    478.089
 65.570    675.024    704.909    -29.884    476.909    690.724    476.909    489.888    478.149
 65.670    688.000    671.027     16.973    477.002    657.013    477.002    489.842    478.212
 65.770    628.000    643.145    -15.145    477.095    629.285    477.095    489.808    478.276
 65.870    596.000    620.587    -24.587    477.188    606.863    477.188    489.788    478.343
 65.970    590.000    602.780    -12.780    477.282    589.176    477.282    489.779    478.412
 66.070    594.833    589.148      5.685    477.375    575.651    477.375    489.783    478.482
 66.170    564.000    579.121    -15.121    477.468    565.718    477.468    489.799    478.554
 66.270    525.174    572.186    -47.012    477.561    558.864    477.561    489.827    478.628
 66.370    593.027    567.922     25.105    477.654    554.670    477.654    489.866    478.703
 66.470    556.544    566.006     -9.462    477.747    552.811    477.747    489.916    478.780
 66.570    570.000    566.225      3.775    477.840    553.076    477.840    489.978    478.858
 66.670    579.000    568.531     10.469    477.933    555.415    477.933    490.052    478.938
 66.770    562.041    573.141    -11.099    478.026    560.045    478.026    490.136    479.019
 66.870    587.000    580.697      6.303    478.118    567.608    478.118    490.233    479.101
 66.970    590.000    592.488     -2.488    478.211    579.394    478.211    490.340    479.184
 67.070    636.222    610.732     25.490    478.303    597.619    478.303    490.460    479.268
 67.170    644.856    638.855      6.001    478.395    625.710    478.395    490.591    479.353
 67.270    647.000    681.670    -34.670    478.487    668.479    478.487    490.734    479.440
 67.370    731.000    745.257    -14.257    478.579    732.006    478.579    490.890    479.527
 67.470    887.825    836.350     51.475    478.670    823.029    478.670    491.058    479.616
 67.570    999.123    961.093     38.030    478.761    947.690    478.761    491.239    479.705
 67.670   1147.000   1123.185     23.815    478.852   1109.691    478.852    491.434    479.795
 67.770   1248.000   1321.689    -73.689    478.943   1308.098    478.943    491.642    479.886
 67.870   1474.000   1548.931    -74.931    479.033   1535.238    479.033    491.865    479.978
 67.970   1746.000   1788.884    -42.884    479.124   1775.084    479.124    492.103    480.071
 68.070   2001.000   2016.486    -15.486    479.213   2002.575    479.213    492.356    480.165
 68.170   2242.000   2199.108     42.892    479.303   2185.076    479.303    492.626    480.260
 68.270   2421.000   2302.841    118.159    479.392   2288.670    479.392    492.913    480.356
 68.370   2324.000   2304.752     19.248    479.481   2290.409    479.481    493.219    480.452
 68.470   2278.177   2204.471     73.707    479.569   2189.909    479.569    493.543    480.550
 68.570   1994.415   2024.408    -29.994    479.657   2009.576    479.657    493.889    480.648
 68.670   1803.000   1798.372      4.628    479.744   1783.220    479.744    494.256    480.748
 68.770   1627.000   1559.165     67.835    479.831   1543.649    479.831    494.646    480.849
 68.870   1260.376   1332.100    -71.724    479.918   1316.187    479.918    495.060    480.951
 68.970   1104.860   1133.459    -28.599    480.004   1117.120    480.004    495.501    481.054
 69.070    950.000    971.134    -21.134    480.090    954.344    480.090    495.970    481.158
 69.170    902.665    846.223     56.442    480.175    828.957    480.175    496.469    481.264
 69.270    751.000    755.124     -4.124    480.260    737.356    480.260    497.001    481.371
 69.370    741.537    691.727     49.810    480.344    673.429    480.344    497.567    481.480
 69.470    648.000    649.280     -1.280    480.428    630.419    480.428    498.170    481.591
 69.570    652.345    621.653     30.693    480.511    602.191    480.511    498.813    481.703
 69.670    627.000    603.958     23.042    480.594    583.854    480.594    499.499    481.817
 69.770    601.060    592.675      8.385    480.676    571.881    480.676    500.232    481.933
 69.870    542.782    585.468    -42.687    480.758    563.935    480.758    501.014    482.051
 69.970    578.000    580.897     -2.897    480.838    558.567    480.838    501.849    482.171
 70.070    539.000    578.123    -39.123    480.919    554.936    480.919    502.742    482.294
 70.170    545.973    576.688    -30.716    480.998    552.580    480.998    503.696    482.419
 70.270    588.000    576.367     11.633    481.077    551.268    481.077    504.715    482.548
 70.370    569.024    577.079     -8.055    481.156    550.915    481.156    505.805    482.679
 70.470    597.000    578.863     18.137    481.233    551.555    481.233    506.969    482.813
 70.570    651.000    581.890     69.110    481.310    553.352    481.310    508.213    482.950
 70.670    565.077    586.513    -21.436    481.386    556.657    481.386    509.542    483.091
 70.770    574.000    593.367    -19.367    481.462    562.096    481.462    510.961    483.236
 70.870    567.964    603.496    -35.533    481.537    570.711    481.537    512.474    483.384
 70.970    569.053    618.519    -49.466    481.611    584.113    481.611    514.086    483.536
 71.070    595.444    640.761    -45.317    481.684    604.625    481.684    515.801    483.692
 71.170    705.060    673.320     31.740    481.756    635.338    481.756    517.623    483.852
 71.270    695.000    719.943    -24.943    481.828    679.995    481.828    519.556    484.017
 71.370    811.000    784.640     26.360    481.899    742.608    481.899    521.600    484.185
 71.470    875.000    870.984      4.016    481.969    826.747    481.969    523.756    484.357
 71.570    942.000    981.114    -39.114    482.038    934.555    482.038    526.022    484.533
 71.670   1070.000   1114.594    -44.594    482.107   1065.603    482.107    528.394    484.713
 71.770   1331.516   1267.325     64.192    482.174   1215.801    482.174    530.864    484.895
 71.870   1416.000   1430.694    -14.694    482.241   1376.554    482.241    533.421    485.079
 71.970   1535.765   1591.094    -55.328    482.307   1534.272    482.307    536.049    485.264
 72.070   1755.000   1730.148     24.852    482.372   1670.606    482.372    538.725    485.450
 72.170   1779.000   1826.827    -47.827    482.436   1764.554    482.436    541.422    485.634
 72.270   1790.000   1863.019    -73.019    482.499   1798.039    482.499    544.104    485.816
 72.370   1875.517   1831.354     44.163    482.561   1763.729    482.561    546.729    485.992
 72.470   1761.682   1739.182     22.500    482.622   1669.016    482.622    549.248    486.162
 72.570   1668.000   1604.553     63.447    482.682   1532.008    482.682    551.607    486.323
 72.670   1387.848   1448.398    -60.550    482.741   1373.694    482.741    553.746    486.473
 72.770   1317.000   1288.968     28.032    482.800   1212.389    482.800    555.607    486.610
 72.870   1185.000   1139.743     45.257    482.857   1061.635    482.857    557.130    486.731
 72.970   1009.000   1009.217     -0.217    482.913    929.980    482.913    558.266    486.835
 73.070    861.973    901.396    -39.423    482.968    821.471    482.968    558.975    486.920
 73.170    795.225    816.658    -21.433    483.022    736.515    483.022    559.231    486.986
 73.270    758.000    752.852      5.148    483.075    672.970    483.075    559.026    487.032
 73.370    723.516    706.435     17.081    483.127    627.284    483.127    558.368    487.059
 73.470    691.111    673.459     17.651    483.178    595.482    483.178    557.285    487.067
 73.570    653.000    650.265      2.735    483.228    573.864    483.228    555.816    487.058
 73.670    633.000    633.865     -0.865    483.276    559.388    483.276    554.013    487.034
 73.770    608.000    622.052    -14.052    483.324    549.788    483.324    551.934    486.996
 73.870    589.123    613.335    -24.212    483.370    543.509    483.370    549.638    486.947
 73.970    595.000    606.779    -11.779    483.415    539.558    483.415    547.183    486.889
 74.070    612.390    601.835     10.556    483.459    537.326    483.459    544.625    486.825
 74.170    599.935    598.175      1.760    483.502    536.439    483.502    542.011    486.755
 74.270    560.000    595.579    -35.579    483.544    536.629    483.544    539.385    486.683
 74.370    611.000    593.838     17.162    483.584    537.653    483.584    536.779    486.610
 74.470    602.000    592.706      9.294    483.623    539.234    483.623    534.223    486.536
 74.570    575.385    591.863    -16.478    483.661    541.030    483.661    531.737    486.464
 74.670    569.521    590.909    -21.388    483.698    542.624    483.698    529.339    486.393
 74.770    613.000    589.405     23.595    483.734    543.563    483.734    527.038    486.325
 74.870    589.599    586.975      2.624    483.768    543.463    483.768    524.842    486.261
 74.970    642.000    583.461     58.539    483.801    542.161    483.801    522.756    486.200
 75.070    654.000    579.011     74.989    483.832    539.803    483.832    520.781    486.142
 75.170    611.000    574.024     36.976    483.863    536.790    483.863    518.916    486.089
 75.270    587.000    569.020     17.980    483.892    533.643    483.892    517.160    486.039
 75.370    622.000    564.532     57.468    483.920    530.900    483.920    515.510    485.993
 75.470    606.000    561.075     44.925    483.946    529.078    483.946    513.962    485.951
 75.570    593.362    559.141     34.220    483.971    528.677    483.971    512.512    485.913
 75.670    521.433    559.208    -37.775    483.995    530.177    483.995    511.154    485.879
 75.770    569.014    561.732      7.281    484.017    534.040    484.017    509.884    485.847
 75.870    572.000    567.126      4.874    484.038    540.684    484.038    508.697    485.819
 75.970    563.000    575.691    -12.691    484.057    550.415    484.057    507.588    485.794
 76.070    569.157    587.549    -18.392    484.076    563.360    484.076    506.552    485.772
 76.170    663.000    602.549     60.451    484.092    579.373    484.092    505.584    485.753
 76.270    603.000    620.174    -17.174    484.108    597.941    484.108    504.680    485.736
 76.370    628.013    639.460    -11.447    484.121    618.107    484.121    503.836    485.722
 76.470    627.378    658.955    -31.577    484.134    638.423    484.134    503.046    485.710
 76.570    702.000    676.719     25.281    484.145    656.953    484.145    502.307    485.700
 76.670    695.000    690.473      4.527    484.154    671.422    484.154    501.616    485.692
 76.770    677.933    697.999    -20.066    484.162    679.618    484.162    500.969    485.686
 76.870    643.000    697.811    -54.811    484.169    680.057    484.169    500.362    485.682
 76.970    728.819    689.760     39.059    484.174    672.593    484.174    499.793    485.680
 77.070    662.000    675.100    -13.100    484.177    658.481    484.177    499.259    485.679
 77.170    657.000    655.951      1.049    484.179    639.844    484.179    498.756    485.680
 77.270    638.000    634.597      3.403    484.179    618.969    484.179    498.283    485.683
 77.370    617.812    613.022      4.790    484.178    597.838    484.178    497.838    485.687
 77.470    576.000    592.720    -16.720    484.175    577.951    484.175    497.418    485.692
 77.570    562.000    574.676    -12.676    484.171    560.292    484.171    497.021    485.699
 77.670    571.000    559.404     11.596    484.165    545.378    484.165    496.645    485.707
 77.770    586.589    547.026     39.563    484.158    533.334    484.158    496.290    485.716
 77.870    494.000    537.373    -43.373    484.149    523.990    484.149    495.953    485.727
 77.970    516.439    530.090    -13.651    484.138    516.995    484.138    495.633    485.739
 78.070    499.200    524.741    -25.541    484.126    511.913    484.126    495.328    485.752
 78.170    501.000    520.885    -19.885    484.112    508.305    484.112    495.039    485.767
 78.270    498.440    518.132    -19.692    484.097    505.781    484.097    494.762    485.783
 78.370    494.453    516.163    -21.711    484.080    504.025    484.080    494.499    485.800
 78.470    490.128    514.741    -24.613    484.061    502.799    484.061    494.247    485.818
 78.570    557.730    513.698     44.032    484.040    501.937    484.040    494.005    485.838
 78.670    471.130    512.923    -41.793    484.018    501.329    484.018    493.774    485.859
 78.770    486.000    512.350    -26.350    483.994    500.908    483.994    493.552    485.880
 78.870    510.917    511.941     -1.024    483.969    500.638    483.969    493.339    485.903
 78.970    510.000    511.681     -1.681    483.942    500.506    483.942    493.133    485.927
 79.070    507.000    511.570     -4.570    483.913    500.511    483.913    492.936    485.951
 79.170    542.000    511.620     30.380    483.882    500.666    483.882    492.745    485.976
 79.270    493.846    511.852    -18.006    483.850    500.992    483.850    492.560    486.001
 79.370    515.972    512.294      3.679    483.816    501.519    483.816    492.381    486.027
 79.470    543.946    512.982     30.964    483.780    502.283    483.780    492.208    486.052
 79.570    496.000    513.961    -17.961    483.743    503.331    483.743    492.040    486.076
 79.670    560.000    515.290     44.710    483.703    504.721    483.703    491.877    486.099
 79.770    536.491    517.042     19.449    483.662    506.529    483.662    491.718    486.120
 79.870    494.000    519.320    -25.320    483.620    508.857    483.620    491.563    486.139
 79.970    516.000    522.258     -6.258    483.575    511.841    483.575    491.411    486.154
 80.070    546.693    526.030     20.663    483.529    515.656    483.529    491.263    486.166
 80.170    510.000    530.843    -20.843    483.481    520.512    483.481    491.118    486.174
 80.270    560.000    536.943     23.057    483.431    526.652    483.431    490.975    486.176
 80.370    533.084    544.698    -11.614    483.379    534.449    483.379    490.835    486.171
 80.470    577.000    554.410     22.590    483.325    544.205    483.325    490.697    486.160
 80.570    548.000    566.387    -18.387    483.270    556.230    483.270    490.561    486.140
 80.670    588.581    580.834      7.747    483.213    570.728    483.213    490.427    486.112
 80.770    576.667    597.753    -21.086    483.154    587.704    483.154    490.294    486.075
 80.870    560.000    616.862    -56.862    483.093    606.876    483.093    490.162    486.027
 80.970    682.175    637.549     44.626    483.030    627.632    483.030    490.031    485.970
 81.070    646.353    658.884    -12.531    482.966    649.042    482.966    489.901    485.902
 81.170    726.203    679.704     46.499    482.899    669.943    482.899    489.772    485.823
 81.270    634.000    698.767    -64.767    482.831    689.094    482.831    489.643    485.735
 81.370    762.742    714.929     47.814    482.761    705.349    482.761    489.515    485.636
 81.470    710.855    727.253    -16.399    482.689    717.772    482.689    489.387    485.527
 81.570    765.545    735.093     30.453    482.615    725.715    482.615    489.260    485.410
 81.670    769.000    738.140     30.860    482.539    728.869    482.539    489.133    485.284
 81.770    718.000    736.432    -18.432    482.461    727.269    482.461    489.006    485.151
 81.870    697.000    730.255    -33.255    482.382    721.204    482.382    488.880    485.011
 81.970    719.000    720.078     -1.078    482.300    711.138    482.300    488.754    484.865
 82.070    741.696    706.572     35.124    482.217    697.742    482.217    488.628    484.714
 82.170    722.000    690.641     31.359    482.132    681.921    482.132    488.502    484.558
 82.270    662.000    673.313    -11.313    482.045    664.701    482.045    488.376    484.399
 82.370    653.000    655.524     -2.524    481.955    647.017    481.955    488.251    484.237
 82.470    628.249    637.961     -9.712    481.864    629.557    481.864    488.126    484.073
 82.570    630.000    621.055      8.945    481.771    612.751    481.771    488.001    483.907
 82.670    618.000    605.088     12.912    481.676    596.881    481.676    487.876    483.739
 82.770    588.000    590.308     -2.308    481.580    582.194    481.580    487.752    483.571
 82.870    532.000    576.982    -44.982    481.481    568.957    481.481    487.627    483.402
 82.970    568.000    565.371      2.629    481.380    557.430    481.380    487.502    483.233
 83.070    529.000    555.692    -26.692    481.277    547.833    481.277    487.378    483.063
 83.170    501.000    548.098    -47.098    481.173    540.315    481.173    487.254    482.894
 83.270    559.000    542.658     16.342    481.066    534.948    481.066    487.129    482.724
 83.370    521.000    539.364    -18.364    480.957    531.722    480.957    487.005    482.555
 83.470    550.407    538.115     12.292    480.847    530.537    480.847    486.881    482.387
 83.570    526.085    538.715    -12.630    480.734    531.197    480.734    486.756    482.218
 83.670    492.000    540.867    -48.867    480.620    533.405    480.620    486.632    482.050
 83.770    519.000    544.175    -25.175    480.503    536.765    480.503    486.507    481.882
 83.870    537.000    548.153    -11.153    480.385    540.793    480.385    486.382    481.714
 83.970    589.000    552.238     36.762    480.264    544.924    480.264    486.257    481.546
 84.070    592.000    555.820     36.180    480.142    548.549    480.142    486.132    481.379
 84.170    560.939    558.302      2.637    480.018    551.073    480.018    486.007    481.212
 84.270    534.000    559.196    -25.196    479.891    552.007    479.891    485.882    481.044
 84.370    538.000    558.232    -20.232    479.763    551.081    479.763    485.756    480.877
 84.470    600.159    555.427     44.732    479.633    548.311    479.633    485.630    480.709
 84.570    541.000    551.059    -10.059    479.500    543.977    479.500    485.504    480.541
 84.670    539.382    545.571     -6.189    479.366    538.519    479.366    485.378    480.373
 84.770    586.000    539.454     46.546    479.229    532.429    479.229    485.251    480.205
 84.870    540.000    533.165      6.835    479.091    526.164    479.091    485.125    480.036
 84.970    506.000    527.085    -21.085    478.951    520.104    478.951    484.998    479.867
 85.070    563.000    521.502     41.498    478.808    514.537    478.808    484.871    479.697
 85.170    513.000    516.602     -3.602    478.664    509.650    478.664    484.743    479.526
 85.270    534.413    512.483     21.929    478.518    505.540    478.518    484.616    479.355
 85.370    488.213    509.165    -20.952    478.369    502.226    478.369    484.488    479.183
 85.470    507.000    506.609      0.391    478.219    499.671    478.219    484.360    479.010
 85.570    495.219    504.743     -9.524    478.067    497.803    478.067    484.232    478.836
 85.670    535.000    503.481     31.519    477.912    496.536    477.912    484.104    478.661
 85.770    499.000    502.741     -3.741    477.756    495.787    477.756    483.975    478.486
 85.870    471.000    502.459    -31.459    477.598    495.493    477.598    483.847    478.309
 85.970    503.360    502.599      0.761    477.437    495.618    477.437    483.718    478.131
 86.070    527.270    503.158     24.111    477.275    496.159    477.275    483.590    477.952
 86.170    529.000    504.169     24.831    477.111    497.148    477.111    483.462    477.772
 86.270    491.000    505.699    -14.699    476.944    498.652    476.944    483.333    477.591
 86.370    537.632    507.844     29.788    476.776    500.769    476.776    483.205    477.408
 86.470    514.000    510.727      3.273    476.606    503.619    476.606    483.077    477.224
 86.570    499.475    514.479    -15.004    476.433    507.335    476.433    482.949    477.039
 86.670    536.000    519.229     16.771    476.259    512.045    476.259    482.821    476.853
 86.770    520.125    525.083     -4.958    476.083    517.855    476.083    482.694    476.665
 86.870    553.000    532.096     20.904    475.904    524.819    475.904    482.567    476.475
 86.970    553.000    540.249     12.751    475.724    532.920    475.724    482.440    476.285
 87.070    543.000    549.422     -6.422    475.542    542.036    475.542    482.315    476.092
 87.170    580.000    559.368     20.632    475.357    551.923    475.357    482.189    475.899
 87.270    555.000    569.706    -14.706    475.171    562.197    475.171    482.065    475.704
 87.370    625.000    579.905     45.095    474.983    572.331    474.983    481.941    475.507
 87.470    582.267    589.304     -7.037    474.793    581.663    474.793    481.818    475.309
 87.570    603.596    597.150      6.446    474.600    589.442    474.600    481.696    475.110
 87.670    610.000    602.707      7.293    474.406    594.930    474.406    481.575    474.908
 87.770    628.000    605.410     22.590    474.210    597.566    474.210    481.456    474.706
 87.870    559.501    605.040    -45.539    474.012    597.127    474.012    481.338    474.502
 87.970    585.272    601.790    -16.517    473.812    593.807    473.812    481.221    474.296
 88.070    642.169    596.198     45.970    473.610    588.145    473.610    481.106    474.088
 88.170    572.000    589.008    -17.008    473.406    580.881    473.406    480.993    473.880
 88.270    609.000    581.024     27.976    473.200    572.819    473.200    480.881    473.669
 88.370    608.000    573.021     34.979    472.992    564.734    472.992    480.772    473.457
 88.470    534.270    565.695    -31.425    472.782    557.321    472.782    480.665    473.244
 88.570    582.875    559.616     23.259    472.570    551.149    472.570    480.560    473.028
 88.670    575.000    555.200     19.800    472.357    546.635    472.357    480.458    472.812
 88.770    578.000    552.692     25.308    472.141    544.023    472.141    480.358    472.593
 88.870    548.000    552.164     -4.164    471.924    543.385    471.924    480.261    472.373
 88.970    572.000    553.514     18.486    471.704    544.620    471.704    480.168    472.152
 89.070    560.000    556.487      3.513    471.483    547.471    471.483    480.078    471.929
 89.170    599.000    560.688     38.312    471.259    551.545    471.259    479.991    471.704
 89.270    571.000    565.606      5.394    471.034    556.328    471.034    479.909    471.478
 89.370    571.000    570.640      0.360    470.807    561.222    470.807    479.830    471.251
 89.470    610.282    575.140     35.142    470.578    565.575    470.578    479.755    471.022
 89.570    538.000    578.466    -40.466    470.347    568.744    470.347    479.685    470.791
 89.670    594.345    580.074     14.271    470.115    570.189    470.115    479.620    470.559
 89.770    610.588    579.627     30.961    469.880    569.569    469.880    479.559    470.325
 89.870    568.000    577.060     -9.060    469.644    566.819    469.644    479.504    470.090
 89.970    577.000    572.582      4.418    469.405    562.149    469.405    479.455    469.853
 90.070    521.023    566.600    -45.577    469.165    555.966    469.165    479.411    469.615
 90.170    592.000    559.615     32.385    468.923    548.769    468.923    479.372    469.375
 90.270    497.000    552.129    -55.129    468.679    541.063    468.679    479.341    469.134
 90.370    503.000    544.592    -41.592    468.434    533.295    468.434    479.315    468.892
 90.470    544.000    537.372      6.628    468.186    525.837    468.186    479.297    468.648
 90.570    519.764    530.750    -10.986    467.937    518.967    467.937    479.285    468.403
 90.670    506.000    524.913    -18.913    467.686    512.874    467.686    479.280    468.156
 90.770    521.688    519.965      1.723    467.433    507.660    467.433    479.283    467.908
 90.870    531.141    515.937     15.204    467.178    503.358    467.178    479.293    467.659
 90.970    516.000    512.806      3.194    466.922    499.943    466.922    479.311    467.408
 91.070    506.000    510.509     -4.509    466.664    497.354    466.664    479.336    467.156
 91.170    506.974    508.967     -1.992    466.404    495.509    466.404    479.370    466.902
 91.270    497.622    508.098    -10.476    466.142    494.329    466.142    479.410    466.648
 91.370    469.000    507.835    -38.835    465.879    493.745    465.879    479.459    466.391
 91.470    511.854    508.133      3.721    465.614    493.714    465.614    479.515    466.134
 91.570    509.000    508.981      0.019    465.347    494.222    465.347    479.578    465.875
 91.670    487.000    510.402    -23.402    465.078    495.295    465.078    479.648    465.615
 91.770    563.000    512.455     50.545    464.808    496.992    464.808    479.724    465.353
 91.870    492.000    515.238    -23.238    464.536    499.410    464.536    479.806    465.090
 91.970    490.000    518.878    -28.878    464.263    502.679    464.263    479.892    464.825
 92.070    532.651    523.528      9.123    463.987    506.951    463.987    479.983    464.559
 92.170    561.866    529.353     32.513    463.710    512.392    463.710    480.077    464.292
 92.270    515.000    536.518    -21.518    463.432    519.171    463.432    480.172    464.023
 92.370    530.946    545.173    -14.227    463.152    527.437    463.152    480.267    463.752
 92.470    560.100    555.418      4.682    462.870    537.292    462.870    480.361    463.480
 92.570    561.000    567.344     -6.344    462.586    548.830    462.586    480.452    463.206
 92.670    557.000    580.946    -23.946    462.301    562.047    462.301    480.537    462.930
 92.770    590.000    596.126     -6.126    462.015    576.849    462.015    480.614    462.652
 92.870    576.000    612.699    -36.699    461.727    593.051    461.727    480.682    462.373
 92.970    578.000    630.372    -52.372    461.437    610.365    461.437    480.737    462.091
 93.070    629.000    648.745    -19.745    461.146    628.394    461.146    480.778    461.807
 93.170    622.250    667.325    -45.075    460.853    646.647    460.853    480.802    461.520
 93.270    657.991    685.570    -27.579    460.559    664.584    460.559    480.807    461.232
 93.370    714.999    702.969     12.030    460.263    681.697    460.263    480.791    460.941
 93.470    750.000    719.144     30.856    459.966    697.610    459.966    480.752    460.647
 93.570    719.030    733.937    -14.907    459.667    712.166    459.667    480.687    460.351
 93.670    710.119    747.420    -37.301    459.367    725.439    459.367    480.597    460.052
 93.770    747.322    759.825    -12.503    459.065    737.660    459.065    480.479    459.751
 93.870    782.915    771.420     11.496    458.762    749.100    458.762    480.335    459.447
 93.970    727.808    782.414    -54.606    458.458    759.966    458.458    480.163    459.140
 94.070    807.000    792.941     14.059    458.152    770.391    458.152    479.964    458.830
 94.170    840.000    803.072     36.928    457.844    780.447    457.844    479.740    458.518
 94.270    816.000    812.901      3.099    457.536    790.225    457.536    479.491    458.204
 94.370    844.000    822.568     21.432    457.226    799.864    457.226    479.220    457.887
 94.470    856.000    832.204     23.796    456.915    809.491    456.915    478.929    457.568
 94.570    882.332    841.808     40.524    456.602    819.104    456.602    478.619    457.246
 94.670    903.084    851.135     51.948    456.288    828.456    456.288    478.295    456.922
 94.770    899.000    859.630     39.370    455.973    836.988    455.973    477.958    456.597
 94.870    842.000    866.442    -24.442    455.656    843.846    455.656    477.611    456.269
 94.970    866.900    870.520     -3.621    455.339    847.978    455.339    477.258    455.940
 95.070    938.000    870.782     67.218    455.020    848.296    455.020    476.901    455.609
 95.170    915.120    866.345     48.774    454.700    843.917    454.700    476.543    455.276
 95.270    913.000    856.765     56.235    454.378    834.392    454.378    476.187    454.943
 95.370    878.000    842.189     35.811    454.056    819.865    454.056    475.835    454.607
 95.470    840.000    823.362     16.638    453.732    801.079    453.732    475.489    454.271
 95.570    836.000    801.498     34.502    453.407    779.243    453.407    475.153    453.933
 95.670    806.000    778.077     27.923    453.081    755.837    453.081    474.827    453.595
 95.770    768.000    754.669     13.331    452.754    732.428    452.754    474.514    453.255
 95.870    792.000    732.961     59.039    452.426    710.702    452.426    474.215    452.915
 95.970    690.025    714.410    -24.385    452.097    692.114    452.097    473.932    452.573
 96.070    678.582    700.384    -21.802    451.767    678.031    451.767    473.667    452.231
 96.170    639.143    692.122    -52.979    451.435    669.691    451.435    473.420    451.888
 96.270    664.000    690.669    -26.669    451.103    668.137    451.103    473.194    451.545
 96.370    646.859    696.884    -50.025    450.770    674.229    450.770    472.988    451.200
 96.470    736.000    711.428     24.572    450.435    688.625    450.435    472.805    450.855
 96.570    722.000    734.739    -12.739    450.100    711.764    450.100    472.645    450.510
 96.670    770.000    767.006      2.994    449.764    743.834    449.764    472.509    450.164
 96.770    811.000    808.134      2.866    449.427    784.739    449.427    472.397    449.817
 96.870    821.000    857.689    -36.689    449.089    834.045    449.089    472.312    449.470
 96.970    954.000    914.849     39.151    448.751    890.928    448.751    472.253    449.123
 97.070    990.000    978.346     11.654    448.411    954.123    448.411    472.221    448.774
 97.170   1029.000   1046.430    -17.430    448.071   1021.877    448.071    472.218    448.426
 97.270   1058.000   1116.839    -58.839    447.729   1091.930    447.729    472.244    448.077
 97.370   1143.000   1186.807    -43.807    447.387   1161.512    447.387    472.299    447.727
 97.470   1233.000   1253.102    -20.102    447.045   1227.394    447.045    472.385    447.377
 97.570   1353.449   1312.154     41.295    446.701   1286.004    446.701    472.502    447.027
 97.670   1444.000   1360.314     83.686    446.357   1333.692    446.357    472.650    446.676
 97.770   1372.000   1394.276    -22.276    446.012   1367.152    446.012    472.832    446.325
 97.870   1345.763   1411.623    -65.860    445.667   1383.962    445.667    473.047    445.974
 97.970   1425.000   1411.306     13.694    445.321   1383.074    445.321    473.296    445.622
 98.070   1441.000   1393.862     47.138    444.974   1365.020    444.974    473.580    445.270
 98.170   1360.000   1361.240     -1.240    444.627   1331.750    444.627    473.899    444.918
 98.270   1316.000   1316.378     -0.378    444.279   1286.199    444.279    474.254    444.565
 98.370   1303.000   1262.704     40.296    443.931   1231.796    443.931    474.646    444.212
 98.470   1218.000   1203.751     14.249    443.582   1172.073    443.582    475.074    443.859
 98.570   1209.901   1142.899     67.002    443.233   1110.409    443.233    475.540    443.505
 98.670   1095.207   1083.227     11.980    442.883   1049.885    442.883    476.043    443.152
 98.770   1041.000   1027.451     13.549    442.533    993.216    442.533    476.583    442.798
 98.870   1010.000    977.896     32.104    442.182    942.729    442.182    477.160    442.444
 98.970   1028.000    936.509     91.491    441.831    900.372    441.831    477.774    442.090
 99.070    887.000    904.873    -17.873    441.480    867.729    441.480    478.424    441.735
 99.170    906.024    884.224     21.800    441.129    846.039    441.129    479.109    441.381
 99.270    849.000    875.471    -26.471    440.777    836.210    440.777    479.827    441.026
 99.370    903.066    879.255     23.811    440.424    838.887    440.424    480.578    440.671
 99.470    946.000    895.878     50.122    440.072    854.376    440.072    481.357    440.316
 99.570    941.000    925.377     15.623    439.720    882.715    439.720    482.163    439.962
 99.670    969.856    967.511      2.344    439.367    923.668    439.367    482.993    439.607
 99.770    989.000   1021.744    -32.744    439.014    976.702    439.014    483.841    439.252
 99.870   1105.000   1087.216     17.784    438.661   1040.964    438.661    484.704    438.897
 99.970   1129.000   1162.707    -33.707    438.308   1115.239    438.308    485.576    438.542
100.070   1265.000   1246.592     18.408    437.954   1197.909    437.954    486.450    438.187
100.170   1332.000   1336.808     -4.808    437.601   1286.918    437.601    487.320    437.832
100.270   1394.000   1430.837    -36.837    437.248   1379.756    437.248    488.177    437.478
100.370   1515.000   1525.741    -10.741    436.895   1473.492    436.895    489.013    437.123
100.470   1620.000   1618.275      1.725    436.542   1564.893    436.542    489.818    436.769
100.570   1705.000   1705.110     -0.110    436.189   1650.637    436.189    490.583    436.414
100.670   1730.291   1783.111    -52.820    435.836   1727.599    435.836    491.297    436.060
100.770   1792.275   1849.599    -57.325    435.483   1793.111    435.483    491.949    435.706
100.870   1905.000   1902.486      2.514    435.130   1845.093    435.130    492.529    435.352
100.970   1952.000   1940.223     11.777    434.778   1882.006    434.778    493.026    434.999
101.070   1952.000   1961.670     -9.670    434.426   1902.719    434.426    493.430    434.645
101.170   1922.768   1966.020    -43.252    434.074   1906.433    434.074    493.732    434.292
101.270   1886.000   1952.916    -66.916    433.723   1892.799    433.723    493.924    433.939
101.370   1890.938   1922.739    -31.801    433.371   1862.205    433.371    493.998    433.587
101.470   1817.346   1876.908    -59.563    433.021   1816.076    433.021    493.949    433.235
101.570   1826.000   1817.982      8.018    432.670   1756.972    432.670    493.774    432.883
101.670   1664.860   1749.445    -84.585    432.320   1688.382    432.320    493.471    432.532
101.770   1682.000   1675.257      6.743    431.971   1614.265    431.971    493.041    432.181
101.870   1565.000   1599.339    -34.339    431.622   1538.540    431.622    492.485    431.830
101.970   1561.000   1525.160     35.840    431.274   1464.674    431.274    491.808    431.480
102.070   1393.000   1455.490    -62.490    430.926   1395.432    430.926    491.015    431.131
102.170   1425.862   1392.291     33.571    430.579   1332.769    430.579    490.115    430.782
102.270   1314.080   1336.713    -22.633    430.232   1277.829    430.232    489.115    430.434
102.370   1307.000   1289.110     17.890    429.886   1230.956    429.886    488.026    430.086
102.470   1314.000   1249.119     64.881    429.541   1191.777    429.541    486.858    429.739
102.570   1160.175   1215.744    -55.568    429.197   1159.285    429.197    485.621    429.393
102.670   1186.000   1187.476     -1.476    428.853   1131.961    428.853    484.326    429.047
102.770   1171.000   1162.457      8.543    428.511   1107.937    428.511    482.984    428.703
102.870   1120.000   1138.691    -18.691    428.169   1085.205    428.169    481.605    428.359
102.970   1163.447   1114.306     49.141    427.828   1061.883    427.828    480.200    428.017
103.070   1118.255   1087.802     30.453    427.488   1036.461    427.488    478.777    427.675
103.170   1041.000   1058.244    -17.244    427.149   1007.995    427.149    477.345    427.334
103.270   1009.000   1025.325    -16.325    426.811    976.169    426.811    475.912    426.994
103.370    992.000    989.291      2.709    426.474    941.224    426.474    474.484    426.656
103.470    921.573    950.775    -29.202    426.138    903.784    426.138    473.068    426.318
103.570    946.000    910.695     35.305    425.804    864.762    425.804    471.669    425.982
103.670    903.000    869.987     33.013    425.470    825.092    425.470    470.292    425.647
103.770    849.000    829.580     19.420    425.138    785.698    425.138    468.941    425.313
103.870    820.000    790.321     29.679    424.807    747.422    424.807    467.619    424.980
103.970    751.000    752.934     -1.934    424.477    710.989    424.477    466.328    424.649
104.070    765.000    718.004     46.996    424.149    676.980    424.149    465.072    424.319
104.170    680.020    685.961     -5.941    423.822    645.824    423.822    463.851    423.991
104.270    649.247    657.082     -7.835    423.496    617.796    423.496    462.668    423.664
104.370    650.000    631.495     18.505    423.172    593.025    423.172    461.522    423.339
104.470    607.385    609.199     -1.814    422.850    571.507    422.850    460.415    423.015
104.570    556.068    590.082    -34.014    422.529    553.132    422.529    459.347    422.693
104.670    578.121    573.948      4.173    422.209    537.703    422.209    458.319    422.372
104.770    546.000    560.546    -14.546    421.891    524.969    421.891    457.330    422.054
104.870    506.261    549.596    -43.335    421.575    514.649    421.575    456.380    421.737
104.970    558.000    540.808     17.192    421.261    506.455    421.261    455.469    421.421
105.070    511.000    533.908    -22.908    420.948    500.112    420.948    454.597    421.108
105.170    533.000    528.644      4.356    420.637    495.370    420.637    453.763    420.796
105.270    545.000    524.803     20.197    420.328    492.015    420.328    452.966    420.486
105.370    534.000    522.213     11.787    420.021    489.875    420.021    452.207    420.178
105.470    541.000    520.742     20.258    419.716    488.821    419.716    451.484    419.873
105.570    586.000    520.301     65.699    419.413    488.762    419.413    450.797    419.569
105.670    520.028    520.838     -0.810    419.112    489.648    419.112    450.145    419.267
105.770    531.732    522.332      9.401    418.813    491.458    418.813    449.528    418.967
105.870    567.602    524.789     42.813    418.516    494.199    418.516    448.945    418.670
105.970    507.000    528.234    -21.234    418.221    497.897    418.221    448.396    418.375
106.070    528.380    532.705     -4.325    417.928    502.589    417.928    447.880    418.082
106.170    542.000    538.240      3.760    417.638    508.315    417.638    447.397    417.791
106.270    530.000    544.869    -14.869    417.350    515.106    417.350    446.945    417.503
106.370    554.000    552.605      1.395    417.064    522.974    417.064    446.525    417.217
106.470    597.000    561.428     35.572    416.781    531.899    416.781    446.136    416.933
106.570    564.727    571.279     -6.551    416.500    541.824    416.500    445.778    416.652
106.670    548.043    582.052    -34.009    416.222    552.644    416.222    445.450    416.374
106.770    598.000    593.592      4.408    415.946    564.204    415.946    445.153    416.098
106.870    641.000    605.693     35.307    415.673    576.296    415.673    444.885    415.825
106.970    583.458    618.097    -34.638    415.402    588.666    415.402    444.647    415.554
107.070    653.000    630.501     22.499    415.135    601.009    415.135    444.438    415.287
107.170    658.000    642.563     15.437    414.870    612.985    414.870    444.259    415.022
107.270    660.000    653.917      6.083    414.607    624.226    414.607    444.109    414.759
107.370    664.060    664.192     -0.132    414.348    634.363    414.348    443.988    414.500
107.470    659.000    673.047    -14.047    414.091    643.054    414.091    443.897    414.244
107.570    650.000    680.214    -30.214    413.838    650.031    413.838    443.835    413.991
107.670    665.000    685.539    -20.539    413.587    655.141    413.587    443.802    413.740
107.770    639.459    689.019    -49.560    413.339    658.379    413.339    443.799    413.493
107.870    688.480    690.806     -2.326    413.095    659.898    413.095    443.826    413.249
107.970    705.887    691.187     14.701    412.854    659.984    412.854    443.884    413.008
108.070    679.000    690.540    -11.540    412.616    659.015    412.616    443.971    412.770
108.170    696.000    689.278      6.722    412.381    657.404    412.381    444.090    412.536
108.270    679.000    687.798     -8.798    412.149    655.546    412.149    444.239    412.305
108.370    658.550    686.442    -27.893    411.921    653.784    411.921    444.421    412.078
108.470    717.449    685.474     31.975    411.696    652.381    411.696    444.634    411.854
108.570    646.325    685.061    -38.736    411.475    651.504    411.475    444.881    411.633
108.670    714.211    685.264     28.947    411.257    651.212    411.257    445.161    411.416
108.770    659.000    686.041    -27.041    411.043    651.464    411.043    445.475    411.203
108.870    659.000    687.245    -28.245    410.833    652.112    410.833    445.823    410.993
108.970    689.000    688.629      0.371    410.626    652.907    410.626    446.208    410.787
109.070    650.000    689.865    -39.865    410.423    653.522    410.423    446.628    410.585
109.170    723.000    690.575     32.425    410.223    653.578    410.223    447.086    410.387
109.270    635.000    690.364    -55.364    410.028    652.678    410.028    447.581    410.192
109.370    704.542    688.875     15.667    409.837    650.464    409.837    448.116    410.002
109.470    711.096    685.840     25.257    409.649    646.668    409.649    448.690    409.816
109.570    678.000    681.118     -3.118    409.466    641.148    409.466    449.305    409.634
109.670    670.000    674.713     -4.713    409.286    633.906    409.286    449.961    409.456
109.770    685.000    666.786     18.214    409.111    625.103    409.111    450.661    409.282
109.870    619.000    657.587    -38.587    408.940    614.989    408.940    451.404    409.112
109.970    677.000    647.433     29.567    408.773    603.877    408.773    452.191    408.947
110.070    607.616    636.666    -29.049    408.611    592.110    408.611    453.025    408.786
110.170    632.000    625.623      6.377    408.453    580.025    408.453    453.906    408.630
110.270    603.000    614.620    -11.620    408.299    567.936    408.299    454.835    408.478
110.370    578.904    603.937    -25.033    408.150    556.121    408.150    455.812    408.330
110.470    605.000    593.811     11.189    408.006    544.819    408.006    456.841    408.188
110.570    562.000    584.440    -22.440    407.866    534.223    407.866    457.920    408.050
110.670    596.000    575.972     20.028    407.730    524.484    407.730    459.051    407.917
110.770    615.257    568.516     46.741    407.600    515.708    407.600    460.236    407.788
110.870    559.059    562.135     -3.076    407.474    507.957    407.474    461.475    407.665
110.970    547.202    556.855     -9.653    407.354    501.258    407.354    462.769    407.546
111.070    536.000    552.668    -16.668    407.238    495.601    407.238    464.120    407.433
111.170    594.000    549.539     44.461    407.127    490.950    407.127    465.526    407.324
111.270    563.000    547.409     15.591    407.021    487.245    407.021    466.990    407.221
111.370    534.000    546.204    -12.204    406.921    484.414    406.921    468.512    407.123
111.470    579.549    545.841     33.707    406.825    482.372    406.825    470.092    407.030
111.570    564.000    546.232     17.768    406.735    481.030    406.735    471.731    406.943
111.670    557.000    547.288      9.712    406.650    480.300    406.650    473.428    406.861
111.770    555.000    548.923      6.077    406.571    480.097    406.571    475.182    406.784
111.870    557.286    551.058      6.228    406.497    480.341    406.497    476.995    406.713
111.970    572.000    553.622     18.378    406.428    480.963    406.428    478.865    406.648
112.070    543.287    556.552    -13.265    406.365    481.902    406.365    480.790    406.588
112.170    532.000    559.799    -27.799    406.308    483.108    406.308    482.769    406.534
112.270    537.348    563.320    -25.972    406.257    484.542    406.257    484.801    406.486
112.370    619.000    567.090     51.910    406.211    486.180    406.211    486.884    406.444
112.470    590.206    571.090     19.116    406.171    488.007    406.171    489.013    406.408
112.570    575.000    575.319     -0.319    406.137    490.025    406.137    491.186    406.377
112.670    566.257    579.785    -13.528    406.109    492.246    406.109    493.400    406.353
112.770    539.000    584.509    -45.509    406.087    494.695    406.087    495.648    406.335
112.870    553.000    589.524    -36.524    406.071    497.412    406.071    497.927    406.323
112.970    545.000    594.879    -49.879    406.062    500.451    406.062    500.229    406.317
113.070    566.000    600.636    -34.636    406.058    503.881    406.058    502.549    406.318
113.170    574.000    606.882    -32.882    406.061    507.797    406.061    504.877    406.325
113.270    576.000    613.727    -37.727    406.071    512.317    406.071    507.207    406.339
113.370    594.384    621.315    -26.931    406.087    517.596    406.087    509.528    406.359
113.470    589.827    629.836    -40.009    406.109    523.832    406.109    511.830    406.385
113.570    645.000    639.533      5.467    406.138    531.280    406.138    514.102    406.419
113.670    612.000    650.719    -38.719    406.174    540.264    406.174    516.333    406.459
113.770    699.233    663.791     35.443    406.216    551.195    406.216    518.511    406.505
113.870    716.158    679.249     36.909    406.266    564.585    406.266    520.621    406.559
113.970    732.412    697.717     34.695    406.322    581.070    406.322    522.651    406.619
114.070    693.000    719.956    -26.956    406.385    601.428    406.385    524.586    406.687
114.170    700.092    746.892    -46.800    406.455    626.596    406.455    526.414    406.761
114.270    710.000    779.625    -69.625    406.533    657.688    406.533    528.120    406.843
114.370    864.352    819.446     44.907    406.617    696.009    406.617    529.690    406.931
114.470    873.000    867.839      5.161    406.709    743.056    406.709    531.112    407.027
114.570    876.000    926.481    -50.481    406.808    800.518    406.808    532.374    407.130
114.670   1060.658    997.228     63.430    406.915    870.259    406.915    533.465    407.240
114.770   1103.464   1082.081     21.383    407.029    954.292    407.029    534.376    407.358
114.870   1139.352   1183.141    -43.790    407.151   1054.728    407.151    535.097    407.483
114.970   1269.833   1302.548    -32.715    407.280   1173.708    407.280    535.625    407.616
115.070   1480.000   1442.372     37.628    407.417   1313.310    407.417    535.953    407.756
115.170   1600.000   1604.584     -4.584    407.562   1475.508    407.562    536.080    407.904
115.270   1895.000   1790.900    104.100    407.715   1662.015    407.715    536.006    408.060
115.370   1922.014   2002.582    -80.569    407.876   1874.096    407.876    535.734    408.224
115.470   2391.000   2240.390    150.610    408.045   2112.505    408.045    535.266    408.395
115.570   2572.000   2504.417     67.583    408.222   2377.331    408.222    534.611    408.575
115.670   2698.338   2793.966    -95.629    408.407   2667.870    408.407    533.775    408.763
115.770   3163.525   3107.432     56.092    408.600   2982.508    408.600    532.768    408.959
115.870   3306.000   3442.218   -136.218    408.802   3318.639    408.802    531.601    409.163
115.970   3836.000   3794.676     41.324    409.012   3672.606    409.012    530.286    409.376
116.070   4263.000   4160.086    102.914    409.231   4039.676    409.231    528.837    409.597
116.170   4528.000   4532.676     -4.676    409.458   4414.064    409.458    527.267    409.827
116.270   4907.000   4905.673      1.327    409.695   4788.987    409.695    525.589    410.065
116.370   5336.185   5271.412     64.773    409.939   5156.765    409.939    523.818    410.312
116.470   5532.000   5621.484    -89.484    410.193   5508.977    410.193    521.968    410.569
116.570   5995.000   5946.948     48.052    410.456   5836.668    410.456    520.052    410.834
116.670   6199.000   6238.630    -39.630    410.727   6130.651    410.727    518.083    411.108
116.770   6604.994   6487.514    117.480    411.008   6381.898    411.008    516.075    411.392
116.870   6761.000   6685.247     75.753    411.298   6582.040    411.298    514.038    411.685
116.970   6806.000   6824.728    -18.728    411.597   6723.963    411.597    511.985    411.987
117.070   7079.000   6900.715    178.285    411.905   6802.413    411.905    509.925    412.299
117.170   6857.000   6910.347    -53.347    412.223   6814.515    412.223    507.868    412.620
117.270   7011.000   6853.449    157.551    412.551   6760.080    412.551    505.823    412.951
117.370   6671.274   6732.548    -61.274    412.888   6641.623    412.888    503.797    413.292
117.470   6586.673   6552.586     34.087    413.235   6464.078    413.235    501.798    413.643
117.570   6187.000   6320.420   -133.420    413.591   6234.291    413.591    499.832    414.004
117.670   6031.273   6044.208    -12.935    413.958   5960.416    413.958    497.904    414.375
117.770   5722.000   5732.817    -10.817    414.334   5651.314    414.334    496.020    414.757
117.870   5284.155   5395.306   -111.151    414.720   5316.038    414.720    494.182    415.148
117.970   4965.276   5040.516    -75.240    415.117   4963.430    415.117    492.396    415.550
118.070   4692.940   4676.776     16.164    415.524   4601.814    415.524    490.663    415.963
118.170   4204.000   4311.672   -107.672    415.941   4238.779    415.941    488.986    416.386
118.270   4033.000   3951.906     81.094    416.368   3881.023    416.368    487.367    416.819
118.370   3698.815   3603.188     95.627    416.806   3534.258    416.806    485.809    417.264
118.470   3217.000   3270.185    -53.185    417.255   3203.153    417.255    484.311    417.720
118.570   2986.000   2956.522     29.478    417.714   2891.332    417.714    482.876    418.186
118.670   2620.000   2664.811    -44.811    418.184   2601.409    418.184    481.503    418.664
118.770   2351.000   2396.719    -45.719    418.664   2335.053    418.664    480.193    419.152
118.870   2121.000   2153.070    -32.070    419.156   2093.088    419.156    478.946    419.652
118.970   1934.015   1933.949      0.066    419.659   1875.602    419.659    477.761    420.164
119.070   1760.000   1738.827     21.173    420.173   1682.066    420.173    476.640    420.687
119.170   1480.000   1566.678    -86.678    420.698   1511.455    420.698    475.580    421.221
119.270   1405.000   1416.102    -11.102    421.234   1362.370    421.234    474.583    421.767
119.370   1337.063   1285.433     51.630    421.782   1233.146    421.782    473.646    422.325
119.470   1145.017   1172.846    -27.829    422.341   1121.960    422.341    472.770    422.895
119.570   1095.330   1076.450     18.880    422.912   1026.920    422.912    471.953    423.477
119.670    991.000    994.361     -3.361    423.495    946.143    423.495    471.194    424.070
119.770    958.346    924.769     33.577    424.089    877.822    424.089    470.493    424.676
119.870    924.493    865.982     58.511    424.695    820.262    424.695    469.849    425.294
119.970    838.000    816.454     21.546    425.314    771.921    425.314    469.261    425.925
120.070    776.000    774.804      1.196    425.944    731.416    425.944    468.727    426.568
120.170    759.000    739.819     19.181    426.586    697.536    426.586    468.246    427.223
120.270    678.545    710.453    -31.908    427.241    669.237    427.241    467.818    427.891
120.370    722.585    685.815     36.770    427.908    645.627    427.908    467.442    428.572
120.470    619.000    665.156    -46.156    428.588    625.959    428.588    467.115    429.266
120.570    689.000    647.853     41.147    429.280    609.611    429.280    466.838    429.972
120.670    628.000    633.393     -5.393    429.984    596.069    429.984    466.609    430.691
120.770    621.459    621.354      0.105    430.702    584.916    430.702    466.427    431.424
120.870    595.000    611.395    -16.395    431.432    575.808    431.432    466.290    432.169
120.970    572.000    603.235    -31.235    432.176    568.468    432.176    466.199    432.928
121.070    551.631    596.649    -45.019    432.932    562.671    432.932    466.152    433.700
121.170    544.911    591.452    -46.541    433.701    558.232    433.701    466.147    434.485
121.270    589.000    587.490      1.510    434.484    555.001    434.484    466.184    435.284
121.370    569.000    584.638    -15.638    435.280    552.852    435.280    466.262    436.097
121.470    545.000    582.788    -37.788    436.090    551.679    436.090    466.380    436.923
121.570    589.551    581.848      7.703    436.913    551.390    436.913    466.537    437.762
121.670    603.753    581.733     22.021    437.750    551.902    437.750    466.732    438.615
121.770    579.000    582.366     -3.366    438.601    553.139    438.601    466.964    439.482
121.870    583.832    583.674      0.158    439.465    555.029    439.465    467.232    440.363
121.970    579.000    585.583     -6.583    440.344    557.499    440.344    467.536    441.258
122.070    607.747    588.018     19.730    441.236    560.475    441.236    467.874    442.166
122.170    584.397    590.900     -6.504    442.143    563.879    442.143    468.245    443.089
122.270    550.345    594.149    -43.804    443.064    567.632    443.064    468.649    444.025
122.370    615.000    597.676     17.324    443.999    571.646    443.999    469.086    444.976
122.470    642.000    601.386     40.614    444.949    575.827    444.949    469.553    445.940
122.570    618.691    605.149     13.542    445.914    580.045    445.914    470.051    446.919
122.670    575.002    608.934    -33.932    446.893    584.271    446.893    470.579    447.912
122.770    592.000    612.603    -20.603    447.887    588.367    447.887    471.135    448.919
122.870    578.000    616.042    -38.042    448.896    592.222    448.896    471.720    449.940
122.970    619.022    619.146     -0.124    449.920    595.729    449.920    472.333    450.975
123.070    654.000    621.811     32.189    450.960    598.785    450.960    472.973    452.025
123.170    577.000    623.942    -46.942    452.014    601.298    452.014    473.639    453.089
123.270    639.000    625.460     13.540    453.084    603.187    453.084    474.331    454.167
123.370    646.000    626.302     19.698    454.170    604.391    454.170    475.049    455.260
123.470    674.213    626.430     47.783    455.271    604.872    455.271    475.791    456.367
123.570    671.000    625.828     45.172    456.387    604.616    456.387    476.558    457.489
123.670    639.000    624.506     14.494    457.520    603.632    457.520    477.349    458.626
123.770    613.000    622.496     -9.496    458.668    601.953    458.668    478.163    459.777
123.870    616.000    619.849     -3.849    459.833    599.631    459.833    479.001    460.943
123.970    644.000    616.630     27.370    461.014    596.730    461.014    479.862    462.124
124.070    599.000    612.913    -13.913    462.211    593.327    462.211    480.745    463.319
124.170    587.986    608.780    -20.794    463.424    589.502    463.424    481.651    464.530
124.270    606.000    604.315      1.685    464.654    585.340    464.654    482.579    465.757
124.370    635.844    599.602     36.242    465.900    580.925    465.900    483.529    466.998
124.470    600.000    594.724      5.276    467.163    576.341    467.163    484.502    468.255
124.570    576.804    589.761    -12.957    468.443    571.670    468.443    485.496    469.528
124.670    562.360    584.791    -22.430    469.740    566.985    469.740    486.511    470.817
124.770    609.000    579.881     29.119    471.054    562.359    471.054    487.549    472.122
124.870    541.164    575.096    -33.932    472.386    557.853    472.386    488.608    473.442
124.970    584.196    570.491     13.705    473.734    553.524    473.734    489.690    474.780
