neutron_powder_diffraction_0056
R_wp: 3.958
Temperature (K): 677.764
Counts: 83335.00
Wavelength (Ã…): 2.52098
COMMENTS
Test file for demonstrating the .xyy file format in Reel1.0
END OF HEADER
   tth       Y_obs     Y_calc      Y_res    Background    Phase_1_Nuc    Phase_1_Mag    Phase_2_Nuc    Phase_2_Mag
  9.970    670.000    655.148     14.852    653.929    654.831    654.246    653.929    653.929
 10.070    703.000    654.775     48.225    653.478    654.455    653.798    653.478    653.478
 10.170    688.000    654.410     33.590    653.025    654.086    653.349    653.025    653.025
 10.270    655.495    654.054      1.441    652.572    653.727    652.898    652.572    652.572
 10.370    646.000    653.712     -7.712    652.117    653.381    652.447    652.117    652.117
 10.470    651.061    653.386     -2.325    651.660    653.051    651.995    651.660    651.660
 10.570    698.000    653.080     44.920    651.203    652.742    651.541    651.203    651.203
 10.670    681.000    652.801     28.199    650.745    652.459    651.086    650.745    650.745
 10.770    635.000    652.555    -17.555    650.286    652.209    650.631    650.286    650.286
 10.870    667.000    652.352     14.648    649.825    652.001    650.174    649.825    649.825
 10.970    660.251    652.204      8.047    649.364    651.849    649.717    649.364    649.364
 11.070    684.000    652.129     31.871    648.902    651.771    649.259    648.902    648.902
 11.170    693.637    652.154     41.483    648.438    651.791    648.799    648.438    648.438
 11.270    660.000    652.316      7.684    647.974    651.948    648.339    647.974    647.974
 11.370    648.826    652.676     -3.851    647.509    652.304    647.879    647.509    647.509
 11.470    657.147    653.357      3.790    647.043    652.979    647.417    647.043    647.043
 11.570    671.000    654.627     16.373    646.577    654.245    646.955    646.577    646.577
 11.670    720.000    657.183     62.817    646.109    656.795    646.492    646.109    646.109
 11.770    737.000    662.588     74.412    645.641    662.191    646.028    645.641    645.641
 11.870    706.000    673.590     32.410    645.172    673.182    645.564    645.172    645.172
 11.970    638.407    693.386    -54.979    644.702    692.963    645.099    644.702    644.702
 12.070    827.000    722.918    104.082    644.232    722.473    644.633    644.232    644.232
 12.170    780.000    756.415     23.585    643.761    755.946    644.167    643.761    643.761
 12.270    835.471    778.313     57.157    643.289    777.827    643.700    643.289    643.289
 12.370    772.000    773.187     -1.187    642.817    772.698    643.232    642.817    642.817
 12.470    765.000    745.002     19.998    642.344    744.523    642.765    642.344    642.344
 12.570    726.000    710.866     15.134    641.870    710.401    642.296    641.870    641.870
 12.670    642.007    683.260    -41.253    641.396    682.806    641.827    641.396    641.396
 12.770    661.765    665.473     -3.708    640.922    665.022    641.358    640.922    640.922
 12.870    633.000    655.532    -22.532    640.447    655.081    640.889    640.447    640.447
 12.970    641.782    650.243     -8.461    639.971    649.789    640.419    639.971    639.971
 13.070    689.046    647.230     41.816    639.495    646.772    639.948    639.495    639.495
 13.170    607.000    645.243    -38.243    639.019    644.780    639.478    639.019    639.019
 13.270    620.000    643.746    -23.746    638.542    643.278    639.007    638.542    638.542
 13.370    639.000    642.528     -3.528    638.065    642.054    638.536    638.065    638.065
 13.470    619.000    641.507    -22.507    637.587    641.028    638.065    637.587    637.587
 13.570    603.786    640.591    -36.804    637.109    640.105    637.594    637.109    637.109
 13.670    673.892    639.763     34.129    636.631    639.271    637.122    636.631    636.631
 13.770    664.000    639.004     24.996    636.153    638.505    636.650    636.153    636.153
 13.870    620.000    638.297    -18.297    635.674    637.792    636.178    635.674    635.674
 13.970    623.000    637.631    -14.631    635.195    637.119    635.706    635.195    635.195
 14.070    597.000    636.996    -39.996    634.716    636.477    635.234    634.716    634.716
 14.170    658.000    636.386     21.614    634.237    635.861    634.762    634.237    634.237
 14.270    562.000    635.797    -73.797    633.758    635.265    634.290    633.758    633.758
 14.370    589.152    635.225    -46.072    633.278    634.685    633.817    633.278    633.278
 14.470    618.000    634.666    -16.666    632.799    634.119    633.345    632.799    632.799
 14.570    594.000    634.119    -40.119    632.319    633.564    632.873    632.319    632.319
 14.670    672.000    633.582     38.418    631.839    633.019    632.401    631.839    631.839
 14.770    612.000    633.053    -21.053    631.359    632.482    631.930    631.359    631.359
 14.870    591.000    632.531    -41.531    630.879    631.952    631.458    630.879    630.879
 14.970    615.000    632.015    -17.015    630.399    631.427    630.986    630.399    630.399
 15.070    582.458    631.504    -49.046    629.920    630.908    630.515    629.920    629.920
 15.170    594.000    631.000    -37.000    629.440    630.396    630.044    629.440    629.440
 15.270    625.000    630.503     -5.503    628.960    629.890    629.573    628.960    628.960
 15.370    612.000    630.005    -18.005    628.480    629.383    629.103    628.480    628.480
 15.470    616.726    629.510    -12.784    628.001    628.878    628.633    628.001    628.001
 15.570    576.000    629.018    -53.018    627.521    628.377    628.163    627.521    627.521
 15.670    649.270    628.529     20.741    627.042    627.878    627.693    627.042    627.042
 15.770    608.000    628.042    -20.042    626.563    627.381    627.224    626.563    626.563
 15.870    582.000    627.564    -45.564    626.084    626.892    626.755    626.084    626.084
 15.970    581.191    627.105    -45.914    625.605    626.422    626.287    625.605    625.605
 16.070    627.000    626.626      0.374    625.127    625.933    625.819    625.127    625.127
 16.170    635.000    626.148      8.852    624.648    625.444    625.352    624.648    624.648
 16.270    621.000    625.671     -4.671    624.170    624.956    624.885    624.170    624.170
 16.370    566.000    625.198    -59.198    623.693    624.471    624.419    623.693    623.693
 16.470    654.983    624.727     30.256    623.215    623.989    623.954    623.215    623.215
 16.570    618.000    624.256     -6.256    622.738    623.505    623.489    622.738    622.738
 16.670    608.000    623.786    -15.786    622.261    623.023    623.024    622.261    622.261
 16.770    609.000    623.319    -14.319    621.785    622.543    622.561    621.785    621.785
 16.870    667.413    622.851     44.562    621.309    622.062    622.098    621.309    621.309
 16.970    599.000    622.386    -23.386    620.833    621.583    621.636    620.833    620.833
 17.070    652.000    621.921     30.079    620.358    621.105    621.174    620.358    620.358
 17.170    630.000    621.458      8.542    619.883    620.628    620.714    619.883    619.883
 17.270    575.282    620.996    -45.715    619.409    620.151    620.254    619.409    619.409
 17.370    597.089    620.536    -23.447    618.935    619.676    619.795    618.935    618.935
 17.470    574.160    620.082    -45.922    618.462    619.206    619.337    618.462    618.462
 17.570    585.000    619.671    -34.671    617.989    618.780    618.880    617.989    617.989
 17.670    620.005    619.245      0.760    617.517    618.338    618.424    617.517    617.517
 17.770    565.000    618.794    -53.794    617.045    617.870    617.969    617.045    617.045
 17.870    624.215    618.342      5.873    616.574    617.401    617.515    616.574    616.574
 17.970    616.000    617.902     -1.902    616.103    616.943    617.062    616.103    616.103
 18.070    595.000    617.462    -22.462    615.633    616.484    616.611    615.633    615.633
 18.170    629.000    617.075     11.925    615.164    616.070    616.169    615.164    615.164
 18.270    627.000    616.639     10.361    614.695    615.612    615.721    614.695    614.695
 18.370    617.066    616.195      0.871    614.227    615.149    615.273    614.227    614.227
 18.470    563.000    615.752    -52.752    613.760    614.686    614.826    613.760    613.760
 18.570    622.000    615.311      6.689    613.293    614.224    614.380    613.293    613.293
 18.670    618.000    614.871      3.129    612.827    613.763    613.935    612.827    612.827
 18.770    586.809    614.434    -27.625    612.361    613.303    613.492    612.361    612.361
 18.870    600.000    613.998    -13.998    611.897    612.845    613.050    611.897    611.897
 18.970    590.000    613.564    -23.564    611.433    612.388    612.610    611.433    611.433
 19.070    596.000    613.136    -17.136    610.970    611.935    612.171    610.970    610.970
 19.170    626.000    612.719     13.281    610.508    611.493    611.734    610.508    610.508
 19.270    648.776    612.293     36.483    610.046    611.041    611.298    610.046    610.046
 19.370    615.000    611.867      3.133    609.585    610.589    610.864    609.585    609.585
 19.470    578.000    611.444    -33.444    609.125    610.138    610.431    609.125    609.125
 19.570    600.000    611.022    -11.022    608.666    609.688    610.001    608.666    608.666
 19.670    559.000    610.603    -51.603    608.208    609.239    609.572    608.208    608.208
 19.770    658.217    610.187     48.031    607.751    608.792    609.145    607.751    607.751
 19.870    604.000    609.772     -5.772    607.294    608.347    608.720    607.294    607.294
 19.970    623.000    609.361     13.639    606.839    607.903    608.297    606.839    606.839
 20.070    604.000    608.952     -4.952    606.384    607.461    607.876    606.384    606.384
 20.170    606.796    608.561     -1.765    605.930    607.033    607.458    605.930    605.930
 20.270    573.221    608.197    -34.976    605.478    606.632    607.043    605.478    605.478
 20.370    603.000    607.811     -4.811    605.026    606.208    606.629    605.026    605.026
 20.470    612.000    607.425      4.575    604.575    605.779    606.221    604.575    604.575
 20.570    630.000    607.054     22.946    604.125    605.367    605.812    604.125    604.125
 20.670    593.000    606.677    -13.677    603.676    604.948    605.405    603.676    603.676
 20.770    538.000    606.304    -68.304    603.229    604.531    605.001    603.229    603.229
 20.870    598.636    605.962     -7.326    602.782    604.144    604.599    602.782    602.782
 20.970    614.000    605.624      8.376    602.336    603.759    604.200    602.336    602.336
 21.070    602.000    605.257     -3.257    601.891    603.343    603.804    601.891    601.891
 21.170    609.597    604.890      4.707    601.448    602.926    603.411    601.448    601.448
 21.270    594.000    604.564    -10.564    601.005    602.547    603.022    601.005    601.005
 21.370    644.541    604.210     40.330    600.563    602.139    602.635    600.563    600.563
 21.470    551.000    603.858    -52.858    600.123    601.729    602.252    600.123    600.123
 21.570    635.887    603.518     32.368    599.684    601.327    601.875    599.684    599.684
 21.670    561.000    603.179    -42.179    599.246    600.924    601.500    599.246    599.246
 21.770    646.072    602.840     43.232    598.809    600.520    601.128    598.809    598.809
 21.870    592.000    602.507    -10.507    598.373    600.119    600.760    598.373    598.373
 21.970    567.624    602.180    -34.557    597.938    599.723    600.396    597.938    597.938
 22.070    641.042    601.863     39.179    597.505    599.331    600.036    597.505    597.505
 22.170    587.000    601.554    -14.554    597.072    598.945    599.681    597.072    597.072
 22.270    590.000    601.252    -11.252    596.641    598.562    599.331    596.641    596.641
 22.370    569.458    600.959    -31.501    596.211    598.184    598.986    596.211    596.211
 22.470    592.000    600.677     -8.677    595.783    597.814    598.646    595.783    595.783
 22.570    612.000    600.406     11.594    595.355    597.449    598.312    595.355    595.355
 22.670    576.000    600.146    -24.146    594.929    597.091    597.984    594.929    594.929
 22.770    612.797    599.900     12.896    594.504    596.742    597.662    594.504    594.504
 22.870    559.000    599.670    -40.670    594.081    596.404    597.347    594.081    594.081
 22.970    614.000    599.457     14.543    593.658    596.077    597.039    593.658    593.658
 23.070    623.043    599.265     23.778    593.237    595.763    596.739    593.237    593.237
 23.170    609.000    599.097      9.903    592.818    595.468    596.446    592.818    592.818
 23.270    633.000    598.954     34.046    592.399    595.191    596.162    592.399    592.399
 23.370    617.000    598.843     18.157    591.982    594.938    595.887    591.982    591.982
 23.470    613.000    598.769     14.231    591.566    594.714    595.622    591.566    591.566
 23.570    554.000    598.742    -44.742    591.152    594.528    595.366    591.152    591.152
 23.670    604.864    598.773      6.092    590.739    594.390    595.123    590.739    590.739
 23.770    646.000    598.876     47.124    590.327    594.314    594.891    590.327    590.327
 23.870    596.000    599.075     -3.075    589.917    594.321    594.672    589.917    589.917
 23.970    564.210    599.402    -35.192    589.508    594.445    594.466    589.508    589.508
 24.070    592.000    599.919     -7.919    589.100    594.745    594.276    589.100    589.100
 24.170    605.000    600.755      4.245    588.694    595.350    594.101    588.694    588.694
 24.270    636.000    602.220     33.780    588.289    596.569    593.945    588.289    588.289
 24.370    633.000    605.002     27.998    587.886    599.087    593.807    587.886    587.886
 24.470    574.851    610.372    -35.521    587.484    604.176    593.690    587.484    587.484
 24.570    690.000    620.070     69.930    587.083    613.573    593.597    587.083    587.083
 24.670    678.000    635.415     42.585    586.684    628.600    593.528    586.684    586.684
 24.770    713.000    655.547     57.453    586.287    648.390    593.486    586.287    586.287
 24.870    735.000    675.197     59.803    585.891    667.668    593.475    585.891    585.891
 24.970    707.531    684.263     23.267    585.496    676.324    593.498    585.496    585.496
 25.070    625.497    676.153    -50.656    585.103    667.753    593.559    585.103    585.103
 25.170    667.000    657.035      9.965    584.711    648.128    593.661    584.711    584.711
 25.270    655.000    637.049     17.951    584.321    627.589    593.810    584.321    584.321
 25.370    649.000    621.715     27.285    583.933    611.654    594.011    583.933    583.933
 25.470    640.942    612.079     28.863    583.545    601.364    594.271    583.545    583.545
 25.570    609.000    606.906      2.094    583.160    595.473    594.599    583.160    583.160
 25.670    633.000    604.461     28.539    582.776    592.236    595.004    582.776    582.776
 25.770    617.000    603.457     13.543    582.393    590.357    595.496    582.393    582.393
 25.870    618.000    603.198     14.802    582.012    589.126    596.086    582.012    582.012
 25.970    651.000    603.384     47.616    581.633    588.226    596.792    581.633    581.633
 26.070    628.000    603.900     24.100    581.255    587.523    597.632    581.255    581.255
 26.170    561.532    604.709    -43.176    580.879    586.958    598.630    580.879    580.879
 26.270    596.283    605.809     -9.527    580.504    586.501    599.812    580.504    580.504
 26.370    600.000    607.218     -7.218    580.131    586.135    601.214    580.131    580.131
 26.470    619.566    608.970     10.596    579.759    585.851    602.878    579.759    579.759
 26.570    635.559    611.118     24.442    579.389    585.645    604.861    579.389    579.389
 26.670    617.650    613.732      3.918    579.021    585.520    607.232    579.021    579.021
 26.770    589.958    616.903    -26.944    578.654    585.479    610.076    578.654    578.654
 26.870    615.000    620.761     -5.761    578.289    585.534    613.514    578.289    578.289
 26.970    666.000    625.482     40.518    577.926    585.701    617.703    577.926    577.926
 27.070    613.000    631.301    -18.301    577.564    586.006    622.855    577.564    577.564
 27.170    658.536    638.548     19.988    577.204    586.482    629.265    577.204    577.204
 27.270    696.175    647.691     48.484    576.845    587.181    637.349    576.845    576.845
 27.370    712.000    659.419     52.581    576.488    588.178    647.722    576.488    576.488
 27.470    711.000    674.840     36.160    576.133    589.593    661.370    576.133    576.133
 27.570    754.000    696.129     57.871    575.779    591.666    680.230    575.779    575.779
 27.670    767.000    728.784     38.216    575.427    594.992    709.202    575.427    575.427
 27.770    781.000    788.157     -7.157    575.077    601.236    761.969    575.077    575.077
 27.870    937.102    912.383     24.718    574.728    614.522    872.534    574.728    574.728
 27.970   1115.258   1173.978    -58.720    574.382    642.692   1105.553    574.382    574.382
 28.070   1622.088   1662.068    -39.980    574.036    695.390   1540.506    574.036    574.036
 28.170   2350.541   2404.985    -54.444    573.693    775.706   2202.650    573.693    573.693
 28.270   3270.000   3250.836     19.164    573.351    867.307   2956.488    573.351    573.351
 28.370   3872.000   3813.725     58.275    573.011    928.683   3457.720    573.011    573.011
 28.470   3893.000   3736.595    156.405    572.672    921.667   3387.446    572.672    572.672
 28.570   3166.000   3132.582     33.418    572.336    859.312   2845.600    572.336    572.336
 28.670   2312.000   2452.016   -140.016    572.001    791.655   2232.404    572.001    572.001
 28.770   2009.000   2048.171    -39.171    571.667    758.341   1861.519    571.667    571.667
 28.870   1926.000   2011.034    -85.034    571.336    769.278   1813.079    571.336    571.336
 28.970   2110.715   2208.981    -98.266    571.006    807.158   1972.814    571.006    571.006
 29.070   2423.000   2377.323     45.677    570.678    836.058   2111.977    570.678    570.678
 29.170   2323.000   2286.614     36.386    570.351    824.231   2032.842    570.351    570.351
 29.270   1848.878   1941.332    -92.454    570.027    773.558   1737.944    570.027    570.027
 29.370   1512.000   1517.690     -5.690    569.704    710.824   1376.696    569.704    569.704
 29.470   1204.000   1163.514     40.486    569.383    658.281   1074.702    569.383    569.383
 29.570    936.649    927.983      8.667    569.063    623.351    873.746    569.063    569.063
 29.670    860.000    794.105     65.895    568.746    603.538    759.339    568.746    568.746
 29.770    754.000    724.067     29.933    568.430    593.225    699.284    568.430    568.430
 29.870    695.100    686.738      8.362    568.116    587.785    667.075    568.116    568.116
 29.970    721.000    664.512     56.488    567.803    584.610    647.708    567.803    567.803
 30.070    726.000    649.498     76.502    567.493    582.546    634.446    567.493    567.493
 30.170    602.689    638.547    -35.858    567.184    581.157    624.575    567.184    567.184
 30.270    641.550    630.394     11.156    566.877    580.315    616.955    566.877    566.877
 30.370    675.000    624.587     50.413    566.572    580.091    611.066    566.572    566.572
 30.470    630.000    621.304      8.696    566.268    580.823    606.745    566.268    566.268
 30.570    706.000    621.475     84.525    565.967    583.261    604.172    565.967    565.967
 30.670    651.000    626.796     24.204    565.667    588.602    603.847    565.667    565.667
 30.770    692.000    639.074     52.926    565.369    598.082    606.336    565.369    565.369
 30.870    651.321    658.549     -7.228    565.072    611.917    611.666    565.072    565.072
 30.970    731.000    681.457     49.543    564.778    627.749    618.434    564.778    564.778
 31.070    735.000    698.406     36.594    564.485    639.610    623.222    564.485    564.485
 31.170    680.389    698.538    -18.149    564.194    640.586    622.091    564.194    564.194
 31.270    706.000    680.247     25.753    563.905    629.671    614.438    563.905    563.905
 31.370    637.208    653.346    -16.138    563.618    613.156    603.778    563.618    563.618
 31.470    654.346    628.256     26.090    563.332    597.721    593.848    563.332    563.332
 31.570    612.000    609.737      2.263    563.049    586.423    586.351    563.049    563.049
 31.670    630.000    598.000     32.000    562.767    579.407    581.352    562.767    562.767
 31.770    598.000    591.196      6.804    562.487    575.503    578.175    562.487    562.487
 31.870    574.228    587.292    -13.064    562.208    573.415    576.081    562.208    562.208
 31.970    591.000    584.886      6.114    561.932    572.258    574.557    561.932    561.932
 32.070    556.571    583.246    -26.675    561.657    571.567    573.333    561.657    561.657
 32.170    577.063    582.049     -4.986    561.384    571.144    572.287    561.384    561.384
 32.270    551.894    581.163    -29.269    561.113    570.911    571.363    561.113    561.113
 32.370    536.980    580.533    -43.552    560.844    570.839    570.536    560.844    560.844
 32.470    576.000    580.135     -4.135    560.577    570.920    569.789    560.577    560.577
 32.570    628.000    579.965     48.035    560.311    571.160    569.114    560.311    560.311
 32.670    530.706    580.033    -49.327    560.047    571.576    568.503    560.047    560.047
 32.770    606.000    580.365     25.635    559.786    572.195    567.953    559.786    559.786
 32.870    611.000    581.000     30.000    559.525    573.059    567.465    559.525    559.525
 32.970    610.000    582.004     27.996    559.267    574.230    567.039    559.267    559.267
 33.070    629.000    583.473     45.527    559.011    575.798    566.683    559.011    559.011
 33.170    634.000    585.559     48.441    558.756    577.903    566.409    558.756    558.756
 33.270    619.000    588.530     30.470    558.503    580.791    566.240    558.503    558.503
 33.370    628.000    592.944     35.056    558.252    584.965    566.227    558.252    558.252
 33.470    622.417    600.053     22.364    558.003    591.561    566.490    558.003    558.003
 33.570    663.000    612.599     50.401    557.756    603.057    567.289    557.756    557.756
 33.670    634.007    635.809     -1.802    557.510    624.180    569.126    557.510    557.510
 33.770    699.000    677.672     21.328    557.267    662.151    572.764    557.267    557.267
 33.870    733.855    746.752    -12.898    557.025    724.716    579.026    557.025    557.025
 33.970    844.000    846.342     -2.342    556.785    814.853    588.226    556.785    556.785
 34.070    953.981    965.653    -11.672    556.547    922.814    599.330    556.547    556.547
 34.170   1024.937   1071.148    -46.211    556.310   1018.288    609.119    556.310    556.310
 34.270   1104.000   1111.201     -7.201    556.076   1054.600    612.641    556.076    556.076
 34.370   1040.672   1058.835    -18.163    555.843   1007.353    607.305    555.843    555.843
 34.470    943.423    947.239     -3.816    555.612    906.547    596.296    555.612    555.612
 34.570    780.753    828.068    -47.315    555.383    798.880    584.568    555.383    555.383
 34.670    776.000    731.625     44.375    555.156    711.752    575.028    555.156    555.156
 34.770    665.124    666.039     -0.915    554.930    652.512    568.456    554.930    554.930
 34.870    650.749    626.697     24.052    554.707    616.993    564.409    554.707    554.707
 34.970    663.000    604.764     58.236    554.485    597.208    562.040    554.485    554.485
 35.070    589.958    592.536     -2.578    554.265    586.191    560.609    554.265    554.265
 35.170    583.000    585.175     -2.175    554.047    579.568    559.653    554.047    554.047
 35.270    628.000    580.220     47.780    553.830    575.115    558.935    553.830    553.830
 35.370    524.000    576.565    -52.565    553.616    571.831    558.349    553.616    553.616
 35.470    529.181    573.716    -44.535    553.403    569.270    557.848    553.403    553.403
 35.570    558.000    571.426    -13.426    553.192    567.209    557.409    553.192    553.192
 35.670    594.524    569.549     24.975    552.983    565.514    557.017    552.983    552.983
 35.770    537.000    567.989    -30.989    552.776    564.099    556.665    552.776    552.776
 35.870    560.000    566.677     -6.677    552.570    562.901    556.346    552.570    552.570
 35.970    556.000    565.563     -9.563    552.367    561.874    556.056    552.367    552.367
 36.070    536.000    564.612    -28.612    552.165    560.984    555.792    552.165    552.165
 36.170    590.498    563.797     26.700    551.965    560.207    555.554    551.965    551.965
 36.270    584.000    563.099     20.901    551.766    559.523    555.341    551.766    551.766
 36.370    570.000    562.503      7.497    551.570    558.918    555.154    551.570    551.570
 36.470    545.000    562.000    -17.000    551.375    558.381    554.994    551.375    551.375
 36.570    566.099    561.587      4.513    551.182    557.904    554.865    551.182    551.182
 36.670    537.062    561.260    -24.199    550.991    557.481    554.770    550.991    550.991
 36.770    588.000    561.026     26.974    550.802    557.112    554.715    550.802    550.802
 36.870    547.000    560.892    -13.892    550.614    556.796    554.710    550.614    550.614
 36.970    536.004    560.881    -24.877    550.428    556.543    554.766    550.428    550.428
 37.070    549.000    561.034    -12.034    550.244    556.376    554.902    550.244    550.244
 37.170    556.277    561.431     -5.154    550.062    556.346    555.146    550.062    550.062
 37.270    526.664    562.231    -35.568    549.882    556.558    555.555    549.882    549.882
 37.370    570.000    563.709      6.291    549.703    557.167    556.244    549.703    549.703
 37.470    543.499    566.299    -22.800    549.526    558.361    557.464    549.526    549.526
 37.570    548.000    570.643    -22.643    549.351    560.285    559.709    549.351    549.351
 37.670    586.000    577.557      8.443    549.177    562.916    563.819    549.177    549.177
 37.770    545.000    587.822    -42.822    549.006    565.908    570.919    549.006    549.006
 37.870    577.000    601.680    -24.680    548.836    568.476    582.040    548.836    548.836
 37.970    638.968    618.228     20.740    548.668    569.552    597.344    548.668    548.668
 38.070    599.000    635.184    -36.184    548.501    568.585    615.099    548.501    548.501
 38.170    614.000    648.441    -34.441    548.337    566.097    630.682    548.337    548.337
 38.270    620.000    651.953    -31.953    548.174    562.995    637.134    548.174    548.174
 38.370    619.000    642.431    -23.431    548.013    559.937    630.512    548.013    548.013
 38.470    650.811    624.127     26.684    547.853    557.331    614.655    547.853    547.853
 38.570    592.000    604.170    -12.170    547.695    555.357    596.513    547.695    547.695
 38.670    558.969    587.200    -28.231    547.539    553.980    580.764    547.539    547.539
 38.770    543.000    574.851    -31.851    547.385    553.059    569.180    547.385    547.385
 38.870    511.000    566.835    -55.835    547.233    552.442    561.627    547.233    547.233
 38.970    548.131    562.013    -13.882    547.082    552.010    557.085    547.082    547.082
 39.070    536.176    559.178    -23.002    546.933    551.687    554.425    546.933    546.933
 39.170    519.000    557.441    -38.441    546.785    551.425    552.801    546.785    546.785
 39.270    508.059    556.277    -48.217    546.640    551.203    551.714    546.640    546.640
 39.370    551.000    555.419     -4.419    546.496    551.007    550.908    546.496    546.496
 39.470    528.401    554.743    -26.342    546.353    550.831    550.266    546.353    546.353
 39.570    559.000    554.189      4.811    546.213    550.671    549.731    546.213    546.213
 39.670    559.000    553.725      5.275    546.074    550.526    549.272    546.074    546.074
 39.770    554.000    553.330      0.670    545.936    550.395    548.871    545.936    545.936
 39.870    530.833    552.990    -22.157    545.801    550.275    548.516    545.801    545.801
 39.970    557.000    552.697      4.303    545.667    550.167    548.197    545.667    545.667
 40.070    540.000    552.443    -12.443    545.535    550.070    547.907    545.535    545.535
 40.170    573.581    552.222     21.360    545.404    549.985    547.641    545.404    545.404
 40.270    509.871    552.031    -42.160    545.275    549.911    547.395    545.275    545.275
 40.370    510.000    551.868    -41.868    545.148    549.850    547.166    545.148    545.148
 40.470    522.427    551.730    -29.303    545.022    549.802    546.951    545.022    545.022
 40.570    587.000    551.617     35.383    544.898    549.767    546.748    544.898    544.898
 40.670    537.000    551.529    -14.529    544.776    549.748    546.557    544.776    544.776
 40.770    553.124    551.465      1.659    544.655    549.746    546.375    544.655    544.655
 40.870    596.325    551.429     44.896    544.536    549.764    546.202    544.536    544.536
 40.970    571.000    551.421     19.579    544.419    549.804    546.036    544.419    544.419
 41.070    516.043    551.445    -35.403    544.303    549.871    545.878    544.303    544.303
 41.170    509.000    551.506    -42.506    544.189    549.968    545.727    544.189    544.189
 41.270    540.000    551.608    -11.608    544.076    550.102    545.583    544.076    544.076
 41.370    499.000    551.760    -52.760    543.965    550.281    545.445    543.965    543.965
 41.470    536.000    551.973    -15.973    543.856    550.516    545.314    543.856    543.856
 41.570    594.441    552.261     42.181    543.748    550.821    545.189    543.748    543.748
 41.670    525.000    552.646    -27.646    543.642    551.218    545.071    543.642    543.642
 41.770    589.863    553.165     36.698    543.537    551.742    544.962    543.537    543.537
 41.870    528.000    553.883    -25.883    543.434    552.457    544.862    543.434    543.434
 41.970    540.000    554.934    -14.934    543.333    553.492    544.778    543.333    543.333
 42.070    539.000    556.586    -17.586    543.233    555.105    544.716    543.233    543.233
 42.170    551.000    559.341     -8.341    543.134    557.785    544.695    543.134    543.134
 42.270    519.634    564.031    -44.397    543.038    562.332    544.743    543.038    543.038
 42.370    577.000    571.795      5.205    542.942    569.849    544.897    542.942    542.942
 42.470    544.000    583.825    -39.825    542.848    581.489    545.199    542.848    542.848
 42.570    595.144    600.776     -5.632    542.756    597.884    545.671    542.756    542.756
 42.670    583.676    621.925    -38.248    542.666    618.336    546.287    542.666    542.666
 42.770    604.000    644.244    -40.244    542.576    639.920    546.945    542.576    542.576
 42.870    620.000    661.844    -41.844    542.489    656.942    547.446    542.489    542.489
 42.970    615.000    667.596    -52.596    542.403    662.512    547.547    542.403    542.403
 43.070    675.134    658.496     16.638    542.318    653.725    547.147    542.318    542.318
 43.170    673.931    638.966     34.965    542.235    634.854    546.396    542.235    542.235
 43.270    583.922    616.340    -32.419    542.153    612.989    545.542    542.153    542.153
 43.370    615.532    595.906     19.626    542.073    593.241    544.764    542.073    542.073
 43.470    560.000    580.052    -20.052    541.994    577.920    544.144    541.994    541.994
 43.570    528.000    569.075    -41.075    541.917    567.312    543.691    541.917    541.917
 43.670    550.379    562.112    -11.733    541.841    560.584    543.377    541.841    541.841
 43.770    580.000    557.934     22.066    541.767    556.547    543.159    541.767    541.767
 43.870    564.000    555.456      8.544    541.694    554.153    543.001    541.694    541.694
 43.970    574.000    553.930     20.070    541.623    552.678    542.877    541.623    541.623
 44.070    581.690    552.918     28.771    541.553    551.700    542.773    541.553    541.553
 44.170    575.277    552.197     23.080    541.484    551.002    542.681    541.484    541.484
 44.270    537.000    551.655    -14.655    541.417    550.476    542.597    541.417    541.417
 44.370    557.000    551.236      5.764    541.352    550.069    542.520    541.352    541.352
 44.470    541.767    550.910     -9.143    541.287    549.751    542.447    541.287    541.287
 44.570    574.261    550.657     23.604    541.224    549.502    542.380    541.224    541.224
 44.670    587.592    550.463     37.129    541.163    549.310    542.316    541.163    541.163
 44.770    548.000    550.319     -2.319    541.103    549.165    542.257    541.103    541.103
 44.870    546.000    550.216     -4.216    541.044    549.060    542.201    541.044    541.044
 44.970    562.000    550.151     11.849    540.987    548.990    542.148    540.987    540.987
 45.070    598.677    550.119     48.558    540.931    548.951    542.099    540.931    540.931
 45.170    531.788    550.116    -18.328    540.876    548.939    542.053    540.876    540.876
 45.270    541.888    550.142     -8.253    540.823    548.954    542.011    540.823    540.823
 45.370    532.000    550.194    -18.194    540.771    548.993    541.972    540.771    540.771
 45.470    545.000    550.271     -5.271    540.720    549.055    541.936    540.720    540.720
 45.570    520.746    550.374    -29.628    540.671    549.140    541.904    540.671    540.671
 45.670    577.687    550.502     27.185    540.623    549.249    541.876    540.623    540.623
 45.770    526.000    550.657    -24.657    540.577    549.382    541.851    540.577    540.577
 45.870    564.617    550.839     13.778    540.531    549.539    541.830    540.531    540.531
 45.970    502.281    551.050    -48.769    540.487    549.723    541.814    540.487    540.487
 46.070    536.000    551.292    -15.292    540.445    549.934    541.801    540.445    540.445
 46.170    548.000    551.568     -3.568    540.403    550.177    541.794    540.403    540.403
 46.270    571.000    551.882     19.118    540.363    550.453    541.791    540.363    540.363
 46.370    583.000    552.237     30.763    540.324    550.766    541.794    540.324    540.324
 46.470    523.376    552.641    -29.266    540.287    551.123    541.803    540.287    540.287
 46.570    534.000    553.100    -19.100    540.250    551.530    541.819    540.250    540.250
 46.670    544.000    553.625     -9.625    540.215    551.995    541.843    540.215    540.215
 46.770    509.083    554.228    -45.145    540.181    552.532    541.875    540.181    540.181
 46.870    557.000    554.930      2.070    540.149    553.158    541.918    540.149    540.149
 46.970    567.000    555.766     11.234    540.117    553.906    541.975    540.117    540.117
 47.070    521.854    556.800    -34.947    540.087    554.834    542.050    540.087    540.087
 47.170    581.286    558.155     23.131    540.058    556.056    542.153    540.058    540.058
 47.270    603.399    560.049     43.350    540.030    557.772    542.302    540.030    540.030
 47.370    562.000    562.846     -0.846    540.004    560.320    542.523    540.004    540.004
 47.470    582.000    567.073     14.927    539.978    564.185    542.857    539.978    539.978
 47.570    562.000    573.367    -11.367    539.954    569.954    543.353    539.954    539.954
 47.670    580.000    582.294     -2.294    539.931    578.152    544.054    539.931    539.931
 47.770    558.617    594.064    -35.447    539.909    588.969    544.976    539.909    539.909
 47.870    576.089    608.153    -32.064    539.888    601.923    546.081    539.888    539.888
 47.970    628.000    622.926      5.074    539.868    615.500    547.248    539.868    539.868
 48.070    670.000    635.394     34.606    539.850    626.939    548.251    539.850    539.850
 48.170    589.399    641.846    -52.447    539.833    632.809    548.813    539.833    539.833
 48.270    651.640    640.170     11.470    539.816    631.157    548.776    539.816    539.816
 48.370    638.000    631.773      6.227    539.801    623.279    548.250    539.801    539.801
 48.470    641.417    620.246     21.171    539.787    612.489    547.508    539.787    539.787
 48.570    581.000    608.910    -27.910    539.774    601.854    546.804    539.774    539.774
 48.670    589.254    599.815    -10.561    539.762    593.261    546.297    539.762    539.762
 48.770    549.000    593.831    -44.831    539.751    587.509    546.061    539.751    539.751
 48.870    642.000    591.018     50.982    539.742    584.644    546.106    539.742    539.742
 48.970    564.204    591.012    -26.808    539.733    584.320    546.418    539.733    539.733
 49.070    563.000    593.367    -30.367    539.725    586.109    546.977    539.725    539.725
 49.170    584.376    597.807    -13.431    539.719    589.734    547.787    539.719    539.719
 49.270    582.000    604.440    -22.440    539.713    595.249    548.898    539.713    539.713
 49.370    596.000    614.061    -18.061    539.708    603.304    550.460    539.708    539.708
 49.470    675.683    628.841     46.842    539.705    615.707    552.831    539.705    539.705
 49.570    639.393    653.638    -14.246    539.702    636.532    556.797    539.702    539.702
 49.670    689.000    697.985     -8.985    539.701    673.776    563.889    539.701    539.701
 49.770    771.000    777.902     -6.902    539.700    740.888    576.679    539.700    539.700
 49.870    892.000    915.492    -23.492    539.701    856.421    598.711    539.701    539.701
 49.970   1157.000   1133.480     23.520    539.702   1039.455    633.631    539.702    539.702
 50.070   1439.000   1443.380     -4.380    539.704   1299.664    683.285    539.704    539.704
 50.170   1846.303   1829.972     16.331    539.707   1624.280    745.231    539.707    539.707
 50.270   2162.000   2238.177    -76.177    539.712   1967.079    810.632    539.712    539.712
 50.370   2511.000   2570.043    -59.043    539.717   2245.849    863.768    539.717    539.717
 50.470   2771.161   2709.972     61.189    539.723   2363.557    886.080    539.723    539.723
 50.570   2669.000   2597.953     71.047    539.730   2269.826    867.910    539.730    539.730
 50.670   2248.000   2284.765    -36.765    539.738   2007.290    817.353    539.738    539.738
 50.770   1891.000   1884.012      6.988    539.747   1671.357    752.579    539.747    539.747
 50.870   1486.000   1497.337    -11.337    539.756   1347.424    689.842    539.756    539.756
 50.970   1217.328   1184.730     32.599    539.767   1085.903    638.738    539.767    539.767
 51.070    966.000    965.186      0.814    539.778    902.743    602.329    539.778    539.778
 51.170    793.343    828.931    -35.588    539.790    789.661    579.137    539.790    539.790
 51.270    767.317    752.868     14.449    539.804    727.079    565.649    539.804    539.804
 51.370    728.000    712.933     15.067    539.817    694.495    558.300    539.817    539.817
 51.470    700.000    690.543      9.457    539.832    675.995    554.417    539.832    539.832
 51.570    651.355    674.670    -23.315    539.848    662.005    552.544    539.848    539.848
 51.670    668.000    660.671      7.329    539.864    648.639    551.922    539.864    539.864
 51.770    656.000    647.753      8.247    539.882    635.501    552.153    539.882    539.882
 51.870    648.000    636.509     11.491    539.900    623.424    552.999    539.900    539.900
 51.970    616.447    627.463    -11.016    539.918    613.215    554.175    539.918    539.918
 52.070    571.806    620.632    -48.826    539.938    605.309    555.267    539.938    539.938
 52.170    621.000    615.568      5.432    539.958    599.762    555.767    539.958    539.958
 52.270    600.000    611.701    -11.701    539.979    596.380    555.301    539.979    539.979
 52.370    673.000    608.759     64.241    540.001    594.878    553.883    540.001    540.001
 52.470    649.888    606.894     42.994    540.024    595.028    551.890    540.024    540.024
 52.570    637.000    606.538     30.462    540.047    596.798    549.788    540.047    540.047
 52.670    560.236    608.331    -48.095    540.071    600.480    547.922    540.071    540.071
 52.770    654.000    613.250     40.750    540.096    606.865    546.480    540.096    540.096
 52.870    679.000    622.853     56.147    540.121    617.453    545.520    540.121    540.121
 52.970    663.000    639.524     23.476    540.147    634.643    545.026    540.147    540.147
 53.070    626.108    666.551    -40.443    540.174    661.761    544.959    540.174    540.174
 53.170    746.000    707.793     38.207    540.202    702.693    545.295    540.202    540.202
 53.270    789.000    766.757     22.243    540.230    760.957    546.022    540.230    540.230
 53.370    817.000    845.087    -28.087    540.258    838.213    547.122    540.258    540.258
 53.470    903.000    940.698    -37.698    540.288    932.437    548.538    540.288    540.288
 53.570   1099.000   1045.891     53.109    540.318   1036.069    550.132    540.318    540.318
 53.670   1171.000   1145.791     25.209    540.349   1134.479    551.658    540.349    540.349
 53.770   1231.000   1218.712     12.288    540.380   1206.334    552.763    540.380    540.380
 53.870   1201.584   1242.726    -41.142    540.412   1230.059    553.094    540.412    540.412
 53.970   1267.000   1209.200     57.800    540.444   1197.157    552.509    540.444    540.444
 54.070   1106.000   1130.020    -24.020    540.477   1119.327    551.195    540.477    540.477
 54.170   1044.087   1028.125     15.962    540.511   1019.170    549.490    540.511    540.511
 54.270    946.000    924.393     21.607    540.545    917.185    547.774    540.545    540.545
 54.370    772.499    832.310    -59.810    540.580    826.635    546.271    540.580    540.580
 54.470    719.041    758.328    -39.287    540.615    753.891    545.064    540.615    540.615
 54.570    750.451    703.640     46.811    540.651    700.128    544.171    540.651    540.651
 54.670    649.000    666.058    -17.058    540.687    663.195    543.556    540.687    540.687
 54.770    661.000    641.823     19.177    540.724    639.394    543.156    540.724    540.724
 54.870    650.000    627.028     22.972    540.762    624.881    542.910    540.762    540.762
 54.970    638.000    618.442     19.558    540.799    616.478    542.765    540.799    540.799
 55.070    659.000    613.783     45.217    540.838    611.939    542.682    540.838    540.838
 55.170    639.015    611.625     27.390    540.877    609.863    542.639    540.877    540.877
 55.270    644.000    611.175     32.825    540.916    609.469    542.622    540.916    540.916
 55.370    638.563    612.040     26.522    540.956    610.373    542.623    540.956    540.956
 55.470    639.000    614.073     24.927    540.996    612.431    542.639    540.996    540.996
 55.570    617.876    617.278      0.599    541.037    615.647    542.667    541.037    541.037
 55.670    649.000    621.787     27.213    541.078    620.155    542.708    541.078    541.078
 55.770    610.000    627.906    -17.906    541.119    626.261    542.763    541.119    541.119
 55.870    632.000    636.245     -4.245    541.161    634.572    542.832    541.161    541.161
 55.970    692.000    648.000     44.000    541.203    646.278    542.922    541.203    541.203
 56.070    641.000    665.433    -24.433    541.246    663.633    543.042    541.246    541.246
 56.170    777.000    692.577     84.423    541.289    690.649    543.209    541.289    541.289
 56.270    715.950    736.016    -20.065    541.332    733.882    543.453    541.332    541.332
 56.370    796.873    805.348     -8.475    541.376    802.888    543.815    541.376    541.376
 56.470    892.517    912.674    -20.157    541.420    909.713    544.347    541.420    541.420
 56.570   1035.000   1070.370    -35.370    541.465   1066.681    545.106    541.465    541.465
 56.670   1207.000   1286.882    -79.882    541.509   1282.203    546.126    541.509    541.509
 56.770   1528.000   1561.057    -33.057    541.555   1555.134    547.406    541.555    541.555
 56.870   1910.000   1876.245     33.755    541.600   1868.903    548.872    541.600    541.600
 56.970   2244.000   2195.483     48.517    541.646   2186.713    550.365    541.646    541.646
 57.070   2509.000   2460.547     48.453    541.692   2450.597    551.634    541.692    541.692
 57.170   2626.000   2603.706     22.294    541.738   2593.117    552.385    541.738    541.738
 57.270   2616.000   2580.036     35.964    541.784   2569.523    552.425    541.784    541.784
 57.370   2377.000   2398.289    -21.289    541.831   2388.502    551.797    541.831    541.831
 57.470   2096.000   2113.831    -17.831    541.878   2105.161    550.745    541.878    541.878
 57.570   1794.000   1793.616      0.384    541.926   1786.158    549.569    541.926    541.926
 57.670   1455.000   1490.156    -35.156    541.973   1483.773    548.514    541.973    541.973
 57.770   1211.000   1234.517    -23.517    542.021   1228.915    547.746    542.021    542.021
 57.870    977.000   1038.775    -61.775    542.069   1033.554    547.378    542.069    542.069
 57.970    838.000    901.374    -63.374    542.117    896.031    547.518    542.117    542.117
 58.070    803.000    813.258    -10.258    542.165    807.130    548.328    542.165    542.165
 58.170    721.954    763.397    -41.442    542.214    755.557    550.070    542.214    542.214
 58.270    776.412    742.529     33.883    542.262    731.666    553.128    542.262    542.262
 58.370    744.000    744.717     -0.717    542.311    729.075    557.944    542.311    542.311
 58.470    758.000    767.096     -9.096    542.360    744.554    564.881    542.360    542.360
 58.570    797.976    808.501    -10.525    542.409    776.874    574.004    542.409    542.409
 58.670    897.000    867.666     29.334    542.458    825.241    584.842    542.458    542.458
 58.770    924.000    941.495    -17.495    542.508    887.740    596.215    542.508    542.508
 58.870   1038.674   1023.784     14.889    542.557    960.078    606.216    542.557    542.557
 58.970   1097.620   1105.235     -7.615    542.607   1035.263    612.538    542.607    542.607
 59.070   1170.000   1175.903     -5.903    542.656   1105.162    613.371    542.656    542.656
 59.170   1261.000   1228.804     32.196    542.706   1163.008    608.491    542.706    542.706
 59.270   1233.045   1260.459    -27.414    542.756   1203.791    599.431    542.756    542.756
 59.370   1284.000   1268.616     15.384    542.806   1222.955    588.488    542.806    542.806
 59.470   1258.000   1253.014      4.986    542.856   1218.201    577.700    542.856    542.856
 59.570   1195.128   1219.457    -24.329    542.906   1193.986    568.404    542.906    542.906
 59.670   1213.000   1180.206     32.794    542.956   1161.963    561.210    542.956    542.956
 59.770   1148.000   1148.995     -0.995    543.006   1135.847    556.136    543.006    543.006
 59.870   1136.000   1136.440     -0.440    543.056   1126.607    552.833    543.056    543.056
 59.970   1165.322   1149.055     16.267    543.106   1141.245    550.816    543.106    543.106
 60.070   1147.236   1189.967    -42.730    543.156   1183.337    549.637    543.156    543.156
 60.170   1316.021   1258.393     57.628    543.206   1252.436    548.966    543.206    543.206
 60.270   1377.000   1347.273     29.727    543.256   1341.695    548.592    543.256    543.256
 60.370   1456.000   1441.106     14.894    543.306   1435.749    548.390    543.306    543.306
 60.470   1615.000   1516.330     98.670    543.356   1511.125    548.278    543.356    543.356
 60.570   1612.000   1546.867     65.133    543.405   1541.804    548.203    543.405    543.405
 60.670   1559.323   1516.107     43.216    543.455   1511.203    548.134    543.455    543.455
 60.770   1409.000   1427.165    -18.165    543.505   1422.428    548.069    543.505    543.505
 60.870   1395.000   1300.022     94.978    543.554   1295.425    548.028    543.554    543.554
 60.970   1212.000   1159.541     52.459    543.604   1155.022    548.040    543.604    543.604
 61.070   1101.000   1026.273     74.727    543.653   1021.736    548.138    543.653    543.653
 61.170    910.468    913.441     -2.972    543.703    908.747    548.362    543.703    543.703
 61.270    833.000    827.343      5.657    543.752    822.298    548.771    543.752    543.752
 61.370    767.027    769.147     -2.120    543.801    763.462    549.462    543.801    543.801
 61.470    772.415    737.264     35.152    543.850    730.498    550.588    543.850    543.850
 61.570    769.000    729.655     39.345    543.898    721.135    552.382    543.898    543.898
 61.670    754.961    745.408      9.552    543.947    734.153    555.152    543.947    543.947
 61.770    843.000    785.177     57.823    543.995    769.848    559.256    543.995    543.995
 61.870    886.000    850.412     35.588    544.044    829.344    565.019    544.044    544.044
 61.970    934.000    941.648     -7.648    544.092    913.001    572.618    544.092    544.092
 62.070   1018.000   1056.352    -38.352    544.139   1018.406    581.934    544.139    544.139
 62.170   1146.346   1186.892    -40.547    544.187   1138.483    592.418    544.187    544.187
 62.270   1260.832   1319.121    -58.289    544.234   1260.166    602.993    544.234    544.234
 62.370   1476.114   1432.290     43.825    544.281   1364.313    612.060    544.281    544.281
 62.470   1513.128   1502.309     10.818    544.328   1428.702    617.754    544.328    544.328
 62.570   1503.459   1510.501     -7.042    544.375   1436.097    618.630    544.375    544.375
 62.670   1439.000   1454.059    -15.059    544.421   1383.899    614.472    544.421    544.421
 62.770   1396.028   1347.995     48.033    544.467   1285.938    606.451    544.467    544.467
 62.870   1091.000   1216.057   -125.057    544.513   1164.109    596.416    544.513    544.513
 62.970   1070.480   1080.416     -9.936    544.559   1038.854    586.095    544.559    544.559
 63.070    940.000    956.887    -16.887    544.604    924.757    576.721    544.604    544.604
 63.170    766.000    854.317    -88.317    544.649    829.974    568.985    544.649    544.649
 63.270    669.000    775.652   -106.652    544.694    757.220    563.121    544.694    544.694
 63.370    692.000    719.494    -27.494    544.738    705.201    559.024    544.738    544.738
 63.470    658.000    682.057    -24.057    544.782    670.424    556.408    544.782    544.782
 63.570    705.000    658.871     46.129    544.826    648.756    554.932    544.826    544.826
 63.670    667.000    645.999     21.001    544.869    636.552    554.305    544.869    544.869
 63.770    636.765    640.682     -3.917    544.912    631.241    554.340    544.912    544.912
 63.870    633.581    641.543     -7.962    544.954    631.497    554.985    544.954    544.954
 63.970    699.000    648.515     50.485    544.997    637.156    556.335    544.997    544.997
 64.070    732.000    662.630     69.370    545.038    648.992    558.649    545.038    545.038
 64.170    679.809    685.708     -5.899    545.080    668.401    562.350    545.080    545.080
 64.270    713.000    719.908     -6.908    545.121    696.973    568.005    545.121    545.121
 64.370    820.000    767.102     52.898    545.161    735.934    576.262    545.161    545.161
 64.470    848.697    828.094     20.603    545.201    785.502    587.705    545.201    545.201
 64.570    912.000    901.741     10.259    545.241    844.208    602.664    545.241    545.241
 64.670    918.180    984.102    -65.922    545.280    908.285    620.964    545.280    545.280
 64.770   1111.820   1067.794     44.026    545.319    971.252    641.709    545.319    545.319
 64.870   1267.000   1142.101    124.899    545.357   1024.187    663.109    545.357    545.357
 64.970   1314.000   1194.871    119.129    545.395   1057.651    682.454    545.395    545.395
 65.070   1256.000   1216.437     39.563    545.433   1065.341    696.381    545.433    545.433
 65.170   1297.000   1203.330     93.670    545.470   1046.913    701.765    545.470    545.470
 65.270   1126.785   1159.344    -32.559    545.506   1007.586    697.175    545.506    545.506
 65.370   1067.000   1093.899    -26.899    545.542    955.609    683.773    545.542    545.542
 65.470   1045.000   1018.524     26.476    545.577    899.454    664.618    545.577    545.577
 65.570    914.000    943.298    -29.298    545.612    845.754    643.148    545.612    545.612
 65.670    859.000    874.979    -15.979    545.646    798.459    622.174    545.646    545.646
 65.770    821.000    816.869      4.131    545.680    759.004    603.562    545.680    545.680
 65.870    759.000    769.628    -10.628    545.714    727.093    588.271    545.714    545.714
 65.970    711.000    732.390    -21.390    545.746    701.645    576.513    545.746    545.746
 66.070    714.000    703.689     10.311    545.778    681.506    567.980    545.778    545.778
 66.170    697.453    681.969     15.484    545.810    665.712    562.083    545.810    545.810
 66.270    699.000    665.806     33.194    545.841    653.503    558.156    545.841    545.841
 66.370    643.000    654.021    -11.021    545.871    644.305    555.595    545.871    545.871
 66.470    633.000    645.736    -12.736    545.901    637.716    553.926    545.901    545.901
 66.570    611.000    640.360    -29.360    545.930    633.477    552.816    545.930    545.930
 66.670    603.237    637.537    -34.300    545.959    631.448    552.048    545.959    545.959
 66.770    626.914    637.102    -10.188    545.986    631.593    551.495    545.986    545.986
 66.870    624.000    639.095    -15.095    546.014    634.024    551.084    546.014    546.014
 66.970    613.000    643.842    -30.842    546.040    639.105    550.777    546.040    546.040
 67.070    645.867    652.129     -6.262    546.066    647.633    550.561    546.066    546.066
 67.170    653.698    665.436    -11.738    546.092    661.090    550.436    546.092    546.092
 67.270    664.000    686.231    -22.231    546.116    681.926    550.417    546.116    546.116
 67.370    680.642    718.243    -37.601    546.140    713.842    550.535    546.140    546.140
 67.470    785.000    766.580     18.420    546.164    761.901    550.833    546.164    546.164
 67.570    797.000    837.523    -40.523    546.186    832.328    551.369    546.186    546.186
 67.670    906.000    937.801    -31.801    546.208    931.789    552.202    546.208    546.208
 67.770   1052.082   1073.235    -21.153    546.229   1066.057    553.386    546.229    546.229
 67.870   1225.000   1246.853    -21.853    546.250   1238.133    554.949    546.250    546.250
 67.970   1441.000   1456.727    -15.727    546.269   1446.112    556.869    546.269    546.269
 68.070   1723.000   1693.954     29.046    546.288   1681.181    559.060    546.288    546.288
 68.170   2015.236   1941.094     74.142    546.307   1926.070    561.356    546.307    546.307
 68.270   2255.485   2171.530     83.954    546.324   2154.420    563.499    546.324    546.324
 68.370   2306.000   2351.220    -45.220    546.341   2332.512    565.164    546.341    546.341
 68.470   2495.000   2445.907     49.093    546.357   2426.414    566.023    546.357    546.357
 68.570   2377.000   2434.354    -57.354    546.372   2415.080    565.872    546.372    546.372
 68.670   2361.000   2319.396     41.604    546.387   2301.306    564.738    546.387    546.387
 68.770   2179.000   2126.239     52.761    546.400   2110.051    562.860    546.400    546.400
 68.870   1911.000   1889.910     21.090    546.413   1876.011    560.573    546.413    546.413
 68.970   1627.000   1643.161    -16.161    546.425   1631.630    558.190    546.425    546.425
 69.070   1423.000   1410.684     12.316    546.436   1401.372    555.946    546.436    546.436
 69.170   1258.998   1208.034     50.964    546.447   1200.650    553.990    546.447    546.447
 69.270    993.000   1042.503    -49.503    546.456   1036.692    552.390    546.456    546.456
 69.370    825.000    914.800    -89.800    546.465    910.204    551.151    546.465    546.465
 69.470    817.000    821.138     -4.138    546.473    817.434    550.242    546.473    546.473
 69.570    778.000    755.355     22.645    546.480    752.278    549.602    546.480    546.480
 69.670    673.461    710.706    -37.245    546.486    708.057    549.165    546.486    546.486
 69.770    664.000    681.076    -17.076    546.492    678.715    548.873    546.492    546.492
 69.870    678.000    661.578     16.422    546.496    659.408    548.680    546.496    546.496
 69.970    629.653    648.670    -19.017    546.500    646.627    548.551    546.500    546.500
 70.070    589.905    639.982    -50.077    546.503    638.027    548.465    546.503    546.503
 70.170    584.632    634.037    -49.405    546.505    632.140    548.405    546.505    546.505
 70.270    629.000    629.964     -0.964    546.506    628.106    548.366    546.506    546.506
 70.370    671.017    627.280     43.737    546.506    625.445    548.341    546.506    546.506
 70.470    613.000    625.743    -12.743    546.505    623.917    548.330    546.505    546.505
 70.570    625.744    625.266      0.479    546.503    623.436    548.331    546.503    546.503
 70.670    627.926    625.892      2.033    546.500    624.043    548.345    546.500    546.500
 70.770    662.000    627.807     34.193    546.497    625.923    548.376    546.497    546.497
 70.870    649.633    631.397     18.236    546.492    629.453    548.428    546.492    546.492
 70.970    630.000    637.342     -7.342    546.486    635.307    548.512    546.486    546.486
 71.070    672.057    646.753     25.304    546.480    644.577    548.642    546.480    546.480
 71.170    660.000    661.319     -1.319    546.473    658.932    548.841    546.473    546.473
 71.270    701.000    683.438     17.562    546.464    680.733    549.142    546.464    546.464
 71.370    701.493    716.253    -14.759    546.455    713.082    549.588    546.455    546.455
 71.470    730.000    763.517    -33.517    546.444    759.680    550.229    546.444    546.444
 71.570    797.760    829.196    -31.435    546.433    824.438    551.119    546.433    546.433
 71.670    892.000    916.770    -24.770    546.421    910.788    552.306    546.421    546.421
 71.770   1025.000   1028.272     -3.272    546.407   1020.735    553.817    546.407    546.407
 71.870   1132.000   1163.191    -31.191    546.393   1153.777    555.647    546.393    546.393
 71.970   1349.000   1317.428     31.572    546.378   1305.871    557.741    546.378    546.378
 72.070   1569.000   1482.450     86.550    546.361   1468.600    559.985    546.361    546.361
 72.170   1621.000   1644.772    -23.772    546.344   1628.667    562.198    546.344    546.344
 72.270   1758.000   1786.114    -28.114    546.326   1768.042    564.135    546.326    546.326
 72.370   1951.000   1885.383     65.617    546.306   1865.919    565.512    546.306    546.306
 72.470   1862.000   1924.078    -62.078    546.286   1904.049    566.080    546.286    546.286
 72.570   1884.000   1894.003    -10.003    546.264   1874.340    565.729    546.264    546.264
 72.670   1715.580   1801.538    -85.958    546.241   1783.081    564.546    546.241    546.241
 72.770   1662.651   1664.202     -1.551    546.218   1647.547    562.764    546.218    546.218
 72.870   1399.000   1503.052   -104.052    546.193   1488.507    560.665    546.193    546.193
 72.970   1325.274   1336.875    -11.601    546.167   1324.499    558.499    546.167    546.167
 73.070   1246.908   1179.819     67.089    546.140   1169.484    556.451    546.140    546.140
 73.170    999.703   1041.055    -41.352    546.112   1032.518    554.638    546.112    546.112
 73.270    941.000    925.233     15.767    546.083    918.194    553.118    546.083    546.083
 73.370    808.568    833.294    -24.725    546.053    827.445    551.901    546.053    546.053
 73.470    810.000    763.503     46.497    546.022    758.556    550.969    546.022    546.022
 73.570    709.000    712.551     -3.551    545.990    708.255    550.286    545.990    545.990
 73.670    637.000    676.542    -39.542    545.956    672.684    549.813    545.956    545.956
 73.770    630.390    651.718    -21.328    545.922    648.123    549.516    545.922    545.922
 73.870    633.769    634.903     -1.133    545.886    631.417    549.370    545.886    545.886
 73.970    581.000    623.659    -42.659    545.849    620.146    549.361    545.849    545.849
 74.070    650.302    616.267     34.035    545.811    612.594    549.485    545.811    545.811
 74.170    627.000    611.595     15.405    545.772    607.626    549.744    545.772    545.772
 74.270    630.000    608.932     21.068    545.732    604.528    550.143    545.732    545.732
 74.370    596.041    607.830    -11.789    545.691    602.850    550.681    545.691    545.691
 74.470    609.000    607.975      1.025    545.648    602.287    551.350    545.648    545.648
 74.570    648.000    609.091     38.909    545.605    602.587    552.128    545.605    545.605
 74.670    599.077    610.883    -11.807    545.560    603.492    552.976    545.560    545.560
 74.770    646.000    612.994     33.006    545.514    604.704    553.834    545.514    545.514
 74.870    621.000    614.993      6.007    545.467    605.869    554.627    545.467    545.467
 74.970    648.000    616.406     31.594    545.419    606.599    555.264    545.419    545.419
 75.070    696.000    616.801     79.199    545.369    606.544    555.667    545.369    545.369
 75.170    648.000    615.939     32.061    545.318    605.505    555.793    545.318    545.318
 75.270    650.283    613.884     36.399    545.267    603.525    555.665    545.267    545.267
 75.370    656.000    611.004     44.996    545.213    600.886    555.368    545.213    545.213
 75.470    638.246    607.859     30.387    545.159    598.020    555.028    545.159    545.159
 75.570    676.000    605.085     70.915    545.104    595.417    554.795    545.104    545.104
 75.670    637.000    603.333     33.667    545.047    593.571    554.827    545.047    545.047
 75.770    640.000    603.257     36.743    544.989    592.968    555.289    544.989    544.989
 75.870    648.000    605.512     42.488    544.930    594.090    556.355    544.930    544.930
 75.970    653.000    610.738     42.262    544.870    597.401    558.202    544.870    544.870
 76.070    566.723    619.529    -52.806    544.809    603.327    560.998    544.809    544.809
 76.170    625.032    632.352     -7.320    544.746    612.197    564.879    544.746    544.746
 76.270    662.000    649.453     12.547    544.682    624.182    569.921    544.682    544.682
 76.370    668.000    670.735     -2.735    544.617    639.204    576.107    544.617    544.617
 76.470    703.164    695.641      7.523    544.550    656.856    583.285    544.550    544.550
 76.570    702.147    723.047    -20.900    544.483    676.325    591.145    544.483    544.483
 76.670    771.000    751.194     19.806    544.414    696.343    599.196    544.414    544.414
 76.770    782.000    777.673      4.327    544.344    715.180    606.762    544.344    544.344
 76.870    781.000    799.521    -18.521    544.272    730.707    613.009    544.272    544.272
 76.970    875.000    813.637     61.363    544.200    740.696    617.064    544.200    544.200
 77.070    856.000    817.599     38.401    544.126    743.408    618.244    544.126    544.126
 77.170    806.000    810.597     -4.597    544.051    738.259    616.321    544.051    544.051
 77.270    809.562    793.811     15.751    543.974    726.096    611.631    543.974    543.974
 77.370    786.000    769.872     16.128    543.897    708.804    604.915    543.897    543.897
 77.470    705.000    741.891    -36.891    543.818    688.614    597.054    543.818    543.818
 77.570    715.000    712.705      2.295    543.737    667.561    588.849    543.737    543.737
 77.670    658.000    684.544    -26.544    543.656    647.245    580.930    543.656    543.656
 77.770    635.000    658.963    -23.963    543.573    628.780    573.737    543.573    543.573
 77.870    677.642    636.878     40.764    543.489    612.823    567.529    543.489    543.489
 77.970    590.778    618.651    -27.873    543.404    599.635    562.409    543.404    543.404
 78.070    616.000    604.211     11.789    543.317    589.162    558.358    543.317    543.317
 78.170    618.000    593.183     24.817    543.229    581.136    555.269    543.229    543.229
 78.270    572.000    585.028    -13.028    543.140    575.170    552.993    543.140    543.140
 78.370    610.000    579.160     30.840    543.050    570.843    551.363    543.050    543.050
 78.470    611.358    575.025     36.333    542.958    567.755    550.224    542.958    542.958
 78.570    581.440    572.153      9.288    542.865    565.571    549.443    542.865    542.865
 78.670    582.760    570.176     12.584    542.771    564.024    548.919    542.771    542.771
 78.770    552.000    568.827    -16.827    542.675    562.923    548.575    542.675    542.675
 78.870    517.977    567.922    -49.945    542.578    562.136    548.362    542.578    542.578
 78.970    563.736    567.347     -3.611    542.480    561.578    548.247    542.480    542.480
 79.070    566.000    567.036     -1.036    542.381    561.201    548.213    542.381    542.381
 79.170    550.000    566.958    -16.958    542.280    560.982    548.253    542.280    542.280
 79.270    570.000    567.108      2.892    542.178    560.914    548.368    542.178    542.178
 79.370    530.406    567.502    -37.096    542.074    561.004    548.569    542.074    542.074
 79.470    544.000    568.174    -24.174    541.969    561.267    548.872    541.969    541.969
 79.570    579.420    569.178     10.242    541.863    561.727    549.311    541.863    541.863
 79.670    551.000    570.597    -19.597    541.756    562.416    549.933    541.756    541.756
 79.770    584.197    572.548     11.649    541.647    563.374    550.817    541.647    541.647
 79.870    535.607    575.202    -39.595    541.537    564.656    552.078    541.537    541.537
 79.970    537.122    578.802    -41.680    541.426    566.337    553.885    541.426    541.426
 80.070    558.449    583.684    -25.235    541.313    568.517    556.472    541.313    541.313
 80.170    613.686    590.289     23.397    541.199    571.328    560.150    541.199    541.199
 80.270    599.628    599.171      0.457    541.084    574.941    565.302    541.084    541.084
 80.370    659.364    610.977     48.387    540.967    579.562    572.368    540.967    540.967
 80.470    597.604    626.407    -28.803    540.850    585.432    581.808    540.850    540.850
 80.570    681.699    646.137     35.562    540.730    592.812    594.037    540.730    540.730
 80.670    645.547    670.728    -25.180    540.610    601.970    609.347    540.610    540.610
 80.770    699.000    700.489     -1.489    540.488    613.146    627.810    540.488    540.488
 80.870    741.000    735.337      5.663    540.365    626.502    649.179    540.365    540.365
 80.970    744.259    774.633    -30.374    540.240    642.048    672.805    540.240    540.240
 81.070    825.463    817.054      8.409    540.114    659.572    697.579    540.114    540.114
 81.170    875.000    860.536     14.464    539.987    678.585    721.927    539.987    539.987
 81.270    931.620    902.348     29.272    539.859    698.308    743.895    539.859    539.859
 81.370    946.585    939.375      7.209    539.729    717.730    761.380    539.729    539.729
 81.470   1007.000    968.661     38.339    539.598    735.746    772.530    539.598    539.598
 81.570    950.434    988.000    -37.566    539.465    751.321    776.174    539.465    539.465
 81.670    990.000    996.298     -6.298    539.331    763.619    772.051    539.331    539.331
 81.770   1022.000    993.573     28.427    539.196    772.063    760.757    539.196    539.196
 81.870    999.000    980.803     18.197    539.060    776.373    743.550    539.060    539.060
 81.970    961.000    959.712      1.288    538.922    776.557    722.144    538.922    538.922
 82.070    982.316    932.430     49.886    538.783    772.832    698.454    538.783    538.783
 82.170    845.838    901.100    -55.262    538.643    765.505    674.314    538.643    538.643
 82.270    893.000    867.634     25.366    538.501    754.974    651.238    538.501    538.501
 82.370    839.000    833.668      5.332    538.358    741.801    630.301    538.358    538.358
 82.470    808.000    800.570      7.430    538.214    726.733    612.123    538.214    538.214
 82.570    743.000    769.371    -26.371    538.068    710.580    596.928    538.068    538.068
 82.670    734.000    740.683     -6.683    537.921    694.044    584.625    537.921    537.921
 82.770    686.907    714.714    -27.807    537.773    677.630    574.916    537.773    537.773
 82.870    687.000    691.384     -4.384    537.623    661.671    567.389    537.623    537.623
 82.970    659.000    670.703    -11.703    537.472    646.584    561.638    537.472    537.472
 83.070    632.000    652.584    -20.584    537.320    632.675    557.269    537.320    537.320
 83.170    628.006    637.036     -9.030    537.167    620.272    553.963    537.167    537.167
 83.270    642.000    624.099     17.901    537.012    609.664    551.472    537.012    537.012
 83.370    583.251    613.797    -30.545    536.856    601.055    549.615    536.856    536.856
 83.470    582.702    606.110    -23.408    536.698    594.553    548.265    536.698    536.698
 83.570    628.318    600.966     27.352    536.540    590.173    547.335    536.540    536.540
 83.670    546.000    598.226    -52.226    536.380    587.838    546.761    536.380    536.380
 83.770    559.000    597.669    -38.669    536.218    587.380    546.493    536.218    536.218
 83.870    625.023    598.987     26.036    536.056    588.541    546.480    536.056    536.056
 83.970    583.000    601.775    -18.775    535.892    590.975    546.664    535.892    535.892
 84.070    584.469    605.537    -21.068    535.727    594.250    546.978    535.727    535.727
 84.170    631.941    609.689     22.252    535.560    597.866    547.343    535.560    535.560
 84.270    613.000    613.587     -0.587    535.392    601.264    547.670    535.392    535.392
 84.370    569.000    616.567    -47.567    535.223    603.874    547.869    535.223    535.223
 84.470    582.822    618.039    -35.216    535.053    605.187    547.856    535.053    535.053
 84.570    564.000    617.601    -53.601    534.881    604.858    547.577    534.881    534.881
 84.670    621.130    615.152      5.979    534.709    602.796    547.019    534.709    534.709
 84.770    622.000    610.900     11.100    534.534    599.180    546.214    534.534    534.534
 84.870    630.720    605.283     25.437    534.359    594.377    545.229    534.359    534.359
 84.970    584.698    598.830    -14.132    534.182    588.836    544.145    534.182    534.182
 85.070    559.157    592.068    -32.911    534.005    582.999    543.046    534.005    534.005
 85.170    505.000    585.446    -80.446    533.825    577.241    542.007    533.825    533.825
 85.270    572.000    579.322     -7.322    533.645    571.851    541.096    533.645    533.645
 85.370    558.000    573.953    -15.953    533.463    567.030    540.370    533.463    533.463
 85.470    560.000    569.506     -9.506    533.280    562.895    539.877    533.280    533.280
 85.570    568.000    566.065      1.935    533.096    559.488    539.661    533.096    533.096
 85.670    571.000    563.652      7.348    532.911    556.797    539.754    532.911    532.911
 85.770    610.675    562.241     48.434    532.724    554.767    540.187    532.724    532.724
 85.870    538.215    561.783    -23.567    532.536    553.329    540.979    532.536    532.536
 85.970    532.920    562.209    -29.289    532.347    552.408    542.136    532.347    532.347
 86.070    613.571    563.449     50.122    532.157    551.944    543.648    532.157    532.157
 86.170    599.818    565.431     34.387    531.966    551.899    545.483    531.966    531.966
 86.270    562.000    568.085     -6.085    531.773    552.263    547.578    531.773    531.773
 86.370    576.000    571.340      4.660    531.579    553.058    549.840    531.579    531.579
 86.470    582.000    575.122      6.878    531.384    554.340    552.143    531.384    531.384
 86.570    592.000    579.357     12.643    531.188    556.192    554.325    531.188    531.188
 86.670    543.950    583.964    -40.013    530.990    558.723    556.200    530.990    530.990
 86.770    632.000    588.870     43.130    530.791    562.056    557.570    530.791    530.791
 86.870    607.249    594.026     13.222    530.592    566.314    558.263    530.592    530.592
 86.970    618.450    599.435     19.014    530.390    571.608    558.171    530.390    530.390
 87.070    637.000    605.161     31.839    530.188    578.013    557.281    530.188    530.188
 87.170    669.000    611.308     57.692    529.985    585.547    555.683    529.985    529.985
 87.270    623.000    617.974      5.026    529.780    594.148    553.533    529.780    529.780
 87.370    672.252    625.178     47.074    529.575    603.653    551.017    529.575    529.575
 87.470    600.000    632.819    -32.819    529.368    613.780    548.313    529.368    529.368
 87.570    595.993    640.643    -44.650    529.160    624.121    545.579    529.160    529.160
 87.670    681.000    648.240     32.760    528.951    634.139    542.939    528.951    528.951
 87.770    647.000    655.050     -8.050    528.740    643.184    540.486    528.740    528.740
 87.870    650.676    660.422     -9.746    528.529    650.546    538.280    528.529    528.529
 87.970    656.000    663.719     -7.719    528.317    655.557    536.351    528.317    528.317
 88.070    617.460    664.469    -47.009    528.103    657.741    534.706    528.103    528.103
 88.170    626.000    662.513    -36.513    527.888    656.954    533.329    527.888    527.888
 88.270    698.000    658.065     39.935    527.673    653.433    532.195    527.673    527.673
 88.370    663.000    651.640     11.360    527.456    647.727    531.271    527.456    527.456
 88.470    672.000    643.931     28.069    527.238    640.559    530.524    527.238    527.238
 88.570    647.028    635.674     11.355    527.019    632.698    529.923    527.019    527.019
 88.670    583.807    627.569    -43.762    526.799    624.870    529.441    526.799    526.799
 88.770    623.000    620.235      2.765    526.577    617.713    529.056    526.577    526.577
 88.870    589.000    614.172    -25.172    526.355    611.745    528.750    526.355    526.355
 88.970    545.000    609.744    -64.744    526.132    607.344    528.512    526.132    526.132
 89.070    645.000    607.160     37.840    525.908    604.730    528.330    525.908    525.908
 89.170    607.000    606.466      0.534    525.682    603.956    528.194    525.682    525.682
 89.270    576.311    607.547    -31.236    525.456    604.920    528.095    525.456    525.456
 89.370    641.000    610.138     30.862    525.228    607.365    528.022    525.228    525.228
 89.470    575.000    613.836    -38.836    525.000    610.903    527.963    525.000    525.000
 89.570    636.061    618.127     17.934    524.771    615.030    527.905    524.771    524.771
 89.670    602.000    622.404    -20.404    524.540    619.158    527.831    524.540    524.540
 89.770    645.000    626.018     18.982    524.309    622.652    527.725    524.309    524.309
 89.870    652.000    628.340     23.660    524.077    624.901    527.571    524.077    524.077
 89.970    656.000    628.873     27.127    523.843    625.419    527.357    523.843    523.843
 90.070    612.000    627.349    -15.349    523.609    623.944    527.075    523.609    523.609
 90.170    576.409    623.789    -47.380    523.374    620.495    526.728    523.374    523.374
 90.270    619.000    618.475      0.525    523.138    615.345    526.326    523.138    523.138
 90.370    651.000    611.851     39.149    522.900    608.922    525.883    522.900    522.900
 90.470    565.575    604.417    -38.842    522.662    601.715    525.414    522.662    522.662
 90.570    560.000    596.659    -36.659    522.424    594.191    524.934    522.424    522.424
 90.670    614.166    588.989     25.177    522.184    586.754    524.456    522.184    522.184
 90.770    546.354    581.738    -35.384    521.943    579.722    523.990    521.943    521.943
 90.870    547.000    575.149    -28.149    521.701    573.333    523.543    521.701    521.701
 90.970    566.435    569.376     -2.941    521.459    567.735    523.119    521.459    521.459
 91.070    550.000    564.496    -14.496    521.215    563.004    522.722    521.215    521.215
 91.170    548.072    560.522    -12.450    520.971    559.153    522.351    520.971    520.971
 91.270    569.000    557.418     11.582    520.726    556.145    522.006    520.726    520.726
 91.370    502.000    555.117    -53.117    520.480    553.918    521.684    520.480    520.480
 91.470    508.000    553.542    -45.542    520.234    552.394    521.383    520.234    520.234
 91.570    584.000    552.617     31.383    519.986    551.502    521.101    519.986    519.986
 91.670    494.000    552.283    -58.283    519.738    551.183    520.835    519.738    519.738
 91.770    561.000    552.508      8.492    519.489    551.407    520.586    519.489    519.489
 91.870    535.000    553.292    -18.292    519.239    552.173    520.352    519.239    519.239
 91.970    551.000    554.672     -3.672    518.988    553.518    520.135    518.988    518.988
 92.070    562.000    556.721      5.279    518.737    555.513    519.936    518.737    518.737
 92.170    525.000    559.549    -34.549    518.484    558.265    519.758    518.484    518.484
 92.270    531.000    563.294    -32.294    518.231    561.907    519.604    518.231    518.231
 92.370    528.860    568.115    -39.255    517.978    566.597    519.479    517.978    517.978
 92.470    579.000    574.186      4.814    517.723    572.503    519.386    517.723    517.723
 92.570    591.518    581.672      9.846    517.468    579.787    519.328    517.468    517.468
 92.670    597.000    590.719      6.281    517.212    588.595    519.307    517.212    517.212
 92.770    575.079    601.436    -26.357    516.956    599.031    519.324    516.956    516.956
 92.870    603.000    613.871    -10.871    516.699    611.148    519.379    516.699    516.699
 92.970    582.000    627.999    -45.999    516.441    624.925    519.466    516.441    516.441
 93.070    648.964    643.708      5.255    516.183    640.253    519.581    516.183    516.183
 93.170    672.000    660.784     11.216    515.924    656.929    519.715    515.924    515.924
 93.270    653.702    678.906    -25.203    515.664    674.641    519.858    515.664    515.664
 93.370    668.000    697.649    -29.649    515.404    692.976    519.999    515.404    515.404
 93.470    702.645    716.505    -13.861    515.143    711.439    520.127    515.143    515.143
 93.570    689.749    734.938    -45.189    514.881    729.498    520.233    514.881    514.881
 93.670    700.036    752.468    -52.432    514.619    746.679    520.317    514.619    514.619
 93.770    825.388    768.789     56.598    514.357    762.667    520.386    514.357    514.357
 93.870    748.770    783.850    -35.080    514.094    777.388    520.462    514.094    514.094
 93.970    769.000    797.852    -28.852    513.830    791.012    520.576    513.830    513.830
 94.070    786.000    811.168    -25.168    513.566    803.868    520.773    513.566    513.566
 94.170    790.000    824.204    -34.204    513.301    816.317    521.097    513.301    513.301
 94.270    830.000    837.284     -7.284    513.036    828.639    521.591    513.036    513.036
 94.370    838.000    850.584    -12.584    512.770    840.974    522.291    512.770    512.770
 94.470    857.000    864.206     -7.206    512.504    853.405    523.218    512.504    512.504
 94.570    892.642    878.120     14.522    512.238    865.895    524.377    512.238    512.238
 94.670    879.000    892.264    -13.264    511.971    878.401    525.751    511.971    511.971
 94.770    952.000    906.518     45.482    511.703    890.840    527.300    511.703    511.703
 94.870    855.849    920.617    -64.768    511.436    903.011    528.964    511.436    511.436
 94.970    958.000    934.065     23.935    511.167    914.503    530.655    511.167    511.167
 95.070    955.000    946.070      8.930    510.899    924.629    532.270    510.899    510.899
 95.170   1046.000    955.563     90.437    510.630    932.441    533.687    510.630    510.630
 95.270    931.211    961.293    -30.082    510.361    936.814    534.782    510.361    510.361
 95.370    965.000    962.033      2.967    510.091    936.638    535.437    510.091    510.091
 95.470    967.000    956.856     10.144    509.821    931.073    535.565    509.821    509.821
 95.570    971.000    945.410     25.590    509.551    919.805    535.125    509.551    509.551
 95.670    991.979    928.064     63.915    509.280    903.187    534.136    509.280    509.280
 95.770    913.615    905.868      7.747    509.010    882.197    532.667    509.010    509.010
 95.870    887.342    880.351      6.991    508.739    858.257    530.825    508.739    508.739
 95.970    834.967    853.284    -18.317    508.468    833.015    528.733    508.468    508.468
 96.070    805.013    826.479    -21.466    508.196    808.161    526.514    508.196    508.196
 96.170    840.359    801.680     38.679    507.924    785.325    524.279    507.924    507.924
 96.270    832.000    780.489     51.511    507.653    766.015    522.126    507.653    507.653
 96.370    747.000    764.348    -17.348    507.381    751.593    520.131    507.381    507.381
 96.470    814.000    754.514     59.486    507.108    743.261    518.351    507.108    507.108
 96.570    749.000    752.061     -3.061    506.836    742.056    516.824    506.836    506.836
 96.670    744.000    757.870    -13.870    506.564    748.838    515.571    506.564    506.564
 96.770    836.000    772.604     63.396    506.291    764.267    514.595    506.291    506.291
 96.870    739.414    796.668    -57.254    506.019    788.755    513.888    506.019    506.019
 96.970    878.016    830.316     47.700    505.746    822.572    513.434    505.746    505.746
 97.070    833.000    873.457    -40.457    505.473    865.649    513.213    505.473    505.473
 97.170    914.000    925.621    -11.621    505.201    917.543    513.199    505.201    505.201
 97.270   1027.000    985.965     41.035    504.928    977.439    513.362    504.928    504.928
 97.370   1015.000   1053.194    -38.194    504.655   1044.076    513.670    504.655    504.655
 97.470   1150.000   1125.516     24.484    504.382   1115.700    514.085    504.382    504.382
 97.570   1131.281   1200.610    -69.329    504.110   1190.033    514.567    504.110    504.110
 97.670   1327.000   1275.623     51.377    503.837   1264.268    515.067    503.837    503.837
 97.770   1293.622   1347.197    -53.575    503.565   1335.100    515.536    503.565    503.565
 97.870   1414.777   1411.590      3.188    503.292   1398.841    515.918    503.292    503.292
 97.970   1399.732   1464.912    -65.180    503.020   1451.659    516.158    503.020    503.020
 98.070   1515.000   1503.551     11.449    502.748   1489.991    516.206    502.748    502.748
 98.170   1440.156   1524.727    -84.570    502.475   1511.094    516.024    502.475    502.475
 98.270   1523.000   1527.035     -4.035    502.204   1513.580    515.594    502.204    502.204
 98.370   1537.000   1510.736     26.264    501.932   1497.703    514.921    501.932    501.932
 98.470   1503.000   1477.643     25.357    501.660   1465.248    514.032    501.660    501.660
 98.570   1355.000   1430.741    -75.741    501.389   1419.155    512.969    501.389    501.389
 98.670   1310.759   1373.666    -62.907    501.118   1363.011    511.782    501.118    501.118
 98.770   1300.000   1310.255    -10.255    500.847   1300.603    510.520    500.847    500.847
 98.870   1192.000   1244.236    -52.236    500.577   1235.610    509.230    500.577    500.577
 98.970   1173.061   1179.035     -5.974    500.307   1171.421    507.952    500.307    500.307
 99.070   1148.331   1117.675     30.656    500.037   1111.026    506.718    500.037    500.037
 99.170   1067.723   1062.738      4.985    499.768   1056.980    505.555    499.768    499.768
 99.270   1006.000   1016.358    -10.358    499.499   1011.400    504.481    499.499    499.499
 99.370   1044.713    980.241     64.473    499.230    975.983    503.507    499.230    499.230
 99.470    897.341    955.696    -58.355    498.962    952.033    502.637    498.962    498.962
 99.570    962.000    943.669     18.331    498.694    940.494    501.873    498.694    498.694
 99.670   1001.000    944.763     56.237    498.426    941.977    501.208    498.426    498.426
 99.770    980.000    959.263     20.737    498.159    956.773    500.637    498.159    498.159
 99.870    983.000    987.147     -4.147    497.893    984.871    500.150    497.893    497.893
 99.970   1033.324   1028.087      5.237    497.627   1025.954    499.735    497.627    497.627
100.070   1042.549   1081.442    -38.893    497.362   1079.393    499.382    497.362    497.362
100.170   1135.000   1146.236    -11.236    497.097   1144.222    499.080    497.097    497.097
100.270   1271.019   1221.129     49.890    496.833   1219.113    498.818    496.833    496.833
100.370   1329.000   1304.387     24.613    496.569   1302.342    498.586    496.569    496.569
100.470   1456.000   1393.850     62.150    496.306   1391.759    498.376    496.306    496.306
100.570   1443.926   1486.928    -43.002    496.044   1484.781    498.178    496.044    496.044
100.670   1541.429   1580.636    -39.207    495.782   1578.434    497.985    495.782    495.782
100.770   1606.489   1671.722    -65.233    495.521   1669.469    497.790    495.521    495.521
100.870   1917.000   1756.891    160.109    495.261   1754.599    497.588    495.261    495.261
100.970   1874.000   1833.101     40.899    495.002   1830.784    497.374    495.002    495.002
101.070   1827.966   1897.919    -69.953    494.743   1895.591    497.149    494.743    494.743
101.170   1915.000   1949.616    -34.616    494.485   1947.289    496.912    494.485    494.485
101.270   1983.830   1987.133     -3.302    494.228   1984.814    496.667    494.228    494.228
101.370   2071.000   2009.906     61.094    493.972   2007.597    496.419    493.972    493.972
101.470   1934.562   2017.648    -83.086    493.716   2015.346    496.173    493.716    493.716
101.570   2002.000   2010.278     -8.278    493.462   2007.974    495.934    493.462    493.462
101.670   2071.000   1988.039     82.961    493.208   1985.717    495.708    493.208    493.208
101.770   1945.000   1951.744     -6.744    492.955   1949.388    495.497    492.955    492.955
101.870   1987.549   1902.999     84.550    492.704   1900.587    495.303    492.704    492.704
101.970   1822.421   1844.237    -21.816    492.453   1841.749    495.127    492.453    492.453
102.070   1857.673   1778.525     79.148    492.203   1775.941    494.969    492.203    492.203
102.170   1701.003   1709.193     -8.189    491.954   1706.496    494.825    491.954    491.954
102.270   1612.132   1639.439    -27.306    491.707   1636.619    494.691    491.707    491.707
102.370   1579.000   1572.017      6.983    491.460   1569.068    494.562    491.460    491.460
102.470   1481.000   1509.052    -28.052    491.215   1505.977    494.431    491.215    491.215
102.570   1440.000   1451.966    -11.966    490.971   1448.773    494.292    490.971    490.971
102.670   1452.345   1401.475     50.869    490.727   1398.180    494.140    490.727    490.727
102.770   1357.076   1357.635     -0.559    490.485   1354.259    493.969    490.485    490.485
102.870   1325.674   1319.896      5.777    490.245   1316.463    493.777    490.245    490.245
102.970   1294.477   1287.189      7.288    490.005   1283.727    493.559    490.005    490.005
103.070   1284.000   1258.035     25.965    489.767   1254.575    493.313    489.767    489.767
103.170   1243.043   1230.714     12.329    489.530   1227.289    493.038    489.530    489.530
103.270   1090.000   1203.472   -113.472    489.294   1200.115    492.732    489.294    489.294
103.370   1170.535   1174.770     -4.235    489.060   1171.516    492.395    489.060    489.060
103.470   1134.278   1143.508     -9.230    488.827   1140.387    492.028    488.827    488.827
103.570   1079.000   1109.152    -30.152    488.596   1106.194    491.634    488.596    488.596
103.670   1074.000   1071.741      2.259    488.366   1068.967    491.219    488.366    488.366
103.770   1052.069   1031.771     20.298    488.137   1029.197    490.788    488.137    488.137
103.870    927.000    990.027    -63.027    487.910    987.662    490.349    487.910    487.910
103.970    969.600    947.428     22.173    487.684    945.274    489.909    487.684    487.684
104.070    851.000    904.899    -53.899    487.460    902.954    489.472    487.460    487.460
104.170    864.000    863.306      0.694    487.238    861.560    489.045    487.238    487.238
104.270    824.000    823.405      0.595    487.017    821.848    488.630    487.017    487.017
104.370    757.380    785.824    -28.445    486.798    784.441    488.230    486.798    486.798
104.470    716.000    751.050    -35.050    486.580    749.825    487.849    486.580    486.580
104.570    740.000    719.423     20.577    486.364    718.338    487.486    486.364    486.364
104.670    722.025    691.135     30.890    486.150    690.174    487.143    486.150    486.150
104.770    702.945    666.247     36.698    485.937    665.393    486.819    485.937    485.937
104.870    703.000    644.701     58.299    485.726    643.937    486.512    485.726    485.726
104.970    661.000    626.344     34.656    485.517    625.656    486.222    485.517    485.517
105.070    612.263    610.978      1.285    485.310    610.352    485.950    485.310    485.310
105.170    633.962    598.322     35.640    485.105    597.745    485.692    485.105    485.105
105.270    641.000    588.084     52.916    484.902    587.544    485.448    484.902    484.902
105.370    596.591    579.976     16.615    484.700    579.464    485.216    484.700    484.700
105.470    561.108    573.727    -12.619    484.501    573.234    484.995    484.501    484.501
105.570    616.000    569.096     46.904    484.303    568.613    484.784    484.303    484.303
105.670    592.000    565.879     26.121    484.108    565.400    484.583    484.108    484.108
105.770    617.000    563.915     53.085    483.914    563.433    484.391    483.914    483.914
105.870    534.257    563.087    -28.830    483.723    562.594    484.208    483.723    483.723
105.970    603.000    563.314     39.686    483.534    562.803    484.034    483.534    483.534
106.070    551.501    564.556    -13.055    483.346    564.020    483.870    483.346    483.346
106.170    604.000    566.799     37.201    483.161    566.230    483.716    483.161    483.161
106.270    586.000    570.055     15.945    482.979    569.443    483.573    482.979    482.979
106.370    565.000    574.348     -9.348    482.798    573.685    483.441    482.798    482.798
106.470    587.000    579.711      7.289    482.620    578.987    483.320    482.620    482.620
106.570    572.000    586.172    -14.172    482.444    585.376    483.213    482.444    482.444
106.670    612.277    593.747     18.531    482.270    592.869    483.117    482.270    482.270
106.770    614.000    602.428     11.572    482.099    601.459    483.034    482.099    482.099
106.870    655.000    612.177     42.823    481.930    611.106    482.964    481.930    481.930
106.970    666.000    622.914     43.086    481.763    621.733    482.904    481.763    481.763
107.070    652.000    634.513     17.487    481.599    633.214    482.854    481.599    481.599
107.170    675.174    646.798     28.375    481.438    645.377    482.811    481.438    481.438
107.270    664.000    659.542      4.458    481.279    657.995    482.774    481.279    481.279
107.370    728.686    672.467     56.220    481.122    670.796    482.738    481.122    481.122
107.470    709.401    685.248     24.153    480.968    683.458    482.701    480.968    480.968
107.570    672.880    697.524    -24.643    480.817    695.624    482.658    480.817    480.817
107.670    664.675    708.908    -44.233    480.668    706.912    482.605    480.668    480.668
107.770    728.000    719.019      8.981    480.522    716.945    482.538    480.522    480.522
107.870    769.735    727.515     42.220    480.379    725.384    482.452    480.379    480.379
107.970    719.000    734.137    -15.137    480.239    731.975    482.345    480.239    480.239
108.070    788.000    738.756     49.244    480.101    736.590    482.214    480.101    480.101
108.170    739.000    741.398     -2.398    479.966    739.255    482.060    479.966    479.966
108.270    695.000    742.247    -47.247    479.834    740.152    481.884    479.834    479.834
108.370    739.000    741.616     -2.616    479.705    739.591    481.689    479.705    479.705
108.470    741.000    739.898      1.102    479.579    737.962    481.478    479.579    479.579
108.570    757.732    737.513     20.219    479.456    735.681    481.256    479.456    479.456
108.670    721.000    734.865    -13.865    479.336    733.144    481.028    479.336    479.336
108.770    698.000    732.299    -34.299    479.219    730.696    480.797    479.219    479.219
108.870    746.000    730.089     15.911    479.105    728.605    480.568    479.105    479.105
108.970    687.000    728.417    -41.417    478.994    727.050    480.344    478.994    478.994
109.070    772.179    727.370     44.809    478.886    726.117    480.127    478.886    478.886
109.170    759.556    726.941     32.615    478.782    725.794    479.919    478.782    478.782
109.270    716.000    727.023    -11.023    478.681    725.975    479.722    478.681    478.681
109.370    682.000    727.426    -45.426    478.583    726.468    479.537    478.583    478.583
109.470    745.000    727.880     17.120    478.488    727.003    479.364    478.488    478.488
109.570    737.000    728.065      8.935    478.397    727.261    479.202    478.397    478.397
109.670    721.000    727.634     -6.634    478.309    726.895    479.052    478.309    478.309
109.770    746.000    726.256     19.744    478.224    725.574    478.913    478.224    478.224
109.870    669.000    723.653    -54.653    478.143    723.021    478.783    478.143    478.143
109.970    769.767    719.634     50.133    478.065    719.051    478.659    478.065    478.065
110.070    718.629    714.144      4.485    477.991    713.601    478.545    477.991    477.991
110.170    668.000    707.228    -39.228    477.921    706.720    478.441    477.921    477.921
110.270    647.441    699.034    -51.592    477.854    698.557    478.343    477.854    477.854
110.370    695.305    689.787      5.517    477.791    689.339    478.251    477.791    477.791
110.470    670.000    679.755     -9.755    477.731    679.332    478.166    477.731    477.731
110.570    655.000    669.219    -14.219    477.675    668.818    478.087    477.675    477.675
110.670    668.000    658.456      9.544    477.623    658.075    478.014    477.623    477.623
110.770    593.120    647.719    -54.599    477.575    647.357    477.946    477.575    477.575
110.870    593.000    637.231    -44.231    477.530    636.885    477.884    477.530    477.530
110.970    580.000    627.208    -47.208    477.490    626.876    477.827    477.490    477.490
111.070    599.000    617.807    -18.807    477.453    617.487    477.776    477.453    477.453
111.170    636.000    609.155     26.845    477.421    608.846    477.731    477.421    477.421
111.270    597.000    601.348     -4.348    477.392    601.047    477.691    477.392    477.392
111.370    565.207    594.447    -29.239    477.367    594.154    477.657    477.367    477.367
111.470    614.000    588.484     25.516    477.347    588.197    477.629    477.347    477.347
111.570    596.000    583.463     12.537    477.330    583.181    477.606    477.330    477.330
111.670    604.000    579.363     24.637    477.318    579.084    477.589    477.318    477.318
111.770    576.000    576.146     -0.146    477.310    575.869    477.577    477.310    477.310
111.870    605.000    573.757     31.243    477.307    573.481    477.571    477.307    477.307
111.970    628.000    572.132     55.868    477.307    571.856    477.570    477.307    477.307
112.070    587.144    571.200     15.944    477.312    570.924    477.574    477.312    477.312
112.170    560.000    570.889    -10.889    477.321    570.611    477.583    477.321    477.321
112.270    569.000    571.127     -2.127    477.335    570.847    477.597    477.335    477.335
112.370    625.000    571.846     53.154    477.353    571.564    477.617    477.353    477.353
112.470    537.000    572.985    -35.985    477.376    572.701    477.641    477.376    477.376
112.570    570.466    574.490     -4.024    477.403    574.204    477.670    477.403    477.403
112.670    594.000    576.320     17.680    477.435    576.032    477.703    477.435    477.435
112.770    587.000    578.444      8.556    477.471    578.152    477.742    477.471    477.471
112.870    585.000    580.844      4.156    477.513    580.549    477.785    477.513    477.513
112.970    571.000    583.516    -12.516    477.559    583.219    477.833    477.559    477.559
113.070    613.172    586.472     26.700    477.609    586.171    477.887    477.609    477.609
113.170    608.000    589.737     18.263    477.665    589.432    477.946    477.665    477.665
113.270    584.000    593.352     -9.352    477.725    593.043    478.010    477.725    477.725
113.370    571.000    597.377    -26.377    477.790    597.062    478.080    477.790    477.790
113.470    559.000    601.889    -42.889    477.860    601.567    478.157    477.860    477.860
113.570    603.000    606.990     -3.990    477.936    606.659    478.239    477.936    477.936
113.670    566.600    612.812    -46.212    478.016    612.471    478.329    478.016    478.016
113.770    570.000    619.527    -49.527    478.101    619.172    478.426    478.101    478.101
113.870    581.000    627.351    -46.351    478.192    626.980    478.531    478.192    478.192
113.970    628.000    636.560     -8.560    478.287    636.169    478.645    478.287    478.287
114.070    674.000    647.504     26.496    478.388    647.089    478.767    478.388    478.388
114.170    629.458    660.621    -31.164    478.494    660.176    478.899    478.494    478.494
114.270    701.431    676.454     24.977    478.606    675.973    479.040    478.606    478.606
114.370    651.000    695.669    -44.669    478.723    695.147    479.193    478.723    478.723
114.470    735.625    719.076     16.549    478.845    718.505    479.356    478.845    478.845
114.570    732.000    747.644    -15.644    478.972    747.015    479.532    478.972    478.972
114.670    754.000    782.515    -28.515    479.106    781.820    479.719    479.106    479.106
114.770    821.696    825.018     -3.322    479.244    824.247    479.920    479.244    479.244
114.870    866.622    876.668    -10.046    479.389    875.812    480.133    479.389    479.389
114.970    905.000    939.167    -34.167    479.539    938.214    480.359    479.539    479.539
115.070    986.584   1014.381    -27.798    479.694   1013.321    480.599    479.694    479.694
115.170   1115.000   1104.317     10.683    479.856   1103.137    480.852    479.856    479.856
115.270   1224.000   1211.067     12.933    480.023   1209.758    481.118    480.023    480.023
115.370   1283.000   1336.754    -53.754    480.196   1335.304    481.397    480.196    480.196
115.470   1543.000   1483.448     59.552    480.375   1481.847    481.688    480.375    480.375
115.570   1642.000   1653.067    -11.067    480.560   1651.306    481.991    480.560    480.560
115.670   1906.000   1847.267     58.733    480.751   1845.339    482.303    480.751    480.751
115.770   2088.554   2067.319     21.234    480.948   2065.218    482.626    480.948    480.948
115.870   2466.000   2313.979    152.021    481.151   2311.701    482.956    481.151    481.151
115.970   2554.851   2587.357    -32.505    481.360   2584.901    483.293    481.360    481.360
116.070   2921.000   2886.792     34.208    481.575   2884.159    483.636    481.575    481.575
116.170   3258.439   3210.721     47.718    481.797   3207.917    483.982    481.797    481.797
116.270   3683.000   3556.694    126.306    482.024   3553.727    484.330    482.024    482.024
116.370   3803.546   3921.206   -117.659    482.259   3918.084    484.680    482.259    482.259
116.470   4406.000   4299.656    106.344    482.499   4296.394    485.030    482.499    482.499
116.570   4652.000   4686.413    -34.413    482.746   4683.026    485.381    482.746    482.746
116.670   5016.878   5074.826    -57.948    483.000   5071.330    485.732    483.000    483.000
116.770   5444.000   5457.299    -13.299    483.260   5453.713    486.084    483.260    483.260
116.870   5865.000   5825.408     39.592    483.526   5821.750    486.439    483.526    483.526
116.970   6004.759   6170.080   -165.322    483.800   6166.368    486.796    483.800    483.800
117.070   6313.314   6481.861   -168.547    484.080   6478.114    487.158    484.080    484.080
117.170   6936.000   6751.293    184.707    484.366   6747.528    487.524    484.366    484.366
117.270   7026.175   6969.424     56.751    484.660   6965.658    487.894    484.660    484.660
117.370   7182.171   7128.438     53.733    484.960   7124.684    488.269    484.960    484.960
117.470   7096.677   7222.325   -125.648    485.268   7218.597    488.648    485.268    485.268
117.570   7326.873   7247.500     79.372    485.582   7243.807    489.030    485.582    485.582
117.670   7212.000   7203.200      8.800    485.903   7199.546    489.413    485.903    485.903
117.770   7050.592   7091.570    -40.978    486.232   7087.958    489.797    486.232    486.232
117.870   6785.000   6917.409   -132.409    486.567   6913.841    490.179    486.567    486.567
117.970   6682.613   6687.643     -5.030    486.910   6684.121    490.556    486.910    486.910
118.070   6373.000   6410.663    -37.663    487.260   6407.186    490.928    487.260    487.260
118.170   6145.919   6095.655     50.264    487.617   6092.226    491.291    487.617    487.617
118.270   5679.209   5752.026    -72.817    487.982   5748.650    491.644    487.982    487.982
118.370   5301.000   5388.961    -87.961    488.353   5385.643    491.985    488.353    488.353
118.470   4897.555   5015.104   -117.549    488.733   5011.853    492.313    488.733    488.733
118.570   4542.536   4638.338    -95.802    489.120   4635.162    492.629    489.120    489.120
118.670   4247.000   4265.644    -18.644    489.514   4262.551    492.934    489.514    489.514
118.770   3799.433   3903.008   -103.574    489.916   3900.006    493.230    489.916    489.916
118.870   3582.000   3555.373     26.627    490.326   3552.472    493.519    490.326    490.326
118.970   3214.000   3226.638    -12.638    490.744   3223.842    493.805    490.744    490.744
119.070   2882.000   2919.678    -37.678    491.169   2916.991    494.091    491.169    491.169
119.170   2589.000   2636.408    -47.408    491.602   2633.833    494.380    491.602    491.602
119.270   2364.000   2377.868    -13.868    492.043   2375.405    494.676    492.043    492.043
119.370   2190.000   2144.332     45.668    492.492   2141.980    494.981    492.492    492.492
119.470   1933.000   1935.424     -2.424    492.949   1933.179    495.300    492.949    492.949
119.570   1720.000   1750.239    -30.239    493.414   1748.097    495.633    493.414    493.414
119.670   1568.000   1587.469    -19.469    493.887   1585.421    495.985    493.887    493.887
119.770   1427.000   1445.508    -18.508    494.368   1443.546    496.357    494.368    494.368
119.870   1357.000   1322.567     34.433    494.858   1320.680    496.750    494.858    494.858
119.970   1272.000   1216.758     55.242    495.356   1214.935    497.166    495.356    495.356
120.070   1191.000   1126.182     64.818    495.862   1124.409    497.607    495.862    495.862
120.170   1078.199   1048.988     29.211    496.377   1047.251    498.072    496.377    496.377
120.270    970.078    983.425    -13.347    496.900    981.709    498.564    496.900    496.900
120.370    962.780    927.877     34.904    497.432    926.167    499.082    497.432    497.432
120.470    894.000    880.886     13.114    497.972    879.165    499.627    497.972    497.972
120.570    829.132    841.163    -12.031    498.521    839.414    500.198    498.521    498.521
120.670    840.000    807.585     32.415    499.079    805.790    500.798    499.079    499.079
120.770    740.000    779.191    -39.191    499.646    777.333    501.424    499.646    499.646
120.870    798.000    755.170     42.830    500.221    753.229    502.079    500.221    500.221
120.970    712.593    734.845    -22.251    500.805    732.803    502.762    500.805    500.805
121.070    732.000    717.658     14.342    501.398    715.494    503.473    501.398    501.398
121.170    728.000    703.151     24.849    502.001    700.846    504.214    502.001    502.001
121.270    679.000    690.954    -11.954    502.612    688.485    504.985    502.612    502.612
121.370    671.000    680.763     -9.763    503.232    678.108    505.786    503.232    503.232
121.470    687.906    672.336     15.570    503.862    669.471    506.619    503.862    503.862
121.570    617.577    665.473    -47.896    504.501    662.375    507.484    504.501    504.501
121.670    700.700    660.012     40.688    505.149    656.655    508.383    505.149    505.149
121.770    644.000    655.819    -11.819    505.807    652.176    509.315    505.807    505.807
121.870    646.000    652.780     -6.780    506.474    648.823    510.284    506.474    506.474
121.970    650.000    650.796     -0.796    507.150    646.496    511.288    507.150    507.150
122.070    635.000    649.779    -14.779    507.837    645.106    512.330    507.837    507.837
122.170    687.403    649.649     37.754    508.532    644.571    513.409    508.532    508.532
122.270    622.000    650.329    -28.329    509.238    644.814    514.526    509.238    509.238
122.370    664.000    651.741     12.259    509.953    645.759    515.681    509.953    509.953
122.470    636.000    653.809    -17.809    510.679    647.328    516.871    510.679    510.679
122.570    644.586    656.451    -11.865    511.414    649.443    518.095    511.414    511.414
122.670    631.000    659.585    -28.585    512.159    652.022    519.351    512.159    512.159
122.770    638.756    663.120    -24.364    512.914    654.980    520.634    512.914    512.914
122.870    679.000    666.961     12.039    513.679    658.224    521.940    513.679    513.679
122.970    699.000    671.006     27.994    514.454    661.659    523.262    514.454    514.454
123.070    718.625    675.148     43.477    515.240    665.184    524.594    515.240    515.240
123.170    653.251    679.275    -26.024    516.035    668.694    525.928    516.035    516.035
123.270    678.000    683.268     -5.268    516.842    672.080    527.255    516.842    516.842
123.370    670.000    687.009    -17.009    517.658    675.232    528.567    517.658    517.658
123.470    709.000    690.380     18.620    518.485    678.041    529.854    518.485    518.485
123.570    640.720    693.265    -52.546    519.323    680.404    531.106    519.323    519.323
123.670    715.000    695.560     19.440    520.171    682.223    532.314    520.171    520.171
123.770    722.758    697.142     25.616    521.030    683.387    533.469    521.030    521.030
123.870    737.406    698.015     39.391    521.900    683.905    534.567    521.900    521.900
123.970    702.000    698.110      3.890    522.780    683.714    535.601    522.780    522.780
124.070    699.984    697.405      2.580    523.672    682.797    536.569    523.672    523.672
124.170    705.000    695.910      9.090    524.574    681.168    537.469    524.574    524.574
124.270    719.000    693.661     25.339    525.488    678.862    538.303    525.488    525.488
124.370    746.000    690.712     55.288    526.412    675.933    539.074    526.412    526.412
124.470    692.000    687.132      4.868    527.348    672.448    539.785    527.348    527.348
124.570    668.064    683.000    -14.935    528.295    668.484    540.440    528.295    528.295
124.670    666.000    678.398    -12.398    529.253    664.121    541.046    529.253    529.253
124.770    670.552    673.416     -2.864    530.222    659.442    541.610    530.222    530.222
124.870    660.000    668.140     -8.140    531.203    654.531    542.137    531.203    531.203
124.970    661.000    662.656     -1.656    532.196    649.469    542.636    532.196    532.196
