neutron_powder_diffraction_0153
R_wp: 3.862
Temperature (K): 1074.000
Counts: 83550.00
Wavelength (Ã…): 2.52098
COMMENTS
Test file for demonstrating the .xyy file format in Reel1.0
END OF HEADER
   tth       Y_obs     Y_calc      Y_res    Background    Phase_1_Nuc    Phase_1_Mag    Phase_2_Nuc    Phase_2_Mag
  9.970    578.000    570.153      7.847    569.520    570.099    569.520    569.574    569.520
 10.070    563.757    570.326     -6.569    569.639    570.270    569.639    569.695    569.639
 10.170    566.000    570.498     -4.498    569.753    570.442    569.753    569.808    569.753
 10.270    609.000    570.675     38.325    569.860    570.619    569.860    569.915    569.860
 10.370    617.000    570.872     46.128    569.961    570.815    569.961    570.017    569.961
 10.470    568.000    571.063     -3.063    570.055    571.006    570.055    570.112    570.055
 10.570    577.352    571.262      6.090    570.144    571.205    570.144    570.201    570.144
 10.670    593.000    571.476     21.524    570.227    571.419    570.227    570.284    570.227
 10.770    587.000    571.712     15.288    570.304    571.654    570.304    570.361    570.304
 10.870    570.000    571.977     -1.977    570.376    571.919    570.376    570.433    570.376
 10.970    639.000    572.283     66.717    570.441    572.224    570.441    570.498    570.441
 11.070    575.243    572.645      2.598    570.501    572.586    570.501    570.558    570.501
 11.170    604.000    573.088     30.912    570.555    573.029    570.555    570.613    570.555
 11.270    590.319    573.648     16.672    570.603    573.588    570.603    570.661    570.603
 11.370    612.962    574.385     38.576    570.646    574.325    570.646    570.705    570.646
 11.470    598.000    575.435     22.565    570.683    575.373    570.683    570.742    570.683
 11.570    563.442    577.175    -13.734    570.715    577.113    570.715    570.774    570.715
 11.670    586.000    580.735      5.265    570.742    580.671    570.742    570.801    570.742
 11.770    577.426    588.872    -11.446    570.763    588.802    570.763    570.823    570.763
 11.870    597.105    606.250     -9.144    570.779    606.170    570.779    570.839    570.779
 11.970    611.421    636.745    -25.324    570.790    636.649    570.790    570.850    570.790
 12.070    662.000    676.607    -14.607    570.795    676.488    570.795    570.856    570.795
 12.170    702.030    708.203     -6.174    570.795    708.067    570.795    570.856    570.795
 12.270    667.000    709.233    -42.233    570.791    709.096    570.791    570.852    570.791
 12.370    690.000    678.754     11.246    570.781    678.633    570.781    570.842    570.781
 12.470    657.605    638.679     18.926    570.766    638.580    570.766    570.828    570.766
 12.570    603.000    607.447     -4.447    570.747    607.364    570.747    570.808    570.747
 12.670    632.477    589.438     43.039    570.722    589.366    570.722    570.784    570.722
 12.770    574.000    580.957     -6.957    570.693    580.889    570.693    570.755    570.693
 12.870    573.000    577.251     -4.251    570.658    577.185    570.658    570.721    570.658
 12.970    534.000    575.455    -41.455    570.620    575.389    570.620    570.683    570.620
 13.070    550.000    574.380    -24.380    570.576    574.315    570.576    570.639    570.576
 13.170    546.000    573.628    -27.628    570.528    573.563    570.528    570.591    570.528
 13.270    564.000    573.059     -9.059    570.475    572.994    570.475    570.539    570.475
 13.370    581.000    572.610      8.390    570.418    572.545    570.418    570.482    570.418
 13.470    530.000    572.244    -42.244    570.356    572.179    570.356    570.421    570.356
 13.570    574.000    571.938      2.062    570.290    571.872    570.290    570.355    570.290
 13.670    541.000    571.678    -30.678    570.219    571.607    570.219    570.289    570.219
 13.770    561.000    571.446    -10.446    570.144    571.375    570.144    570.216    570.144
 13.870    543.000    571.237    -28.237    570.065    571.165    570.065    570.137    570.065
 13.970    574.000    571.045      2.955    569.982    570.973    569.982    570.054    569.982
 14.070    561.000    570.867     -9.867    569.894    570.794    569.894    569.967    569.894
 14.170    594.471    570.697     23.774    569.802    570.624    569.802    569.875    569.802
 14.270    578.000    570.535      7.465    569.707    570.462    569.707    569.780    569.707
 14.370    576.000    570.378      5.622    569.607    570.304    569.607    569.680    569.607
 14.470    558.000    570.225    -12.225    569.503    570.151    569.503    569.577    569.503
 14.570    542.000    570.074    -28.074    569.395    569.999    569.395    569.469    569.395
 14.670    552.000    569.924    -17.924    569.283    569.849    569.283    569.358    569.283
 14.770    561.000    569.776     -8.776    569.168    569.700    569.168    569.243    569.168
 14.870    577.645    569.627      8.018    569.048    569.551    569.048    569.124    569.048
 14.970    539.000    569.478    -30.478    568.925    569.402    568.925    569.001    568.925
 15.070    550.000    569.332    -19.332    568.798    569.256    568.798    568.875    568.798
 15.170    524.031    569.184    -45.153    568.668    569.108    568.668    568.744    568.668
 15.270    586.000    569.032     16.968    568.534    568.955    568.534    568.611    568.534
 15.370    582.000    568.878     13.122    568.396    568.801    568.396    568.473    568.396
 15.470    591.000    568.722     22.278    568.254    568.644    568.254    568.332    568.254
 15.570    546.000    568.565    -22.565    568.110    568.486    568.110    568.188    568.110
 15.670    598.000    568.405     29.595    567.961    568.326    567.961    568.040    567.961
 15.770    598.711    568.242     30.468    567.810    568.163    567.810    567.889    567.810
 15.870    545.123    568.078    -22.955    567.655    567.998    567.655    567.734    567.655
 15.970    536.000    567.911    -31.911    567.496    567.831    567.496    567.576    567.496
 16.070    520.000    567.742    -47.742    567.335    567.661    567.335    567.415    567.335
 16.170    603.000    567.571     35.429    567.170    567.489    567.170    567.251    567.170
 16.270    560.000    567.397     -7.397    567.002    567.315    567.002    567.083    567.002
 16.370    583.000    567.220     15.780    566.830    567.138    566.830    566.912    566.830
 16.470    530.319    567.041    -36.722    566.656    566.958    566.656    566.738    566.656
 16.570    538.479    566.859    -28.381    566.479    566.776    566.479    566.562    566.479
 16.670    553.000    566.675    -13.675    566.298    566.592    566.298    566.382    566.298
 16.770    558.000    566.489     -8.489    566.115    566.405    566.115    566.199    566.115
 16.870    582.943    566.300     16.643    565.928    566.215    565.928    566.013    565.928
 16.970    608.207    566.109     42.099    565.739    566.023    565.739    565.824    565.739
 17.070    592.026    565.915     26.112    565.547    565.829    565.547    565.632    565.547
 17.170    566.000    565.718      0.282    565.352    565.632    565.352    565.438    565.352
 17.270    586.000    565.520     20.480    565.154    565.433    565.154    565.241    565.154
 17.370    526.000    565.319    -39.319    564.954    565.231    564.954    565.041    564.954
 17.470    572.000    565.115      6.885    564.750    565.027    564.750    564.838    564.750
 17.570    565.000    564.910      0.090    564.545    564.821    564.545    564.633    564.545
 17.670    518.000    564.704    -46.704    564.336    564.615    564.336    564.425    564.336
 17.770    589.000    564.494     24.506    564.125    564.404    564.125    564.215    564.125
 17.870    584.665    564.281     20.384    563.911    564.191    563.911    564.002    563.911
 17.970    544.000    564.066    -20.066    563.695    563.975    563.695    563.786    563.695
 18.070    595.361    563.849     31.512    563.477    563.757    563.477    563.568    563.477
 18.170    555.000    563.630     -8.630    563.256    563.538    563.256    563.348    563.256
 18.270    534.000    563.408    -29.408    563.032    563.316    563.032    563.125    563.032
 18.370    584.000    563.185     20.815    562.807    563.092    562.807    562.900    562.807
 18.470    593.000    562.960     30.040    562.579    562.866    562.579    562.673    562.579
 18.570    560.000    562.733     -2.733    562.348    562.638    562.348    562.443    562.348
 18.670    539.000    562.503    -23.503    562.116    562.408    562.116    562.211    562.116
 18.770    529.232    562.272    -33.040    561.881    562.176    561.881    561.978    561.881
 18.870    549.569    562.042    -12.473    561.644    561.943    561.644    561.743    561.644
 18.970    545.000    561.808    -16.808    561.405    561.708    561.405    561.506    561.405
 19.070    532.996    561.571    -28.575    561.164    561.470    561.164    561.265    561.164
 19.170    604.722    561.333     43.389    560.921    561.231    560.921    561.023    560.921
 19.270    549.394    561.092    -11.698    560.676    560.989    560.676    560.779    560.676
 19.370    550.000    560.850    -10.850    560.428    560.746    560.428    560.532    560.428
 19.470    605.866    560.606     45.260    560.179    560.502    560.179    560.284    560.179
 19.570    533.451    560.361    -26.910    559.928    560.256    559.928    560.034    559.928
 19.670    560.199    560.114      0.085    559.675    560.008    559.675    559.782    559.675
 19.770    535.062    559.866    -24.804    559.421    559.759    559.421    559.528    559.421
 19.870    521.440    559.616    -38.176    559.164    559.508    559.164    559.272    559.164
 19.970    584.536    559.366     25.170    558.906    559.257    558.906    559.015    558.906
 20.070    545.228    559.127    -13.899    558.646    559.017    558.646    558.756    558.646
 20.170    563.513    558.883      4.630    558.384    558.772    558.384    558.495    558.384
 20.270    570.000    558.629     11.371    558.120    558.517    558.120    558.232    558.120
 20.370    556.000    558.373     -2.373    557.855    558.260    557.855    557.968    557.855
 20.470    547.000    558.116    -11.116    557.589    558.002    557.589    557.703    557.589
 20.570    560.402    557.858      2.544    557.321    557.743    557.321    557.436    557.321
 20.670    571.000    557.599     13.401    557.051    557.483    557.051    557.167    557.051
 20.770    527.000    557.339    -30.339    556.780    557.222    556.780    556.897    556.780
 20.870    600.442    557.079     43.363    556.507    556.960    556.507    556.625    556.507
 20.970    559.000    556.817      2.183    556.233    556.698    556.233    556.352    556.233
 21.070    551.692    556.564     -4.872    555.957    556.443    555.957    556.078    555.957
 21.170    593.294    556.386     36.908    555.680    556.264    555.680    555.802    555.680
 21.270    608.000    556.145     51.855    555.402    556.022    555.402    555.525    555.402
 21.370    580.000    555.884     24.116    555.122    555.759    555.122    555.247    555.122
 21.470    601.362    555.621     45.741    554.841    555.495    554.841    554.968    554.841
 21.570    565.000    555.358      9.642    554.559    555.231    554.559    554.687    554.559
 21.670    565.276    555.096     10.180    554.276    554.967    554.276    554.405    554.276
 21.770    588.000    554.834     33.166    553.992    554.703    553.992    554.122    553.992
 21.870    547.000    554.572     -7.572    553.706    554.440    553.706    553.838    553.706
 21.970    527.000    554.313    -27.313    553.419    554.180    553.419    553.553    553.419
 22.070    521.000    554.074    -33.074    553.131    553.939    553.131    553.267    553.131
 22.170    513.000    553.844    -40.844    552.843    553.707    552.843    552.980    552.843
 22.270    559.000    553.591      5.409    552.553    553.452    552.553    552.691    552.553
 22.370    539.223    553.339    -14.116    552.262    553.199    552.262    552.402    552.262
 22.470    570.000    553.093     16.907    551.970    552.950    551.970    552.112    551.970
 22.570    533.000    552.846    -19.846    551.677    552.702    551.677    551.821    551.677
 22.670    542.000    552.603    -10.603    551.383    552.457    551.383    551.530    551.383
 22.770    574.000    552.371     21.629    551.089    552.222    551.089    551.237    551.089
 22.870    522.490    552.185    -29.694    550.793    552.034    550.793    550.944    550.793
 22.970    559.000    551.983      7.017    550.497    551.831    550.497    550.650    550.497
 23.070    561.000    551.773      9.227    550.200    551.618    550.200    550.355    550.200
 23.170    568.000    551.574     16.426    549.902    551.417    549.902    550.060    549.902
 23.270    516.000    551.391    -35.391    549.604    551.232    549.604    549.764    549.604
 23.370    529.000    551.229    -22.229    549.304    551.067    549.304    549.467    549.304
 23.470    583.000    551.094     31.906    549.004    550.930    549.004    549.170    549.004
 23.570    593.692    550.995     42.697    548.704    550.828    548.704    548.872    548.704
 23.670    534.000    550.944    -16.944    548.402    550.773    548.402    548.574    548.402
 23.770    572.000    550.959     21.041    548.101    550.786    548.101    548.275    548.101
 23.870    566.000    551.068     14.932    547.798    550.892    547.798    547.976    547.798
 23.970    557.031    551.326      5.705    547.495    551.147    547.495    547.676    547.495
 24.070    552.000    551.857      0.143    547.192    551.675    547.192    547.376    547.192
 24.170    533.262    553.024    -19.762    546.888    552.840    546.888    547.076    546.888
 24.270    576.584    555.816     20.768    546.583    555.630    546.583    546.775    546.583
 24.370    558.000    562.320     -4.320    546.278    562.135    546.278    546.475    546.278
 24.470    564.000    575.448    -11.448    545.973    575.268    545.973    546.174    545.973
 24.570    569.000    596.644    -27.644    545.667    596.475    545.667    545.872    545.667
 24.670    641.000    621.710     19.290    545.361    621.555    545.361    545.571    545.361
 24.770    657.000    638.285     18.715    545.055    638.136    545.055    545.270    545.055
 24.870    622.797    634.221    -11.425    544.748    634.065    544.748    544.969    544.748
 24.970    581.571    612.811    -31.240    544.441    612.634    544.441    544.667    544.441
 25.070    589.201    587.721      1.481    544.134    587.520    544.134    544.366    544.134
 25.170    589.000    568.619     20.381    543.827    568.397    543.827    544.065    543.827
 25.270    558.000    557.409      0.591    543.519    557.172    543.519    543.764    543.519
 25.370    549.372    551.843     -2.470    543.211    551.595    543.211    543.463    543.211
 25.470    546.000    549.206     -3.206    542.903    548.949    542.903    543.163    542.903
 25.570    534.000    547.795    -13.795    542.595    547.529    542.595    542.863    542.595
 25.670    542.000    546.873     -4.873    542.286    546.598    542.286    542.564    542.286
 25.770    535.000    546.185    -11.185    541.978    545.899    541.978    542.265    541.978
 25.870    611.000    545.635     65.365    541.670    545.339    541.670    541.966    541.670
 25.970    538.000    545.180     -7.180    541.361    544.873    541.361    541.669    541.361
 26.070    552.000    544.798      7.202    541.053    544.479    541.053    541.372    541.053
 26.170    541.000    544.474     -3.474    540.744    544.142    540.744    541.076    540.744
 26.270    503.077    544.202    -41.125    540.435    543.856    540.435    540.782    540.435
 26.370    529.000    543.979    -14.979    540.127    543.618    540.127    540.488    540.127
 26.470    541.000    543.802     -2.802    539.819    543.425    539.819    540.196    539.819
 26.570    552.837    543.675      9.162    539.510    543.279    539.510    539.906    539.510
 26.670    548.000    543.604      4.396    539.202    543.189    539.202    539.617    539.202
 26.770    508.242    543.626    -35.384    538.894    543.189    538.894    539.331    538.894
 26.870    530.000    543.727    -13.727    538.586    543.265    538.586    539.047    538.586
 26.970    507.000    543.887    -36.887    538.278    543.399    538.278    538.766    538.278
 27.070    550.000    544.163      5.837    537.971    543.646    537.971    538.488    537.971
 27.170    554.000    544.585      9.415    537.663    544.034    537.663    538.213    537.663
 27.270    550.202    545.210      4.991    537.356    544.623    537.356    537.943    537.356
 27.370    546.080    546.123     -0.043    537.049    545.493    537.049    537.678    537.049
 27.470    568.000    547.473     20.527    536.743    546.796    536.743    537.418    536.743
 27.570    560.000    549.663     10.337    536.436    548.932    536.436    537.165    536.436
 27.670    582.000    554.088     27.912    536.130    553.295    536.130    536.920    536.130
 27.770    591.000    565.418     25.582    535.825    564.551    535.825    536.685    535.825
 27.870    612.000    595.504     16.496    535.519    594.544    535.519    536.461    535.519
 27.970    676.000    662.583     13.417    535.215    661.507    535.215    536.251    535.215
 28.070    767.691    774.477     -6.786    534.910    773.256    534.910    536.059    534.910
 28.170    858.000    899.311    -41.311    534.606    897.929    534.606    535.888    534.606
 28.270    973.071    960.732     12.339    534.302    959.192    534.302    535.745    534.302
 28.370    869.168    908.557    -39.388    533.999    906.858    533.999    535.637    533.999
 28.470    808.000    796.164     11.836    533.696    794.258    533.696    535.577    533.696
 28.570    765.000    709.166     55.834    533.394    706.963    533.394    535.586    533.394
 28.670    689.000    692.069     -3.069    533.092    689.452    533.092    535.694    533.092
 28.770    738.975    740.130     -1.155    532.791    736.946    532.791    535.956    532.791
 28.870    781.000    811.995    -30.995    532.491    808.025    532.491    536.448    532.491
 28.970    855.813    845.907      9.907    532.191    840.817    532.191    537.283    532.191
 29.070    779.000    805.414    -26.414    531.891    798.725    531.891    538.593    531.891
 29.170    696.000    722.421    -26.421    531.592    713.509    531.592    540.517    531.592
 29.270    634.000    646.300    -12.300    531.294    634.456    531.294    543.146    531.294
 29.370    641.154    599.219     41.936    530.996    583.783    530.996    546.435    530.996
 29.470    566.000    578.030    -12.030    530.699    558.702    530.699    550.028    530.699
 29.570    524.311    570.682    -46.371    530.403    548.034    530.403    553.050    530.403
 29.670    593.000    567.514     25.486    530.107    543.376    530.107    554.245    530.107
 29.770    579.000    563.946     15.054    529.812    540.877    529.812    552.880    529.812
 29.870    520.913    559.231    -38.318    529.518    539.241    529.518    549.508    529.518
 29.970    626.000    554.219     71.781    529.225    538.081    529.225    545.361    529.225
 30.070    509.497    549.741    -40.244    528.932    537.272    528.932    541.399    528.932
 30.170    568.000    546.205     21.795    528.640    536.788    528.640    538.056    528.640
 30.270    539.331    543.804     -4.473    528.349    536.730    528.349    535.421    528.349
 30.370    520.240    542.890    -22.650    528.059    537.525    528.059    533.420    528.059
 30.470    562.000    544.495     17.505    527.769    540.337    527.769    531.921    527.769
 30.570    590.551    550.725     39.826    527.480    547.407    527.480    530.786    527.480
 30.670    595.328    564.005     31.323    527.193    561.274    527.193    529.901    527.193
 30.770    602.000    584.300     17.700    526.906    581.986    526.906    529.181    526.906
 30.870    638.000    605.504     32.496    526.619    603.501    526.619    528.570    526.619
 30.970    619.000    615.201      3.799    526.334    613.446    526.334    528.033    526.334
 31.070    641.057    605.197     35.860    526.050    603.654    526.050    527.547    526.050
 31.170    600.000    583.091     16.909    525.766    581.729    525.766    527.099    525.766
 31.270    590.953    561.297     29.656    525.484    560.085    525.484    526.680    525.484
 31.370    574.423    546.185     28.237    525.202    545.096    525.202    526.285    525.202
 31.470    520.000    537.934    -17.934    524.922    536.944    524.922    525.908    524.922
 31.570    570.563    534.047     36.516    524.642    533.141    524.642    525.546    524.642
 31.670    602.000    532.229     69.771    524.364    531.395    524.364    525.197    524.364
 31.770    540.684    531.245      9.439    524.086    530.472    524.086    524.858    524.086
 31.870    513.000    530.603    -17.603    523.810    529.883    523.810    524.528    523.810
 31.970    518.737    530.141    -11.404    523.534    529.467    523.534    524.206    523.534
 32.070    517.000    529.808    -12.808    523.260    529.175    523.260    523.891    523.260
 32.170    517.000    529.584    -12.584    522.986    528.987    522.986    523.582    522.986
 32.270    522.000    529.460     -7.460    522.714    528.896    522.714    523.277    522.714
 32.370    565.088    529.439     35.649    522.443    528.903    522.443    522.978    522.443
 32.470    529.000    529.527     -0.527    522.172    529.016    522.172    522.682    522.172
 32.570    485.947    529.739    -43.792    521.903    529.251    521.903    522.390    521.903
 32.670    580.000    530.100     49.900    521.635    529.633    521.635    522.102    521.635
 32.770    515.865    530.645    -14.780    521.369    530.196    521.369    521.817    521.369
 32.870    542.024    531.426     10.598    521.103    530.993    521.103    521.534    521.103
 32.970    562.000    532.519     29.481    520.838    532.101    520.838    521.255    520.838
 33.070    564.000    534.042     29.958    520.575    533.638    520.575    520.978    520.575
 33.170    570.836    536.209     34.626    520.313    535.817    520.313    520.703    520.313
 33.270    533.000    539.512     -6.512    520.052    539.131    520.052    520.431    520.052
 33.370    574.000    545.324     28.676    519.792    544.952    519.792    520.161    519.792
 33.470    597.000    557.393     39.607    519.533    557.028    519.533    519.893    519.533
 33.570    627.000    584.160     42.840    519.276    583.799    519.276    519.627    519.276
 33.670    626.000    639.467    -13.467    519.020    639.103    519.020    519.363    519.020
 33.770    728.741    736.392     -7.651    518.765    736.020    518.765    519.101    518.765
 33.870    886.205    871.678     14.527    518.512    871.295    518.512    518.841    518.512
 33.970    974.000   1008.130    -34.130    518.259   1007.744    518.259    518.583    518.259
 34.070   1129.000   1075.109     53.891    518.008   1074.738    518.008    518.326    518.008
 34.170   1020.000   1024.783     -4.783    517.758   1024.445    517.758    518.071    517.758
 34.270    937.000    894.617     42.383    517.510    894.308    517.510    517.818    517.510
 34.370    704.986    755.692    -50.707    517.263    755.398    517.263    517.567    517.263
 34.470    613.609    651.195    -37.586    517.017    650.905    517.017    517.317    517.017
 34.570    547.436    589.027    -41.590    516.772    588.736    516.772    517.069    516.772
 34.670    558.000    557.770      0.230    516.529    557.480    516.529    516.822    516.529
 34.770    542.000    543.232     -1.232    516.287    542.942    516.287    516.578    516.287
 34.870    520.997    536.068    -15.071    516.047    535.780    516.047    516.335    516.047
 34.970    546.000    531.883     14.117    515.808    531.598    515.808    516.093    515.808
 35.070    534.527    529.002      5.525    515.570    528.718    515.570    515.853    515.570
 35.170    510.000    526.822    -16.822    515.333    526.541    515.333    515.615    515.333
 35.270    534.000    525.097      8.903    515.098    524.817    515.098    515.378    515.098
 35.370    552.563    523.694     28.868    514.865    523.416    514.865    515.143    514.865
 35.470    537.000    522.528     14.472    514.632    522.251    514.632    514.909    514.632
 35.570    528.000    521.542      6.458    514.402    521.266    514.402    514.677    514.402
 35.670    510.742    520.695     -9.953    514.172    520.420    514.172    514.447    514.172
 35.770    479.173    519.957    -40.783    513.944    519.683    513.944    514.218    513.944
 35.870    476.705    519.306    -42.601    513.718    519.033    513.718    513.991    513.718
 35.970    549.000    518.726     30.274    513.493    518.454    513.493    513.765    513.493
 36.070    544.541    518.206     26.336    513.269    517.934    513.269    513.541    513.269
 36.170    551.000    517.735     33.265    513.047    517.464    513.047    513.319    513.047
 36.270    507.058    517.308    -10.250    512.826    517.036    512.826    513.098    512.826
 36.370    514.844    516.919     -2.075    512.607    516.648    512.607    512.879    512.607
 36.470    528.000    516.566     11.434    512.389    516.295    512.389    512.661    512.389
 36.570    532.000    516.248     15.752    512.173    515.976    512.173    512.445    512.173
 36.670    472.000    515.965    -43.965    511.958    515.693    511.958    512.230    511.958
 36.770    519.862    515.725      4.138    511.745    515.453    511.745    512.017    511.745
 36.870    505.000    515.546    -10.546    511.533    515.273    511.533    511.806    511.533
 36.970    510.000    515.481     -5.481    511.323    515.208    511.323    511.596    511.323
 37.070    503.000    515.656    -12.656    511.114    515.382    511.114    511.388    511.114
 37.170    539.991    516.309     23.682    510.907    516.035    510.907    511.182    510.907
 37.270    525.296    517.774      7.522    510.702    517.499    510.702    510.977    510.702
 37.370    534.000    520.321     13.679    510.497    520.045    510.497    510.774    510.497
 37.470    515.000    523.840     -8.840    510.295    523.565    510.295    510.572    510.295
 37.570    539.198    527.518     11.681    510.094    527.242    510.094    510.373    510.094
 37.670    511.000    529.820    -18.820    509.894    529.545    509.894    510.174    509.894
 37.770    554.300    529.484     24.816    509.696    529.209    509.696    509.978    509.696
 37.870    491.986    526.827    -34.841    509.500    526.553    509.500    509.783    509.500
 37.970    556.000    523.229     32.771    509.305    522.955    509.305    509.589    509.305
 38.070    545.713    519.778     25.935    509.112    519.504    509.112    509.398    509.112
 38.170    506.000    516.931    -10.931    508.920    516.653    508.920    509.208    508.920
 38.270    482.000    514.807    -32.807    508.730    514.525    508.730    509.019    508.730
 38.370    506.870    513.342     -6.472    508.542    513.056    508.542    508.833    508.542
 38.470    507.000    512.376     -5.376    508.355    512.086    508.355    508.648    508.355
 38.570    489.349    511.742    -22.393    508.170    511.449    508.170    508.465    508.170
 38.670    522.000    511.308     10.692    507.986    511.012    507.986    508.283    507.986
 38.770    488.000    510.983    -22.983    507.804    510.685    507.804    508.103    507.804
 38.870    507.000    510.716     -3.716    507.624    510.415    507.624    507.925    507.624
 38.970    503.487    510.480     -6.993    507.445    510.177    507.445    507.748    507.445
 39.070    551.761    510.265     41.496    507.268    509.959    507.268    507.573    507.268
 39.170    519.000    510.064      8.936    507.092    509.756    507.092    507.400    507.092
 39.270    500.000    509.875     -9.875    506.918    509.565    506.918    507.229    506.918
 39.370    472.817    509.697    -36.880    506.746    509.383    506.746    507.059    506.746
 39.470    505.817    509.527     -3.710    506.575    509.211    506.575    506.891    506.575
 39.570    505.000    509.366     -4.366    506.406    509.047    506.406    506.725    506.406
 39.670    474.698    509.212    -34.514    506.238    508.890    506.238    506.561    506.238
 39.770    448.000    509.067    -61.067    506.073    508.742    506.073    506.398    506.073
 39.870    504.000    508.929     -4.929    505.908    508.600    505.908    506.237    505.908
 39.970    511.707    508.798      2.909    505.746    508.467    505.746    506.078    505.746
 40.070    479.000    508.676    -29.676    505.585    508.341    505.585    505.920    505.585
 40.170    503.000    508.561     -5.561    505.426    508.223    505.426    505.765    505.426
 40.270    499.391    508.456     -9.065    505.268    508.114    505.268    505.611    505.268
 40.370    478.000    508.360    -30.360    505.112    508.014    505.112    505.459    505.112
 40.470    523.968    508.274     15.693    504.958    507.925    504.958    505.308    504.958
 40.570    531.000    508.201     22.799    504.806    507.847    504.806    505.160    504.806
 40.670    506.766    508.140     -1.375    504.655    507.783    504.655    505.013    504.655
 40.770    543.000    508.095     34.905    504.505    507.734    504.505    504.868    504.505
 40.870    486.000    508.068    -22.068    504.358    507.702    504.358    504.724    504.358
 40.970    488.000    508.063    -20.063    504.212    507.692    504.212    504.583    504.212
 41.070    509.000    508.082      0.918    504.068    507.707    504.068    504.443    504.068
 41.170    471.352    508.133    -36.781    503.925    507.753    503.925    504.306    503.925
 41.270    504.000    508.223     -4.223    503.784    507.838    503.784    504.170    503.784
 41.370    532.000    508.363     23.637    503.645    507.973    503.645    504.036    503.645
 41.470    496.000    508.567    -12.567    503.507    508.172    503.507    503.903    503.507
 41.570    501.000    508.858     -7.858    503.371    508.458    503.371    503.773    503.371
 41.670    529.000    509.279     19.721    503.237    508.874    503.237    503.644    503.237
 41.770    530.000    509.926     20.074    503.105    509.515    503.105    503.518    503.105
 41.870    548.000    511.032     36.968    502.974    510.615    502.974    503.393    502.974
 41.970    500.000    513.148    -13.148    502.845    512.726    502.845    503.270    502.845
 42.070    460.000    517.398    -57.398    502.717    516.972    502.717    503.149    502.717
 42.170    542.000    525.606     16.394    502.591    525.176    502.591    503.030    502.591
 42.270    500.000    539.896    -39.896    502.467    539.467    502.467    502.913    502.467
 42.370    576.927    561.408     15.518    502.345    560.982    502.345    502.798    502.345
 42.470    580.000    588.358     -8.358    502.224    587.938    502.224    502.684    502.224
 42.570    650.917    614.404     36.513    502.105    613.990    502.105    502.573    502.105
 42.670    614.000    629.295    -15.295    501.987    628.884    501.987    502.464    501.987
 42.770    611.262    625.248    -13.986    501.872    624.830    501.872    502.356    501.872
 42.870    627.654    604.627     23.027    501.757    604.192    501.757    502.251    501.757
 42.970    539.000    577.161    -38.161    501.645    576.703    501.645    502.147    501.645
 43.070    591.000    551.798     39.202    501.534    551.316    501.534    502.046    501.534
 43.170    528.000    532.974     -4.974    501.425    532.471    501.425    501.947    501.425
 43.270    503.000    521.113    -18.113    501.318    520.591    501.318    501.850    501.318
 43.370    555.000    514.512     40.488    501.212    513.976    501.212    501.755    501.212
 43.470    525.000    511.089     13.911    501.108    510.540    501.108    501.662    501.108
 43.570    493.560    509.296    -15.737    501.006    508.734    501.006    501.571    501.006
 43.670    468.854    508.261    -39.407    500.905    507.686    500.905    501.482    500.905
 43.770    462.904    507.576    -44.672    500.806    506.988    500.806    501.396    500.806
 43.870    517.000    507.074      9.926    500.709    506.473    500.709    501.312    500.709
 43.970    488.000    506.685    -18.685    500.613    506.070    500.613    501.230    500.613
 44.070    506.437    506.376      0.061    500.519    505.746    500.519    501.150    500.519
 44.170    501.000    506.128     -5.128    500.427    505.482    500.427    501.073    500.427
 44.270    525.829    505.927     19.902    500.336    505.266    500.336    500.998    500.336
 44.370    508.000    505.765      2.235    500.247    505.087    500.247    500.926    500.247
 44.470    519.574    505.636     13.938    500.160    504.940    500.160    500.856    500.160
 44.570    512.982    505.533      7.449    500.074    504.819    500.074    500.789    500.074
 44.670    499.716    505.455     -5.739    499.990    504.721    499.990    500.724    499.990
 44.770    511.000    505.398      5.602    499.908    504.643    499.908    500.662    499.908
 44.870    499.867    505.360     -5.493    499.827    504.584    499.827    500.603    499.827
 44.970    548.000    505.340     42.660    499.748    504.541    499.748    500.547    499.748
 45.070    533.718    505.337     28.381    499.670    504.514    499.670    500.494    499.670
 45.170    471.000    505.351    -34.351    499.595    504.502    499.595    500.444    499.595
 45.270    478.000    505.382    -27.382    499.520    504.505    499.520    500.398    499.520
 45.370    483.000    505.428    -22.428    499.448    504.522    499.448    500.354    499.448
 45.470    499.000    505.492     -6.492    499.377    504.555    499.377    500.314    499.377
 45.570    505.285    505.574     -0.288    499.308    504.603    499.308    500.278    499.308
 45.670    521.000    505.674     15.326    499.240    504.667    499.240    500.246    499.240
 45.770    536.215    505.794     30.421    499.174    504.749    499.174    500.218    499.174
 45.870    476.000    505.935    -29.935    499.110    504.850    499.110    500.195    499.110
 45.970    504.873    506.101     -1.228    499.047    504.972    499.047    500.176    499.047
 46.070    504.000    506.293     -2.293    498.986    505.116    498.986    500.163    498.986
 46.170    500.000    506.516     -6.516    498.926    505.287    498.926    500.154    498.926
 46.270    485.000    506.773    -21.773    498.868    505.489    498.868    500.152    498.868
 46.370    510.000    507.070      2.930    498.812    505.725    498.812    500.156    498.812
 46.470    549.602    507.415     42.187    498.757    506.004    498.757    500.167    498.757
 46.570    491.000    507.817    -16.817    498.704    506.334    498.704    500.186    498.704
 46.670    514.000    508.292      5.708    498.653    506.730    498.653    500.213    498.653
 46.770    513.000    508.865      4.135    498.603    507.217    498.603    500.250    498.603
 46.870    502.000    509.592     -7.592    498.555    507.848    498.555    500.297    498.555
 46.970    526.000    510.593     15.407    498.508    508.743    498.508    500.356    498.508
 47.070    487.000    512.135    -25.135    498.463    510.167    498.463    500.428    498.463
 47.170    543.245    514.743     28.502    498.419    512.642    498.419    500.515    498.419
 47.270    489.000    519.270    -30.270    498.377    517.019    498.377    500.620    498.377
 47.370    569.000    526.792     42.208    498.337    524.371    498.337    500.744    498.337
 47.470    515.272    538.182    -22.910    498.298    535.566    498.298    500.892    498.298
 47.570    524.000    553.347    -29.347    498.260    550.507    498.260    501.068    498.260
 47.670    582.000    570.430     11.570    498.225    567.335    498.225    501.276    498.225
 47.770    567.909    585.389    -17.479    498.190    582.003    498.190    501.522    498.190
 47.870    633.741    592.910     40.831    498.158    589.194    498.158    501.816    498.158
 47.970    564.115    589.850    -25.735    498.127    585.755    498.127    502.169    498.127
 48.070    569.000    578.344     -9.344    498.097    573.801    498.097    502.598    498.097
 48.170    562.000    563.593     -1.593    498.069    558.505    498.069    503.126    498.069
 48.270    562.000    550.137     11.863    498.042    544.364    498.042    503.795    498.042
 48.370    528.209    540.452    -12.243    498.017    533.790    498.017    504.666    498.017
 48.470    528.000    535.144     -7.144    497.994    527.292    497.994    505.838    497.994
 48.570    511.000    533.711    -22.711    497.972    524.221    497.972    507.456    497.972
 48.670    507.000    535.354    -28.354    497.951    523.574    497.951    509.728    497.951
 48.770    527.000    539.503    -12.503    497.932    524.514    497.932    512.918    497.932
 48.870    575.000    545.976     29.024    497.915    526.559    497.915    517.328    497.915
 48.970    541.000    554.913    -13.913    497.899    529.561    497.899    523.247    497.899
 49.070    560.000    566.668     -6.668    497.884    533.688    497.884    530.860    497.884
 49.170    579.138    581.849     -2.712    497.871    539.593    497.871    540.123    497.871
 49.270    641.000    601.799     39.201    497.859    549.067    497.859    550.584    497.859
 49.370    653.000    629.907     23.093    497.849    566.604    497.849    561.141    497.849
 49.470    705.000    674.185     30.815    497.840    602.130    497.840    569.873    497.840
 49.570    812.000    750.732     61.268    497.833    674.092    497.833    574.430    497.833
 49.670    918.000    885.301     32.699    497.827    809.771    497.827    573.281    497.827
 49.770   1168.322   1106.929     61.393    497.823   1037.776    497.823    566.857    497.823
 49.870   1386.570   1429.377    -42.807    497.820   1369.856    497.820    557.182    497.820
 49.970   1858.400   1826.208     32.192    497.819   1777.337    497.819    546.515    497.819
 50.070   2270.214   2215.223     54.992    497.819   2176.450    497.819    536.450    497.819
 50.170   2470.422   2471.790     -1.368    497.820   2441.749    497.820    527.812    497.820
 50.270   2486.000   2488.485     -2.485    497.823   2465.505    497.823    520.873    497.823
 50.370   2249.000   2254.820     -5.820    497.827   2237.236    497.827    515.572    497.827
 50.470   1909.000   1867.654     41.346    497.832   1854.006    497.832    511.674    497.832
 50.570   1473.420   1456.130     17.290    497.839   1445.268    497.839    508.878    497.839
 50.670   1074.957   1113.421    -38.464    497.847   1104.511    497.847    506.894    497.847
 50.770    830.000    876.595    -46.595    497.857    869.071    497.857    505.476    497.857
 50.870    722.000    737.755    -15.755    497.868    731.245    497.868    504.444    497.868
 50.970    706.392    667.182     39.210    497.881    661.441    497.881    503.670    497.881
 51.070    644.950    633.470     11.480    497.894    628.333    497.894    503.072    497.894
 51.170    586.978    614.147    -27.169    497.910    609.495    497.910    502.597    497.910
 51.270    629.000    598.015     30.985    497.926    593.759    497.926    502.212    497.926
 51.370    582.000    582.228     -0.228    497.944    578.299    497.944    501.896    497.944
 51.470    541.929    567.597    -25.668    497.963    563.943    497.963    501.635    497.963
 51.570    547.000    555.419     -8.419    497.983    551.997    497.983    501.418    497.983
 51.670    535.000    546.332    -11.332    498.005    543.109    498.005    501.237    498.005
 51.770    515.264    540.230    -24.966    498.028    537.177    498.028    501.088    498.028
 51.870    571.000    536.553     34.447    498.052    533.645    498.052    500.964    498.052
 51.970    575.620    534.639     40.981    498.078    531.857    498.078    500.864    498.078
 52.070    573.644    533.964     39.680    498.105    531.289    498.105    500.782    498.105
 52.170    492.289    534.232    -41.942    498.133    531.648    498.133    500.719    498.133
 52.270    570.000    535.384     34.616    498.163    532.878    498.163    500.670    498.163
 52.370    538.339    537.634      0.705    498.193    535.194    498.193    500.635    498.193
 52.470    524.903    541.629    -16.726    498.225    539.244    498.225    500.612    498.225
 52.570    578.130    548.812     29.318    498.259    546.472    498.259    500.600    498.259
 52.670    612.000    561.963     50.037    498.293    559.659    498.293    500.598    498.293
 52.770    580.000    585.719     -5.719    498.329    583.442    498.329    500.605    498.329
 52.870    637.171    626.508     10.663    498.366    624.251    498.366    500.621    498.366
 52.970    643.608    691.184    -47.575    498.404    688.939    498.404    500.645    498.404
 53.070    745.713    783.933    -38.219    498.443    781.695    498.443    500.677    498.443
 53.170    917.000    901.989     15.011    498.483    899.754    498.483    500.716    498.483
 53.270   1173.000   1031.643    141.357    498.525   1029.409    498.525    500.762    498.525
 53.370   1107.000   1146.617    -39.617    498.568   1144.383    498.568    500.815    498.568
 53.470   1264.402   1212.962     51.439    498.612   1210.725    498.612    500.875    498.612
 53.570   1167.000   1205.961    -38.961    498.657   1203.715    498.657    500.941    498.657
 53.670   1190.077   1128.716     61.361    498.704   1126.450    498.704    501.014    498.704
 53.770    949.428   1009.297    -59.869    498.751   1006.998    498.751    501.093    498.751
 53.870    824.000    880.899    -56.899    498.800    878.557    498.800    501.179    498.800
 53.970    756.000    767.509    -11.509    498.849    765.115    498.849    501.271    498.849
 54.070    641.243    680.590    -39.347    498.900    678.140    498.900    501.371    498.900
 54.170    653.000    621.312     31.688    498.952    618.800    498.952    501.477    498.952
 54.270    632.000    584.722     47.278    499.005    582.145    499.005    501.590    499.005
 54.370    558.000    563.893     -5.893    499.060    561.246    499.060    501.711    499.060
 54.470    554.920    552.690      2.231    499.115    549.968    499.115    501.840    499.115
 54.570    547.000    546.843      0.157    499.171    544.039    499.171    501.977    499.171
 54.670    527.000    543.853    -16.853    499.229    540.960    499.229    502.123    499.229
 54.770    545.000    542.442      2.558    499.287    539.453    499.287    502.278    499.287
 54.870    556.000    542.025     13.975    499.347    538.930    499.347    502.443    499.347
 54.970    563.000    542.354     20.646    499.407    539.144    499.407    502.619    499.407
 55.070    567.000    543.340     23.660    499.469    540.004    499.469    502.806    499.469
 55.170    520.000    544.969    -24.969    499.531    541.496    499.531    503.005    499.531
 55.270    561.000    547.279     13.721    499.595    543.657    499.595    503.218    499.595
 55.370    565.867    550.354     15.513    499.660    546.569    499.660    503.446    499.660
 55.470    580.818    554.355     26.463    499.725    550.392    499.725    503.689    499.725
 55.570    570.000    559.586     10.414    499.792    555.429    499.792    503.951    499.792
 55.670    589.000    566.688     22.312    499.860    562.316    499.860    504.231    499.860
 55.770    579.000    577.062      1.938    499.928    572.456    499.928    504.534    499.928
 55.870    625.000    593.716     31.284    499.998    588.851    499.998    504.861    499.998
 55.970    666.325    622.604     43.721    500.068    617.452    500.068    505.215    500.068
 56.070    616.000    674.235    -58.235    500.139    668.765    500.139    505.599    500.139
 56.170    733.000    764.552    -31.552    500.212    758.725    500.212    506.018    500.212
 56.270    903.095    913.352    -10.257    500.285    907.126    500.285    506.477    500.285
 56.370   1096.033   1138.481    -42.448    500.359   1131.812    500.359    506.980    500.359
 56.470   1447.383   1445.704      1.679    500.434   1438.545    500.434    507.534    500.434
 56.570   1844.000   1817.041     26.959    500.510   1809.349    500.510    508.148    500.510
 56.670   2158.000   2202.465    -44.465    500.587   2194.197    500.587    508.830    500.587
 56.770   2534.000   2520.563     13.437    500.665   2511.669    500.665    509.592    500.665
 56.870   2582.000   2678.696    -96.696    500.743   2669.107    500.743    510.449    500.743
 56.970   2581.000   2621.443    -40.443    500.823   2611.049    500.823    511.419    500.823
 57.070   2392.000   2371.398     20.602    500.903   2360.032    500.903    512.526    500.903
 57.170   2065.000   2010.380     54.620    500.984   1997.828    500.984    513.801    500.984
 57.270   1582.735   1628.461    -45.726    501.066   1614.471    501.066    515.292    501.066
 57.370   1240.000   1291.235    -51.235    501.149   1275.501    501.149    517.069    501.149
 57.470   1034.000   1031.335      2.665    501.232   1013.460    501.232    519.241    501.232
 57.570    827.000    853.224    -26.224    501.317    832.655    501.317    521.973    501.317
 57.670    774.116    744.010     30.106    501.402    719.943    501.402    525.521    501.402
 57.770    736.000    684.935     51.065    501.488    656.197    501.488    530.254    501.488
 57.870    642.000    659.540    -17.540    501.574    624.442    501.574    536.686    501.574
 57.970    647.226    657.344    -10.118    501.662    613.534    501.662    545.473    501.662
 58.070    681.000    673.897      7.103    501.750    618.252    501.750    557.387    501.750
 58.170    697.000    709.123    -12.123    501.839    637.718    501.839    573.227    501.839
 58.270    732.000    764.968    -32.968    501.929    673.195    501.929    593.675    501.929
 58.370    833.000    843.013    -10.013    502.019    725.900    502.019    619.095    502.019
 58.470    937.000    942.355     -5.355    502.110    795.136    502.110    649.284    502.110
 58.570   1011.000   1057.937    -46.937    502.202    876.954    502.202    683.138    502.202
 58.670   1150.898   1179.820    -28.922    502.294    963.838    502.294    718.234    502.294
 58.770   1224.000   1294.424    -70.424    502.387   1046.388    502.387    750.393    502.387
 58.870   1441.000   1387.595     53.405    502.481   1116.238    502.481    773.825    502.481
 58.970   1440.000   1446.897     -6.897    502.575   1166.657    502.575    782.822    502.575
 59.070   1513.012   1463.112     49.900    502.670   1190.981    502.670    774.829    502.670
 59.170   1522.000   1434.182     87.818    502.766   1184.796    502.766    752.193    502.766
 59.270   1296.602   1369.222    -72.621    502.862   1151.591    502.862    720.537    502.862
 59.370   1278.343   1286.199     -7.855    502.959   1103.498    502.959    685.690    502.959
 59.470   1239.149   1204.717     34.432    503.057   1055.863    503.057    651.915    503.057
 59.570   1190.767   1141.887     48.881    503.155   1023.294    503.155    621.716    503.155
 59.670   1125.000   1112.542     12.458    503.253   1019.467    503.253    596.251    503.253
 59.770   1178.000   1128.140     49.860    503.353   1055.598    503.353    575.764    503.353
 59.870   1276.000   1191.976     84.024    503.452   1135.328    503.452    559.912    503.452
 59.970   1319.000   1294.457     24.543    503.553   1249.742    503.553    548.026    503.553
 60.070   1388.662   1411.677    -23.015    503.654   1375.741    503.654    539.308    503.654
 60.170   1535.000   1508.191     26.809    503.755   1478.665    503.755    532.987    503.755
 60.270   1611.000   1546.522     64.478    503.857   1521.710    503.857    528.397    503.857
 60.370   1499.000   1504.900     -5.900    503.959   1483.618    503.959    525.023    503.959
 60.470   1438.905   1390.485     48.420    504.062   1371.905    504.062    522.489    504.062
 60.570   1199.026   1232.480    -33.454    504.166   1216.012    504.166    520.540    504.166
 60.670   1099.000   1064.659     34.341    504.270   1049.868    504.270    519.012    504.270
 60.770    957.597    913.369     44.229    504.374    899.922    504.374    517.800    504.374
 60.870    762.693    793.400    -30.707    504.479    781.031    504.479    516.841    504.479
 60.970    736.000    708.793     27.207    504.584    697.277    504.584    516.097    504.584
 61.070    674.000    656.447     17.553    504.690    645.588    504.690    515.543    504.690
 61.170    614.182    630.668    -16.485    504.796    620.292    504.796    515.161    504.796
 61.270    591.000    626.956    -35.956    504.902    616.904    504.902    514.936    504.902
 61.370    620.443    644.092    -23.649    505.009    634.224    505.009    514.847    505.009
 61.470    725.592    684.306     41.287    505.116    674.507    505.116    514.867    505.116
 61.570    714.533    751.701    -37.167    505.224    741.897    505.224    514.956    505.224
 61.670    827.737    849.292    -21.555    505.332    839.468    505.332    515.054    505.332
 61.770    941.000    975.344    -34.344    505.440    965.563    505.440    515.088    505.440
 61.870   1058.000   1120.135    -62.135    505.549   1110.535    505.549    514.986    505.549
 61.970   1274.639   1264.361     10.278    505.658   1255.130    505.658    514.709    505.658
 62.070   1379.000   1380.462     -1.462    505.768   1371.780    505.768    514.271    505.768
 62.170   1353.000   1439.239    -86.239    505.877   1431.234    505.877    513.727    505.877
 62.270   1393.458   1423.013    -29.555    505.987   1415.744    505.987    513.143    505.987
 62.370   1258.000   1336.590    -78.590    506.097   1330.045    506.097    512.574    506.097
 62.470   1158.000   1203.835    -45.835    506.208   1197.959    506.208    512.056    506.208
 62.570   1045.437   1054.335     -8.898    506.319   1049.044    506.319    511.606    506.319
 62.670    844.000    912.718    -68.718    506.430    907.927    506.430    511.232    506.430
 62.770    792.978    794.339     -1.360    506.541    789.963    506.541    510.932    506.541
 62.870    662.000    705.131    -43.131    506.653    701.097    506.653    510.699    506.653
 62.970    673.000    643.784     29.216    506.765    640.032    506.765    510.525    506.765
 63.070    603.000    604.929     -1.929    506.877    601.411    506.877    510.399    506.877
 63.170    596.000    582.103     13.897    506.989    578.781    506.989    510.311    506.989
 63.270    632.000    569.717     62.283    507.101    566.562    507.101    510.253    507.101
 63.370    592.000    563.902     28.098    507.214    560.892    507.214    510.219    507.214
 63.470    564.154    562.599      1.555    507.327    559.716    507.327    510.203    507.327
 63.570    581.000    565.322     15.678    507.439    562.551    507.439    510.202    507.439
 63.670    549.447    572.878    -23.431    507.553    570.206    507.553    510.212    507.553
 63.770    605.000    587.103     17.897    507.666    584.518    507.666    510.231    507.666
 63.870    633.000    610.503     22.497    507.779    607.994    507.779    510.259    507.779
 63.970    729.000    645.628     83.372    507.892    643.183    507.892    510.294    507.892
 64.070    724.000    694.134     29.866    508.006    691.743    508.006    510.336    508.006
 64.170    779.000    755.635     23.365    508.120    753.291    508.120    510.383    508.120
 64.270    874.000    826.629     47.371    508.233    824.325    508.233    510.436    508.233
 64.370    886.878    899.832    -12.953    508.347    897.567    508.347    510.493    508.347
 64.470    999.000    964.455     34.545    508.461    962.233    508.461    510.555    508.461
 64.570   1057.000   1008.491     48.509    508.575   1006.319    508.575    510.620    508.575
 64.670   1034.000   1023.349     10.651    508.689   1021.236    508.689    510.690    508.689
 64.770   1009.000   1007.664      1.336    508.803   1005.616    508.803    510.763    508.803
 64.870    947.910    966.866    -18.956    508.917    964.884    508.917    510.839    508.917
 64.970    931.000    910.266     20.734    509.031    908.346    509.031    510.918    509.031
 65.070    860.000    848.001     11.999    509.145    846.137    509.145    511.000    509.145
 65.170    813.222    788.294     24.928    509.259    786.477    509.259    511.085    509.259
 65.270    737.000    735.905      1.095    509.373    734.127    509.373    511.172    509.373
 65.370    705.000    692.341     12.659    509.486    690.593    509.486    511.261    509.486
 65.470    663.427    657.197      6.230    509.600    655.471    509.600    511.353    509.600
 65.570    606.000    629.437    -23.437    509.714    627.727    509.714    511.447    509.714
 65.670    600.386    607.958     -7.572    509.828    606.261    509.828    511.544    509.828
 65.770    623.538    591.707     31.831    509.941    590.020    509.941    511.642    509.941
 65.870    570.000    579.746     -9.746    510.055    578.068    510.055    511.742    510.055
 65.970    532.000    571.291    -39.291    510.168    569.620    510.168    511.844    510.168
 66.070    586.000    565.699     20.301    510.282    564.035    510.282    511.948    510.282
 66.170    518.000    562.437    -44.437    510.395    560.779    510.395    512.054    510.395
 66.270    521.000    561.071    -40.071    510.508    559.418    510.508    512.161    510.508
 66.370    571.000    561.272      9.728    510.621    559.623    510.621    512.270    510.621
 66.470    583.000    562.858     20.142    510.734    561.211    510.734    512.381    510.734
 66.570    604.648    565.856     38.792    510.846    564.209    510.846    512.494    510.846
 66.670    535.000    570.618    -35.618    510.959    568.971    510.959    512.608    510.959
 66.770    557.560    578.033    -20.473    511.071    576.381    511.071    512.724    511.071
 66.870    590.000    589.866      0.134    511.183    588.208    511.183    512.842    511.183
 66.970    646.000    609.246     36.754    511.295    607.579    511.295    512.961    511.295
 67.070    627.000    641.197    -14.197    511.406    639.517    511.406    513.083    511.406
 67.170    655.670    692.969    -37.299    511.518    691.273    511.518    513.206    511.518
 67.270    821.576    773.782     47.795    511.629    772.067    511.629    513.331    511.629
 67.370    877.151    893.529    -16.378    511.740    891.794    511.740    513.458    511.740
 67.470   1032.000   1060.190    -28.190    511.850   1058.435    511.850    513.587    511.850
 67.570   1271.033   1276.177     -5.144    511.961   1274.408    511.961    513.719    511.961
 67.670   1590.538   1534.451     56.086    512.071   1532.676    512.071    513.852    512.071
 67.770   1823.000   1815.586      7.414    512.181   1813.818    512.181    513.988    512.181
 67.870   2098.000   2086.939     11.061    512.290   2085.192    512.290    514.127    512.290
 67.970   2331.000   2305.372     25.628    512.399   2303.658    512.399    514.268    512.399
 68.070   2509.288   2426.416     82.872    512.508   2424.740    512.508    514.412    512.508
 68.170   2446.000   2421.016     24.984    512.616   2419.366    512.616    514.559    512.616
 68.270   2235.479   2290.651    -55.172    512.724   2288.998    512.724    514.709    512.724
 68.370   2111.390   2066.422     44.968    512.832   2064.728    512.832    514.863    512.832
 68.470   1846.000   1793.178     52.822    512.940   1791.410    512.940    515.020    512.940
 68.570   1484.194   1513.366    -29.172    513.047   1511.499    513.047    515.182    513.047
 68.670   1315.000   1258.544     56.456    513.153   1256.564    513.153    515.348    513.153
 68.770   1020.000   1047.023    -27.023    513.259   1044.926    513.259    515.519    513.259
 68.870    877.000    884.915     -7.915    513.365    882.701    513.365    515.696    513.365
 68.970    793.000    769.190     23.810    513.471    766.861    513.471    515.878    513.471
 69.070    677.019    691.584    -14.565    513.576    689.145    513.576    516.067    513.576
 69.170    712.000    642.188     69.812    513.680    639.638    513.680    516.263    513.680
 69.270    595.000    611.913    -16.913    513.784    609.252    513.784    516.467    513.784
 69.370    624.000    593.688     30.312    513.888    590.911    513.888    516.679    513.888
 69.470    589.000    582.648      6.352    513.991    579.747    513.991    516.901    513.991
 69.570    603.000    575.758     27.242    514.093    572.724    514.093    517.134    514.093
 69.670    565.000    571.283     -6.283    514.195    568.104    514.195    517.380    514.195
 69.770    528.000    568.289    -40.289    514.297    564.951    514.297    517.639    514.297
 69.870    616.000    566.301     49.699    514.398    562.788    514.398    517.913    514.398
 69.970    608.334    565.085     43.249    514.499    561.381    514.499    518.205    514.499
 70.070    525.901    564.535    -38.634    514.599    560.618    514.599    518.517    514.599
 70.170    575.000    564.618     10.382    514.698    560.465    514.698    518.851    514.698
 70.270    538.562    565.364    -26.802    514.797    560.949    514.797    519.212    514.797
 70.370    558.000    566.881     -8.881    514.896    562.173    514.896    519.602    514.896
 70.470    569.000    569.423     -0.423    514.993    564.387    514.993    520.028    514.993
 70.570    599.000    573.479     25.521    515.091    568.071    515.091    520.493    515.091
 70.670    539.000    579.942    -40.942    515.187    574.114    515.187    521.008    515.187
 70.770    576.000    590.352    -14.352    515.283    584.043    515.283    521.582    515.283
 70.870    618.000    607.162     10.838    515.379    600.295    515.379    522.229    515.379
 70.970    655.000    633.974     21.026    515.473    626.449    515.473    522.972    515.473
 71.070    650.000    675.578    -25.578    515.568    667.262    515.568    523.843    515.568
 71.170    730.000    737.605     -7.605    515.661    728.313    515.661    524.894    515.661
 71.270    807.000    825.628    -18.628    515.754    815.097    515.754    526.201    515.754
 71.370    918.284    943.653    -25.369    515.846    931.507    515.846    527.880    515.846
 71.470   1089.459   1092.224     -2.766    515.938   1077.921    515.938    530.098    515.938
 71.570   1332.067   1266.533     65.533    516.028   1249.304    516.028    533.085    516.028
 71.670   1445.657   1455.106     -9.449    516.119   1433.887    516.119    537.142    516.119
 71.770   1567.674   1639.503    -71.829    516.208   1612.870    516.208    542.634    516.208
 71.870   1807.000   1795.650     11.350    516.297   1761.775    516.297    549.970    516.297
 71.970   1851.345   1898.011    -46.666    516.385   1854.664    516.385    559.553    516.385
 72.070   1927.000   1927.531     -0.531    516.472   1872.146    516.472    571.715    516.472
 72.170   1898.000   1880.309     17.691    516.559   1810.143    516.559    586.623    516.559
 72.270   1796.000   1769.759     26.241    516.644   1682.156    516.644    604.185    516.644
 72.370   1634.000   1619.801     14.199    516.729   1512.560    516.729    623.938    516.729
 72.470   1468.752   1455.463     13.290    516.814   1327.318    516.814    644.947    516.814
 72.570   1347.000   1296.811     50.189    516.897   1147.998    516.897    665.712    516.897
 72.670   1116.000   1156.564    -40.564    516.980    989.426    516.980    684.125    516.980
 72.770   1023.000   1039.998    -16.998    517.062    859.405    517.062    697.663    517.062
 72.870    918.000    946.497    -28.497    517.143    759.660    517.143    703.987    517.143
 72.970    809.000    872.191    -63.191    517.223    687.563    517.223    701.857    517.223
 73.070    765.744    812.527    -46.783    517.302    638.097    517.302    691.736    517.302
 73.170    802.155    763.751     38.404    517.381    605.588    517.381    675.547    517.381
 73.270    717.000    723.229     -6.229    517.459    584.879    517.459    655.811    517.459
 73.370    713.658    689.247     24.412    517.536    571.913    517.536    634.872    517.536
 73.470    642.454    660.749    -18.296    517.612    563.838    517.612    614.527    517.612
 73.570    679.453    637.124     42.329    517.687    558.840    517.687    595.975    517.687
 73.670    602.000    618.000    -16.000    517.761    555.867    517.761    579.899    517.761
 73.770    647.100    603.081     44.019    517.835    554.364    517.835    566.559    517.835
 73.870    589.000    592.034     -3.034    517.907    554.048    517.907    555.904    517.907
 73.970    593.279    584.429      8.850    517.979    554.752    517.979    547.670    517.979
 74.070    564.466    579.727    -15.261    518.050    556.317    518.050    541.480    518.050
 74.170    577.571    577.296      0.275    518.119    558.521    518.119    536.920    518.119
 74.270    638.000    576.427     61.573    518.188    561.046    518.188    533.601    518.188
 74.370    616.000    576.368     39.632    518.256    563.471    518.256    531.190    518.256
 74.470    636.000    576.363     59.637    518.323    565.306    518.323    529.423    518.323
 74.570    617.897    575.751     42.145    518.389    566.083    518.389    528.102    518.389
 74.670    680.000    574.101    105.899    518.454    565.511    518.454    527.089    518.454
 74.770    652.000    571.330     80.670    518.518    563.602    518.518    526.289    518.518
 74.870    645.000    567.694     77.306    518.581    560.674    518.581    525.640    518.581
 74.970    593.000    563.652     29.348    518.644    557.228    518.644    525.100    518.644
 75.070    623.000    559.727     63.273    518.705    553.814    518.705    524.644    518.705
 75.170    610.000    556.431     53.569    518.765    550.963    518.765    524.253    518.765
 75.270    606.000    554.250     51.750    518.824    549.173    518.824    523.914    518.824
 75.370    564.943    553.664     11.279    518.882    548.934    518.882    523.620    518.882
 75.470    579.407    555.170     24.237    518.939    550.749    518.939    523.362    518.939
 75.570    601.694    559.294     42.399    518.995    555.149    518.995    523.136    518.995
 75.670    559.000    566.565     -7.565    519.050    562.667    519.050    522.938    519.050
 75.770    533.079    577.427    -44.348    519.104    573.752    519.104    522.763    519.104
 75.870    625.000    592.110     32.890    519.157    588.634    519.157    522.608    519.157
 75.970    627.000    610.448     16.552    519.209    607.153    519.209    522.471    519.209
 76.070    684.000    631.725     52.275    519.260    628.593    519.260    522.350    519.260
 76.170    605.000    654.560    -49.560    519.309    651.576    519.309    522.243    519.309
 76.270    707.326    676.889     30.438    519.358    674.041    519.358    522.148    519.358
 76.370    697.915    696.072      1.843    519.405    693.350    519.405    522.064    519.405
 76.470    760.101    709.237     50.864    519.452    706.636    519.452    521.990    519.452
 76.570    706.000    713.988     -7.988    519.497    711.500    519.497    521.923    519.497
 76.670    727.972    709.326     18.646    519.541    706.947    519.541    521.864    519.541
 76.770    663.000    696.130    -33.130    519.584    693.854    519.584    521.812    519.584
 76.870    625.000    676.722    -51.722    519.626    674.544    519.626    521.766    519.626
 76.970    680.459    653.952     26.507    519.667    651.865    519.667    521.725    519.667
 77.070    637.000    630.466      6.534    519.706    628.463    519.706    521.688    519.706
 77.170    610.269    608.340      1.930    519.745    606.414    519.745    521.656    519.745
 77.270    589.000    588.954      0.046    519.782    587.099    519.782    521.627    519.782
 77.370    531.000    573.003    -42.003    519.818    571.213    519.818    521.602    519.818
 77.470    550.000    560.597    -10.597    519.853    558.867    519.853    521.579    519.853
 77.570    531.000    551.426    -20.426    519.887    549.751    519.887    521.559    519.887
 77.670    502.246    544.945    -42.699    519.920    543.322    519.920    521.542    519.920
 77.770    507.000    540.535    -33.535    519.951    538.959    519.951    521.526    519.951
 77.870    582.000    537.618     44.382    519.981    536.086    519.981    521.512    519.981
 77.970    541.000    535.718      5.282    520.010    534.227    520.010    521.500    520.010
 78.070    502.000    534.482    -32.482    520.038    533.029    520.038    521.489    520.038
 78.170    534.000    533.664      0.336    520.064    532.249    520.064    521.479    520.064
 78.270    509.837    533.114    -23.277    520.090    531.732    520.090    521.471    520.090
 78.370    490.571    532.721    -42.150    520.114    531.371    520.114    521.463    520.114
 78.470    496.000    532.448    -36.448    520.137    531.127    520.137    521.457    520.137
 78.570    573.140    532.305     40.835    520.158    531.012    520.158    521.451    520.158
 78.670    571.093    532.265     38.828    520.179    530.997    520.179    521.446    520.179
 78.770    538.000    532.335      5.665    520.198    531.090    520.198    521.442    520.198
 78.870    561.727    532.531     29.196    520.215    531.307    520.215    521.439    520.215
 78.970    554.968    532.879     22.088    520.232    531.673    520.232    521.438    520.232
 79.070    556.059    533.407     22.651    520.247    532.216    520.247    521.437    520.247
 79.170    499.482    534.145    -34.663    520.261    532.966    520.261    521.439    520.261
 79.270    532.000    535.121     -3.121    520.274    533.950    520.274    521.443    520.274
 79.370    527.000    536.363     -9.363    520.286    535.195    520.286    521.451    520.286
 79.470    562.445    537.896     24.549    520.296    536.727    520.296    521.461    520.296
 79.570    564.296    539.756     24.540    520.304    538.580    520.304    521.476    520.304
 79.670    562.000    541.996     20.004    520.312    540.808    520.312    521.496    520.312
 79.770    550.000    544.707      5.293    520.318    543.499    520.318    521.521    520.318
 79.870    533.477    548.033    -14.556    520.323    546.800    520.323    521.551    520.323
 79.970    523.000    552.204    -29.204    520.327    550.941    520.327    521.585    520.327
 80.070    570.000    557.550     12.450    520.329    556.251    520.329    521.624    520.329
 80.170    562.000    564.501     -2.501    520.330    563.164    520.330    521.664    520.330
 80.270    601.000    573.539     27.461    520.329    572.163    520.329    521.705    520.329
 80.370    559.000    585.103    -26.103    520.328    583.689    520.328    521.743    520.328
 80.470    616.446    599.473     16.972    520.325    598.030    520.325    521.773    520.325
 80.570    585.220    616.668    -31.448    520.320    615.205    520.320    521.791    520.320
 80.670    623.882    636.355    -12.473    520.314    634.890    520.314    521.794    520.314
 80.770    658.303    657.813      0.490    520.307    656.362    520.307    521.777    520.307
 80.870    619.000    679.946    -60.946    520.299    678.528    520.299    521.742    520.299
 80.970    673.027    701.402    -28.375    520.289    700.033    520.289    521.690    520.289
 81.070    668.761    720.763    -52.002    520.277    719.453    520.277    521.627    520.277
 81.170    760.329    736.733     23.596    520.265    735.488    520.265    521.556    520.265
 81.270    697.496    748.256    -50.760    520.251    747.078    520.251    521.481    520.251
 81.370    796.000    754.600     41.400    520.235    753.488    520.235    521.406    520.235
 81.470    786.124    755.442     30.682    520.219    754.391    520.219    521.333    520.219
 81.570    707.261    750.885    -43.625    520.200    749.889    520.200    521.263    520.200
 81.670    753.000    741.416     11.584    520.181    740.468    520.181    521.197    520.181
 81.770    759.961    727.874     32.087    520.160    726.966    520.160    521.137    520.160
 81.870    738.000    711.420     26.580    520.137    710.546    520.137    521.080    520.137
 81.970    738.000    693.377     44.623    520.113    692.529    520.113    521.028    520.113
 82.070    686.000    674.952     11.048    520.088    674.124    520.088    520.979    520.088
 82.170    677.000    657.021     19.979    520.062    656.209    520.062    520.933    520.062
 82.270    689.011    640.081     48.930    520.034    639.281    520.034    520.889    520.034
 82.370    651.000    624.349     26.651    520.004    623.557    520.004    520.846    520.004
 82.470    561.912    609.929    -48.017    519.973    609.143    519.973    520.805    519.973
 82.570    613.000    596.942     16.058    519.941    596.158    519.941    520.764    519.941
 82.670    566.000    585.546    -19.546    519.907    584.763    519.907    520.723    519.907
 82.770    546.597    575.910    -29.313    519.872    575.127    519.872    520.682    519.872
 82.870    531.000    568.180    -37.180    519.835    567.395    519.835    520.640    519.835
 82.970    599.652    562.463     37.189    519.797    561.675    519.797    520.597    519.797
 83.070    538.000    558.815    -20.815    519.758    558.023    519.758    520.554    519.758
 83.170    570.923    557.225     13.698    519.717    556.428    519.717    520.510    519.717
 83.270    531.000    557.590    -26.590    519.674    556.789    519.674    520.465    519.674
 83.370    533.000    559.700    -26.700    519.631    558.894    519.631    520.419    519.631
 83.470    526.000    563.225    -37.225    519.585    562.414    519.585    520.371    519.585
 83.570    570.000    567.714      2.286    519.539    566.898    519.539    520.323    519.539
 83.670    613.000    572.606     40.394    519.490    571.785    519.490    520.274    519.490
 83.770    612.519    577.260     35.258    519.441    576.436    519.441    520.223    519.441
 83.870    604.000    581.008     22.992    519.390    580.181    519.390    520.172    519.390
 83.970    533.000    583.238    -50.238    519.337    582.410    519.337    520.119    519.337
 84.070    556.000    583.521    -27.521    519.283    582.694    519.283    520.065    519.283
 84.170    565.000    581.729    -16.729    519.228    580.904    519.228    520.010    519.228
 84.270    568.799    578.061     -9.262    519.171    577.239    519.171    519.954    519.171
 84.370    505.000    572.966    -67.966    519.112    572.148    519.112    519.897    519.112
 84.470    606.121    567.002     39.119    519.052    566.188    519.052    519.838    519.052
 84.570    603.173    560.720     42.453    518.991    559.909    518.991    519.778    518.991
 84.670    566.000    554.592     11.408    518.928    553.784    518.928    519.717    518.928
 84.770    533.000    548.975    -15.975    518.864    548.169    518.864    519.655    518.864
 84.870    523.000    544.100    -21.100    518.798    543.295    518.798    519.592    518.798
 84.970    503.909    540.076    -36.167    518.731    539.271    518.731    519.528    518.731
 85.070    514.000    536.912    -22.912    518.662    536.105    518.662    519.462    518.662
 85.170    554.000    534.545     19.455    518.592    533.736    518.592    519.395    518.592
 85.270    550.000    532.870     17.130    518.520    532.058    518.520    519.327    518.520
 85.370    549.000    531.771     17.229    518.447    530.956    518.447    519.258    518.447
 85.470    543.000    531.141     11.859    518.373    530.322    518.373    519.187    518.373
 85.570    565.161    530.901     34.260    518.297    530.077    518.297    519.116    518.297
 85.670    558.000    531.006     26.994    518.219    530.177    518.219    519.043    518.219
 85.770    496.178    531.452    -35.275    518.140    530.617    518.140    518.969    518.140
 85.870    526.000    532.281     -6.281    518.060    531.439    518.060    518.894    518.060
 85.970    544.000    533.576     10.424    517.978    532.726    517.978    518.818    517.978
 86.070    521.610    535.465    -13.855    517.894    534.606    517.894    518.741    517.894
 86.170    554.000    538.110     15.890    517.809    537.242    517.809    518.662    517.809
 86.270    539.000    541.700     -2.700    517.723    540.820    517.723    518.583    517.723
 86.370    538.043    546.425     -8.382    517.635    545.532    517.635    518.502    517.635
 86.470    525.000    552.451    -27.451    517.546    551.542    517.546    518.420    517.546
 86.570    573.000    559.881     13.119    517.455    558.956    517.455    518.338    517.455
 86.670    568.000    568.715     -0.715    517.363    567.771    517.363    518.254    517.363
 86.770    605.547    578.809     26.737    517.269    577.845    517.269    518.169    517.269
 86.870    573.000    589.842    -16.842    517.174    588.856    517.174    518.083    517.174
 86.970    620.000    601.293     18.707    517.077    600.286    517.077    517.996    517.077
 87.070    606.000    612.483     -6.483    516.979    611.455    516.979    517.908    516.979
 87.170    618.000    622.570     -4.570    516.879    621.522    516.879    517.819    516.879
 87.270    642.000    630.626     11.374    516.778    629.562    516.778    517.730    516.778
 87.370    686.000    635.802     50.198    516.676    634.724    516.676    517.639    516.676
 87.470    592.316    637.512    -45.197    516.572    636.424    516.572    517.547    516.572
 87.570    593.986    635.611    -41.625    516.466    634.517    516.466    517.455    516.466
 87.670    666.000    630.433     35.567    516.360    629.335    516.360    517.362    516.360
 87.770    627.000    622.692      4.308    516.251    621.592    516.251    517.268    516.251
 87.870    612.000    613.308     -1.308    516.141    612.206    516.141    517.173    516.141
 87.970    607.000    603.250      3.750    516.030    602.146    516.030    517.078    516.030
 88.070    625.000    593.436     31.564    515.918    592.329    515.918    516.982    515.918
 88.170    625.490    584.661     40.828    515.803    583.548    515.803    516.885    515.803
 88.270    601.000    577.551     23.449    515.688    576.430    515.688    516.788    515.688
 88.370    541.788    572.537    -30.750    515.571    571.407    515.571    516.691    515.571
 88.470    584.000    569.851     14.149    515.452    568.709    515.452    516.593    515.452
 88.570    632.000    569.525     62.475    515.333    568.370    515.333    516.494    515.333
 88.670    596.000    571.405     24.595    515.211    570.234    515.211    516.396    515.211
 88.770    617.000    575.169     41.831    515.089    573.982    515.089    516.297    515.089
 88.870    598.115    580.348     17.767    514.964    579.143    514.964    516.199    514.964
 88.970    623.000    586.353     36.647    514.839    585.129    514.839    516.100    514.839
 89.070    609.000    592.503     16.497    514.712    591.258    514.712    516.002    514.712
 89.170    574.000    598.064    -24.064    514.584    596.795    514.584    515.903    514.584
 89.270    622.000    602.315     19.685    514.454    601.020    514.454    515.806    514.454
 89.370    582.000    604.639    -22.639    514.323    603.315    514.323    515.709    514.323
 89.470    607.000    604.642      2.358    514.190    603.284    514.190    515.613    514.190
 89.570    599.000    602.241     -3.241    514.056    600.843    514.056    515.517    514.056
 89.670    638.000    597.670     40.330    513.921    596.229    513.921    515.423    513.921
 89.770    586.885    591.404     -4.520    513.784    589.915    513.784    515.331    513.784
 89.870    598.112    584.030     14.083    513.646    582.488    513.646    515.240    513.646
 89.970    549.000    576.138    -27.138    513.506    574.539    513.506    515.152    513.506
 90.070    552.000    568.259    -16.259    513.366    566.597    513.366    515.066    513.366
 90.170    604.222    560.817     43.406    513.223    559.089    513.223    514.983    513.223
 90.270    517.000    554.120    -37.120    513.080    552.322    513.080    514.904    513.080
 90.370    480.000    548.355    -68.355    512.935    546.481    512.935    514.829    512.935
 90.470    498.273    543.601    -45.328    512.788    541.645    512.788    514.760    512.788
 90.570    541.000    539.845      1.155    512.641    537.800    512.641    514.697    512.641
 90.670    515.000    537.014    -22.014    512.492    534.871    512.492    514.643    512.492
 90.770    565.534    534.996     30.537    512.341    532.744    512.341    514.599    512.341
 90.870    552.592    533.668     18.924    512.190    531.292    512.190    514.569    512.190
 90.970    511.000    532.881    -21.881    512.037    530.363    512.037    514.556    512.037
 91.070    474.000    532.615    -58.615    511.883    529.932    511.883    514.566    511.883
 91.170    491.000    532.808    -41.808    511.727    529.928    511.727    514.606    511.727
 91.270    546.675    533.433     13.242    511.570    530.318    511.570    514.684    511.570
 91.370    576.375    534.524     41.852    511.412    531.122    511.412    514.811    511.412
 91.470    534.000    536.159     -2.159    511.252    532.409    511.252    514.999    511.252
 91.570    547.000    538.466      8.534    511.092    534.287    511.092    515.265    511.092
 91.670    559.000    541.614     17.386    510.929    536.909    510.929    515.627    510.929
 91.770    527.000    545.811    -18.811    510.766    540.465    510.766    516.103    510.766
 91.870    531.000    551.299    -20.299    510.602    545.173    510.602    516.715    510.602
 91.970    515.661    558.323    -42.662    510.436    551.259    510.436    517.483    510.436
 92.070    553.067    567.120    -14.054    510.269    558.940    510.269    518.428    510.269
 92.170    584.000    577.890      6.110    510.100    568.398    510.100    519.566    510.100
 92.270    623.000    590.765     32.235    509.931    579.755    509.931    520.908    509.931
 92.370    646.060    605.779     40.282    509.760    593.041    509.760    522.459    509.760
 92.470    586.394    622.842    -36.448    509.588    608.171    509.588    524.213    509.588
 92.570    619.000    641.719    -22.719    509.415    624.928    509.415    526.153    509.415
 92.670    651.000    662.015    -11.015    509.240    642.947    509.240    528.248    509.240
 92.770    664.815    683.173    -18.359    509.065    661.723    509.065    530.449    509.065
 92.870    714.000    704.497      9.503    508.888    680.624    508.888    532.690    508.888
 92.970    735.556    725.197     10.359    508.710    698.951    508.710    534.881    508.710
 93.070    767.000    744.502     22.498    508.531    716.044    508.531    536.912    508.531
 93.170    829.000    761.790     67.210    508.350    731.407    508.350    538.654    508.350
 93.270    818.000    776.678     41.322    508.169    744.799    508.169    539.970    508.169
 93.370    803.000    789.083     13.917    507.986    756.258    507.986    540.735    507.986
 93.470    762.000    799.166    -37.166    507.803    766.034    507.803    540.860    507.803
 93.570    833.000    807.246     25.754    507.618    774.475    507.618    540.316    507.618
 93.670    819.000    813.738      5.262    507.432    781.957    507.432    539.143    507.432
 93.770    808.000    819.134    -11.134    507.245    788.877    507.245    537.435    507.245
 93.870    857.465    824.019     33.446    507.056    795.691    507.056    535.320    507.056
 93.970    845.748    829.055     16.694    506.867    802.924    506.867    532.936    506.867
 94.070    865.000    834.888     30.112    506.677    811.096    506.677    530.409    506.677
 94.170    858.000    841.992     16.008    506.485    820.572    506.485    527.847    506.485
 94.270    863.000    850.495     12.505    506.293    831.394    506.293    525.337    506.293
 94.370    834.570    860.072    -25.502    506.099    843.175    506.099    522.942    506.099
 94.470    893.000    869.928     23.072    505.905    855.073    505.905    520.708    505.905
 94.570    885.000    878.849      6.151    505.709    865.847    505.709    518.664    505.709
 94.670    858.000    885.346    -27.346    505.513    873.990    505.513    516.827    505.513
 94.770    886.248    887.865     -1.618    505.315    877.947    505.315    515.199    505.315
 94.870    955.000    885.087     69.913    505.117    876.402    505.117    513.776    505.117
 94.970    894.829    876.233     18.596    504.917    868.588    504.917    512.545    504.917
 95.070    899.439    861.278     38.161    504.717    854.496    504.717    511.489    504.717
 95.170    847.697    840.971      6.726    504.515    834.895    504.515    510.589    504.515
 95.270    829.000    816.674     12.326    504.313    811.166    504.313    509.824    504.313
 95.370    826.151    790.111     36.040    504.109    785.055    504.109    509.173    504.109
 95.470    803.348    763.144     40.204    503.905    758.441    503.905    508.617    503.905
 95.570    699.000    737.663    -38.663    503.700    733.234    503.700    508.138    503.700
 95.670    742.805    715.420     27.385    503.494    711.200    503.494    507.723    503.494
 95.770    720.000    698.006     21.994    503.287    693.940    503.287    507.357    503.287
 95.870    669.083    686.826    -17.743    503.079    682.874    503.079    507.031    503.079
 95.970    632.588    683.095    -50.507    502.871    679.221    502.871    506.737    502.871
 96.070    723.161    687.832     35.329    502.661    684.009    502.661    506.469    502.661
 96.170    694.000    701.864     -7.864    502.451    698.069    502.451    506.221    502.451
 96.270    691.000    725.803    -34.803    502.240    722.016    502.240    505.991    502.240
 96.370    757.512    760.003     -2.491    502.028    756.209    502.028    505.776    502.028
 96.470    753.291    804.484    -51.193    501.815    800.667    501.815    505.575    501.815
 96.570    863.205    858.830      4.375    501.601    854.979    501.601    505.385    501.601
 96.670    903.000    922.093    -19.093    501.387    918.195    501.387    505.206    501.387
 96.770   1002.000    992.696      9.304    501.172    988.741    501.172    505.038    501.172
 96.870   1085.000   1068.384     16.616    500.956   1064.364    500.956    504.880    500.956
 96.970   1115.524   1146.198    -30.674    500.740   1142.105    500.740    504.733    500.740
 97.070   1258.000   1222.530     35.470    500.523   1218.356    500.523    504.597    500.523
 97.170   1288.000   1293.246     -5.246    500.305   1288.983    500.305    504.472    500.305
 97.270   1349.000   1353.938     -4.938    500.086   1349.579    500.086    504.358    500.086
 97.370   1403.420   1400.340      3.080    499.867   1395.877    499.867    504.257    499.867
 97.470   1375.305   1428.924    -53.619    499.647   1424.346    499.647    504.170    499.647
 97.570   1427.000   1437.531    -10.531    499.426   1432.826    499.426    504.097    499.426
 97.670   1392.891   1425.805    -32.914    499.205   1420.958    499.205    504.041    499.205
 97.770   1377.000   1395.215    -18.215    498.984   1390.204    498.984    504.003    498.984
 97.870   1297.000   1348.669    -51.669    498.761   1343.470    498.761    503.987    498.761
 97.970   1254.000   1289.956    -35.956    498.538   1284.539    498.538    503.996    498.538
 98.070   1196.912   1223.219    -26.307    498.315   1217.550    498.315    504.035    498.315
 98.170   1166.000   1152.578     13.422    498.091   1146.615    498.091    504.111    498.091
 98.270   1017.011   1081.882    -64.871    497.867   1075.575    497.867    504.232    497.867
 98.370   1024.878   1014.557     10.321    497.642   1007.846    497.642    504.410    497.642
 98.470    957.064    953.521      3.543    497.416    946.331    497.416    504.658    497.416
 98.570    929.000    901.163     27.837    497.190    893.402    497.190    504.996    497.190
 98.670    818.000    859.359    -41.359    496.964    850.912    496.964    505.447    496.964
 98.770    808.000    829.531    -21.531    496.737    820.256    496.737    506.039    496.737
 98.870    763.357    812.715    -49.358    496.510    802.433    496.510    506.809    496.510
 98.970    815.000    809.629      5.371    496.282    798.122    496.282    507.796    496.282
 99.070    809.000    820.782    -11.782    496.054    807.785    496.054    509.050    496.054
 99.170    830.630    846.454    -15.825    495.825    831.646    495.825    510.624    495.825
 99.270    903.000    886.703     16.297    495.597    869.705    495.597    512.578    495.597
 99.370    888.600    941.342    -52.742    495.368    921.713    495.368    514.975    495.368
 99.470   1057.000   1009.856     47.144    495.138    987.091    495.138    517.879    495.138
 99.570   1110.243   1091.311     18.931    494.908   1064.847    494.908    521.350    494.908
 99.670   1181.000   1184.261     -3.261    494.678   1153.481    494.678    525.440    494.678
 99.770   1215.232   1286.659    -71.428    494.448   1250.906    494.448    530.189    494.448
 99.870   1453.000   1395.800     57.200    494.218   1354.396    494.218    535.621    494.218
 99.970   1499.000   1508.312     -9.312    493.987   1460.580    493.987    541.735    493.987
100.070   1709.000   1620.237     88.763    493.756   1565.527    493.756    548.501    493.756
100.170   1770.721   1727.223     43.498    493.525   1664.950    493.525    555.856    493.525
100.270   1884.000   1824.854     59.146    493.294   1754.535    493.294    563.696    493.294
100.370   1940.744   1909.045     31.699    493.062   1830.343    493.062    571.876    493.062
100.470   1995.000   1976.382     18.618    492.831   1889.152    492.831    580.200    492.831
100.570   2034.000   2024.280      9.720    492.599   1928.624    492.599    588.419    492.599
100.670   2107.000   2050.977     56.023    492.368   1947.299    492.368    596.231    492.368
100.770   2124.944   2055.488     69.455    492.136   1944.539    492.136    603.289    492.136
100.870   2009.114   2037.695    -28.581    491.904   1920.606    491.904    609.211    491.904
100.970   2019.000   1998.570     20.430    491.672   1876.847    491.672    613.622    491.672
101.070   1938.000   1940.395     -2.395    491.441   1815.868    491.441    616.198    491.441
101.170   1927.000   1866.751     60.249    491.209   1741.461    491.209    616.725    491.209
101.270   1718.000   1782.198    -64.198    490.977   1658.249    490.977    615.145    490.977
101.370   1686.000   1691.735     -5.735    490.745   1571.124    490.745    611.563    490.745
101.470   1656.658   1600.236     56.422    490.514   1484.712    490.514    606.231    490.514
101.570   1482.000   1511.998    -29.998    490.282   1402.964    490.282    599.492    490.282
101.670   1476.000   1430.443     45.557    490.051   1328.924    490.051    591.729    490.051
101.770   1295.281   1357.980    -62.699    489.820   1264.625    489.820    583.317    489.820
101.870   1304.628   1295.955      8.673    489.589   1211.078    489.589    574.592    489.589
101.970   1212.191   1244.687    -32.496    489.358   1168.317    489.358    565.841    489.358
102.070   1200.019   1203.564     -3.545    489.127   1135.497    489.127    557.297    489.127
102.170   1130.996   1171.171    -40.175    488.897   1111.022    488.897    549.139    488.897
102.270   1128.000   1145.472    -17.472    488.667   1092.725    488.667    541.503    488.667
102.370   1095.000   1124.033    -29.033    488.437   1078.077    488.437    534.478    488.437
102.470   1060.000   1104.285    -44.285    488.208   1064.459    488.208    528.119    488.208
102.570   1122.000   1083.842     38.158    487.979   1049.461    487.979    522.444    487.979
102.670   1060.000   1060.797     -0.797    487.750   1031.185    487.750    517.448    487.750
102.770   1053.649   1033.957     19.691    487.522   1008.463    487.522    513.103    487.522
102.870    953.000   1002.914    -49.914    487.294    980.931    487.294    509.363    487.294
102.970    976.178    967.959      8.219    487.066    948.937    487.066    506.173    487.066
103.070    902.000    929.892    -27.892    486.839    913.342    486.839    503.472    486.839
103.170    926.711    889.806     36.905    486.612    875.301    486.612    501.196    486.612
103.270    796.000    848.898    -52.898    486.386    836.074    486.386    499.284    486.386
103.370    791.000    808.342    -17.342    486.161    796.893    486.161    497.677    486.161
103.470    747.132    769.199    -22.066    485.936    758.873    485.936    496.322    485.936
103.570    775.000    732.356     42.644    485.712    722.948    485.712    495.174    485.712
103.670    714.000    698.496     15.504    485.488    689.838    485.488    494.192    485.488
103.770    644.358    668.080    -23.722    485.265    660.040    485.265    493.344    485.265
103.870    625.000    641.353    -16.353    485.042    633.827    485.042    492.602    485.042
103.970    623.853    618.353      5.500    484.820    611.257    484.820    491.945    484.820
104.070    573.000    598.971    -25.971    484.599    592.238    484.599    491.354    484.599
104.170    600.000    582.955     17.045    484.379    576.535    484.379    490.817    484.379
104.270    565.737    569.973     -4.236    484.159    563.822    484.159    490.324    484.159
104.370    578.000    559.647     18.353    483.941    553.732    483.941    489.866    483.941
104.470    516.829    551.592    -34.763    483.723    545.885    483.723    489.437    483.723
104.570    514.468    545.440    -30.972    483.505    539.918    483.505    489.033    483.505
104.670    546.000    540.859      5.141    483.289    535.501    483.289    488.650    483.289
104.770    538.000    537.565      0.435    483.074    532.354    483.074    488.286    483.074
104.870    561.000    535.331     25.669    482.859    530.252    482.859    487.938    482.859
104.970    499.435    533.985    -34.549    482.646    529.025    482.646    487.604    482.646
105.070    540.349    533.409      6.939    482.434    528.556    482.434    487.284    482.434
105.170    568.000    533.539     34.461    482.222    528.780    482.222    486.977    482.222
105.270    538.000    534.352      3.648    482.012    529.677    482.012    486.680    482.012
105.370    561.334    535.868     25.466    481.803    531.268    481.803    486.395    481.803
105.470    542.000    538.141      3.859    481.594    533.607    481.594    486.119    481.594
105.570    548.000    541.252      6.748    481.387    536.774    481.387    485.853    481.387
105.670    539.000    545.295     -6.295    481.181    540.867    481.181    485.596    481.181
105.770    534.000    550.372    -16.372    480.977    545.985    480.977    485.347    480.977
105.870    585.000    556.572     28.428    480.773    552.220    480.773    485.107    480.773
105.970    601.994    563.963     38.032    480.571    559.637    480.571    484.874    480.571
106.070    525.945    572.569    -46.624    480.370    568.264    480.370    484.649    480.370
106.170    586.000    582.365      3.635    480.170    578.075    480.170    484.432    480.170
106.270    555.496    593.266    -37.769    479.972    588.985    479.972    484.221    479.972
106.370    577.000    605.117    -28.117    479.775    600.839    479.775    484.018    479.775
106.470    619.000    617.696      1.304    479.579    613.416    479.579    483.821    479.579
106.570    628.000    630.714     -2.714    479.385    626.427    479.385    483.632    479.385
106.670    685.446    643.823     41.623    479.193    639.524    479.193    483.449    479.193
106.770    625.000    656.623    -31.623    479.002    652.308    479.002    483.272    479.002
106.870    662.000    668.689     -6.689    478.812    664.353    478.812    483.103    478.812
106.970    659.000    679.588    -20.588    478.624    675.227    478.624    482.940    478.624
107.070    683.381    688.926     -5.545    478.438    684.536    478.438    482.783    478.438
107.170    726.288    696.391     29.897    478.253    691.967    478.253    482.634    478.253
107.270    718.660    701.803     16.857    478.070    697.342    478.070    482.491    478.070
107.370    712.617    705.158      7.458    477.888    700.656    477.888    482.355    477.888
107.470    708.000    706.632      1.368    477.708    702.083    477.708    482.226    477.708
107.570    686.677    706.554    -19.877    477.530    701.953    477.530    482.103    477.530
107.670    757.343    705.351     51.992    477.354    700.694    477.354    481.989    477.354
107.770    641.000    703.486    -62.486    477.180    698.766    477.180    481.881    477.180
107.870    714.000    701.395     12.605    477.007    696.607    477.007    481.781    477.007
107.970    729.000    699.446     29.554    476.837    694.584    476.837    481.688    476.837
108.070    666.000    697.907    -31.907    476.668    692.964    476.668    481.604    476.668
108.170    657.000    696.926    -39.926    476.501    691.897    476.501    481.528    476.501
108.270    648.566    696.528    -47.962    476.337    691.406    476.337    481.460    476.337
108.370    689.000    696.609     -7.609    476.174    691.387    476.174    481.401    476.174
108.470    661.000    696.950    -35.950    476.013    691.621    476.013    481.351    476.013
108.570    681.000    697.232    -16.232    475.855    691.788    475.855    481.311    475.855
108.670    712.000    697.070     14.930    475.699    691.502    475.699    481.281    475.699
108.770    674.782    696.055    -21.273    475.544    690.356    475.544    481.261    475.544
108.870    723.000    693.812     29.188    475.392    687.972    475.392    481.252    475.392
108.970    653.000    690.050    -37.050    475.243    684.061    475.243    481.254    475.243
109.070    684.000    684.616     -0.616    475.095    678.467    475.095    481.268    475.095
109.170    632.154    677.505    -45.351    474.950    671.185    474.950    481.294    474.950
109.270    691.000    668.856     22.144    474.807    662.354    474.807    481.334    474.807
109.370    683.000    658.918     24.082    474.667    652.222    474.667    481.388    474.667
109.470    632.992    647.989    -14.997    474.529    641.085    474.529    481.457    474.529
109.570    652.000    636.448     15.552    474.393    629.322    474.393    481.541    474.393
109.670    623.305    624.663     -1.359    474.260    617.302    474.260    481.643    474.260
109.770    603.000    612.949     -9.949    474.130    605.335    474.130    481.763    474.130
109.870    617.924    601.599     16.324    474.002    593.715    474.002    481.903    474.002
109.970    637.341    590.868     46.474    473.877    582.695    473.877    482.064    473.877
110.070    601.000    580.958     20.042    473.754    572.476    473.754    482.250    473.754
110.170    587.000    572.022     14.978    473.634    563.206    473.634    482.461    473.634
110.270    609.207    564.158     45.049    473.517    554.982    473.517    482.702    473.517
110.370    550.000    557.418     -7.418    473.403    547.851    473.403    482.976    473.403
110.470    566.000    551.808     14.192    473.291    541.816    473.291    483.288    473.291
110.570    578.000    547.300     30.700    473.182    536.842    473.182    483.644    473.182
110.670    540.821    543.838     -3.017    473.077    532.866    473.077    484.050    473.077
110.770    536.000    541.348     -5.348    472.974    529.806    472.974    484.516    472.974
110.870    569.867    539.743     30.124    472.874    527.563    472.874    485.052    472.874
110.970    585.000    538.935     46.065    472.777    526.037    472.777    485.673    472.777
111.070    558.878    538.838     20.040    472.683    525.125    472.683    486.393    472.683
111.170    543.000    539.375      3.625    472.592    524.730    472.592    487.233    472.592
111.270    571.427    540.479     30.948    472.504    524.761    472.504    488.217    472.504
111.370    567.000    542.094     24.906    472.420    525.140    472.420    489.368    472.420
111.470    499.000    544.191    -45.191    472.339    525.794    472.339    490.728    472.339
111.570    535.000    546.745    -11.745    472.261    526.666    472.261    492.332    472.261
111.670    592.000    549.753     42.247    472.186    527.708    472.186    494.224    472.186
111.770    533.000    553.227    -20.227    472.115    528.881    472.115    496.452    472.115
111.870    547.000    557.197    -10.197    472.047    530.161    472.047    499.074    472.047
111.970    582.000    561.709     20.291    471.982    531.533    471.982    502.150    471.982
112.070    559.000    566.825     -7.825    471.921    532.993    471.921    505.744    471.921
112.170    539.869    572.618    -32.749    471.863    534.547    471.863    509.926    471.863
112.270    583.611    579.175      4.436    471.809    536.211    471.809    514.765    471.809
112.370    572.281    586.590    -14.309    471.759    538.009    471.759    520.332    471.759
112.470    584.000    594.961    -10.961    471.712    539.973    471.712    526.691    471.712
112.570    619.000    604.383     14.617    471.669    542.146    471.669    533.897    471.669
112.670    589.000    614.975    -25.975    471.630    544.580    471.630    542.015    471.630
112.770    600.000    626.835    -26.835    471.594    547.340    471.594    551.079    471.594
112.870    691.000    640.069     50.931    471.563    550.512    471.563    561.110    471.563
112.970    668.355    654.788     13.567    471.535    554.205    471.535    572.107    471.535
113.070    648.000    671.112    -23.112    471.511    558.563    471.511    584.049    471.511
113.170    660.000    689.179    -29.179    471.491    563.772    471.491    596.886    471.491
113.270    720.000    709.154     10.846    471.475    570.080    471.475    610.536    471.475
113.370    700.000    731.242    -31.242    471.463    577.808    471.463    624.883    471.463
113.470    747.000    755.709     -8.709    471.455    587.374    471.455    639.774    471.455
113.570    739.000    782.896    -43.896    471.451    599.312    471.451    655.016    471.451
113.670    814.000    813.247      0.753    471.452    614.303    471.452    670.372    471.452
113.770    828.288    847.333    -19.045    471.456    633.197    471.456    685.563    471.456
113.870    893.000    885.876      7.124    471.465    657.041    471.465    700.265    471.465
113.970    934.000    929.781      4.219    471.479    687.104    471.479    714.111    471.479
114.070    912.000    980.158    -68.158    471.496    724.896    471.496    726.703    471.496
114.170   1005.104   1038.357    -33.253    471.518    772.179    471.518    737.626    471.518
114.270   1111.000   1105.983      5.017    471.545    830.967    471.545    746.474    471.545
114.370   1131.000   1184.919    -53.919    471.576    903.504    471.576    752.882    471.576
114.470   1253.800   1277.318    -23.518    471.612    992.232    471.612    756.565    471.612
114.570   1427.000   1385.581     41.419    471.652   1099.721    471.652    757.349    471.652
114.670   1553.000   1512.285     40.715    471.697   1228.586    471.697    755.198    471.697
114.770   1686.000   1660.074     25.926    471.747   1381.365    471.747    750.218    471.747
114.870   1906.045   1831.497     74.548    471.801   1560.376    471.801    742.641    471.801
114.970   2086.000   2028.817     57.183    471.860   1767.553    471.860    732.796    471.860
115.070   2339.581   2253.789     85.792    471.924   2004.260    471.924    721.073    471.924
115.170   2572.000   2507.431     64.569    471.993   2271.104    471.993    707.888    471.993
115.270   2743.589   2789.815    -46.226    472.067   2567.747    472.067    693.649    472.067
115.370   3023.941   3099.874    -75.933    472.146   2892.740    472.146    678.740    472.146
115.470   3469.000   3435.258     33.742    472.230   3243.390    472.230    663.509    472.230
115.570   3752.000   3792.233    -40.233    472.320   3615.660    472.320    648.257    472.320
115.670   4095.213   4165.639    -70.426    472.414   4004.136    472.414    633.244    472.414
115.770   4637.839   4548.912     88.927    472.513   4402.041    472.513    618.683    472.513
115.870   4901.000   4934.165    -33.165    472.618   4801.318    472.618    604.748    472.618
115.970   5280.578   5312.348    -31.769    472.728   5192.782    472.728    591.574    472.728
116.070   5722.456   5673.465     48.991    472.844   5566.343    472.844    579.258    472.844
116.170   5986.000   6006.891    -20.891    472.965   5911.312    472.965    567.867    472.965
116.270   6427.619   6301.784    125.835    473.091   6216.808    473.091    557.437    473.091
116.370   6519.000   6547.621    -28.621    473.223   6472.299    473.223    547.978    473.223
116.470   6818.000   6734.862     83.138    473.361   6668.257    473.361    539.479    473.361
116.570   6744.693   6855.722   -111.030    473.504   6796.925    473.504    531.908    473.504
116.670   6787.963   6904.942   -116.979    473.653   6853.084    473.653    525.222    473.653
116.770   6823.000   6880.271    -57.271    473.807   6834.536    473.807    519.362    473.807
116.870   6632.802   6782.789   -149.986    473.968   6742.418    473.968    514.266    473.968
116.970   6534.137   6616.743    -82.606    474.134   6581.043    474.134    509.865    474.134
117.070   6409.000   6389.058     19.942    474.306   6357.401    474.306    506.090    474.306
117.170   6013.000   6108.625    -95.625    474.484   6080.448    474.484    502.870    474.484
117.270   5693.355   5785.541    -92.186    474.668   5760.348    474.668    500.139    474.668
117.370   5361.213   5430.418    -69.205    474.858   5407.773    474.858    497.833    474.858
117.470   4980.000   5053.810    -73.810    475.055   5033.338    475.055    495.895    475.055
117.570   4725.192   4665.779     59.413    475.257   4647.155    475.257    494.272    475.257
117.670   4294.701   4275.558     19.144    475.466   4258.508    475.466    492.917    475.466
117.770   3970.887   3891.316     79.571    475.681   3875.607    475.681    491.788    475.681
117.870   3563.498   3519.996     43.502    475.903   3505.433    475.903    490.851    475.903
117.970   3136.434   3167.228    -30.794    476.130   3153.648    476.130    490.074    476.130
118.070   2805.793   2837.300    -31.507    476.365   2824.569    476.365    489.432    476.365
118.170   2565.000   2533.207     31.793    476.605   2521.214    476.605    488.903    476.605
118.270   2279.000   2256.735     22.265    476.853   2245.389    476.853    488.469    476.853
118.370   2083.671   2008.590     75.081    477.107   1997.816    477.107    488.116    477.107
118.470   1843.365   1788.556     54.809    477.368   1778.293    477.368    487.831    477.368
118.570   1554.620   1595.660    -41.040    477.635   1585.856    477.635    487.606    477.635
118.670   1377.000   1428.346    -51.346    477.909   1418.960    477.909    487.432    477.909
118.770   1304.000   1284.641     19.359    478.191   1275.638    478.191    487.303    478.191
118.870   1150.716   1162.317    -11.600    478.479   1153.667    478.479    487.214    478.479
118.970   1119.644   1059.022     60.622    478.774   1050.700    478.774    487.162    478.774
119.070    939.652    972.404    -32.752    479.076    964.388    479.076    487.142    479.076
119.170    917.216    900.197     17.019    479.385    892.465    479.385    487.153    479.385
119.270    838.761    840.288     -1.527    479.702    832.823    479.702    487.192    479.702
119.370    786.000    790.762     -4.762    480.025    783.547    480.025    487.258    480.025
119.470    759.114    749.923      9.191    480.356    742.941    480.356    487.349    480.356
119.570    725.000    716.298      8.702    480.695    709.535    480.695    487.465    480.695
119.670    651.000    688.634    -37.634    481.040    682.073    481.040    487.606    481.040
119.770    653.000    665.877    -12.877    481.394    659.504    481.394    487.769    481.394
119.870    660.000    647.159     12.841    481.754    640.959    481.754    487.956    481.754
119.970    660.000    631.768     28.232    482.123    625.726    482.123    488.166    482.123
120.070    571.000    619.130    -48.130    482.499    613.231    482.499    488.399    482.499
120.170    614.000    608.785      5.215    482.883    603.014    482.883    488.654    482.883
120.270    584.000    600.367    -16.367    483.274    594.710    483.274    488.933    483.274
120.370    569.983    593.588    -23.605    483.673    588.027    483.673    489.236    483.673
120.470    576.000    588.219    -12.219    484.081    582.740    484.081    489.563    484.081
120.570    539.000    584.085    -45.085    484.496    578.670    484.496    489.914    484.496
120.670    575.000    581.044     -6.044    484.919    575.678    484.919    490.289    484.919
120.770    571.000    578.988     -7.988    485.351    573.654    485.351    490.690    485.351
120.870    586.000    577.831      8.169    485.790    572.511    485.790    491.117    485.790
120.970    543.000    577.504    -34.504    486.238    572.179    486.238    491.569    486.238
121.070    586.000    577.947      8.053    486.694    572.601    486.694    492.048    486.694
121.170    553.000    579.108    -26.108    487.159    573.723    487.159    492.553    487.159
121.270    603.000    580.941     22.059    487.632    575.499    487.632    493.085    487.632
121.370    583.000    583.395     -0.395    488.113    577.878    488.113    493.642    488.113
121.470    607.000    586.419     20.581    488.603    580.810    488.603    494.226    488.603
121.570    622.000    589.955     32.045    489.102    584.239    489.102    494.834    489.102
121.670    607.000    593.940     13.060    489.609    588.101    489.609    495.467    489.609
121.770    625.000    598.302     26.698    490.125    592.325    490.125    496.123    490.125
121.870    574.407    602.959    -28.553    490.650    596.833    490.650    496.800    490.650
121.970    561.817    607.823    -46.006    491.184    601.536    491.184    497.497    491.184
122.070    571.904    612.794    -40.890    491.727    606.339    491.727    498.211    491.727
122.170    607.000    617.767    -10.767    492.279    611.138    492.279    498.939    492.279
122.270    581.413    622.631    -41.218    492.840    615.826    492.840    499.679    492.840
122.370    583.000    627.272    -44.272    493.410    620.291    493.410    500.427    493.410
122.470    617.000    631.572    -14.572    493.989    624.421    493.989    501.180    493.989
122.570    666.000    635.423     30.577    494.578    628.111    494.578    501.932    494.578
122.670    626.000    638.723    -12.723    495.176    631.263    495.176    502.679    495.176
122.770    627.499    641.384    -13.885    495.783    633.795    495.783    503.417    495.783
122.870    642.000    643.341     -1.341    496.400    635.647    496.400    504.141    496.400
122.970    630.000    644.555    -14.555    497.027    636.783    497.027    504.846    497.027
123.070    693.000    645.011     47.989    497.663    637.193    497.663    505.528    497.663
123.170    656.000    644.723     11.277    498.309    636.895    498.309    506.184    498.309
123.270    675.211    643.730     31.482    498.965    635.929    498.965    506.813    498.965
123.370    639.000    642.088     -3.088    499.630    634.352    499.630    507.412    499.630
123.470    641.667    639.871      1.796    500.306    632.238    500.306    507.983    500.306
123.570    667.689    637.160     30.529    500.991    629.665    500.991    508.528    500.991
123.670    649.000    634.042     14.958    501.687    626.718    501.687    509.050    501.687
123.770    602.393    630.604    -28.211    502.393    623.481    502.393    509.552    502.393
123.870    631.000    626.932      4.068    503.109    620.035    503.109    510.040    503.109
123.970    602.000    623.105    -21.105    503.835    616.454    503.835    510.517    503.835
124.070    639.649    619.196     20.453    504.572    612.807    504.572    510.989    504.572
124.170    588.788    615.267    -26.479    505.319    609.151    505.319    511.460    505.319
124.270    660.220    611.372     48.848    506.077    605.536    506.077    511.935    506.077
124.370    594.000    607.550    -13.550    506.845    601.998    506.845    512.417    506.845
124.470    644.000    603.833     40.167    507.624    598.564    507.624    512.910    507.624
124.570    631.000    600.240     30.760    508.414    595.251    508.414    513.416    508.414
124.670    606.000    596.783      9.217    509.214    592.068    509.214    513.940    509.214
124.770    546.547    593.463    -46.917    510.025    589.016    510.025    514.483    510.025
124.870    588.000    590.278     -2.278    510.848    586.087    510.848    515.046    510.848
124.970    586.000    587.228     -1.228    511.681    583.284    511.681    515.632    511.681
