neutron_powder_diffraction_0076
R_wp: 4.695
Temperature (K): 774.491
Counts: 83325.00
Wavelength (Ã…): 2.52098
COMMENTS
Test file for demonstrating the .xyy file format in Reel1.0
END OF HEADER
   tth       Y_obs     Y_calc      Y_res    Background    Phase_1_Nuc    Phase_1_Mag    Phase_2_Nuc    Phase_2_Mag
  9.970    690.000    599.110     90.890    598.072    599.110    598.072    598.072    598.072
 10.070    557.963    599.914    -41.951    598.793    599.914    598.793    598.793    598.793
 10.170    625.030    600.716     24.314    599.500    600.716    599.500    599.500    599.500
 10.270    551.920    601.519    -49.599    600.194    601.518    600.194    600.194    600.194
 10.370    617.000    602.324     14.676    600.874    602.324    600.874    600.874    600.874
 10.470    679.000    603.137     75.863    601.541    603.136    601.541    601.541    601.541
 10.570    656.272    603.962     52.310    602.194    603.961    602.194    602.194    602.194
 10.670    655.000    604.806     50.194    602.834    604.804    602.834    602.834    602.834
 10.770    713.000    605.676    107.324    603.461    605.675    603.461    603.461    603.461
 10.870    628.000    606.584     21.416    604.075    606.583    604.075    604.075    604.075
 10.970    635.194    607.560     27.634    604.675    607.558    604.675    604.675    604.675
 11.070    642.352    608.717     33.635    605.263    608.715    605.263    605.263    605.263
 11.170    652.000    609.902     42.098    605.838    609.900    605.838    605.838    605.838
 11.270    643.000    611.200     31.800    606.401    611.198    606.401    606.401    606.401
 11.370    635.000    612.724     22.276    606.951    612.721    606.951    606.951    606.951
 11.470    659.572    614.624     44.948    607.488    614.620    607.488    607.488    607.488
 11.570    590.692    617.253    -26.561    608.013    617.248    608.013    608.013    608.013
 11.670    686.000    621.476     64.524    608.526    621.469    608.526    608.526    608.526
 11.770    610.600    629.165    -18.565    609.027    629.154    609.027    609.027    609.027
 11.870    654.000    643.414     10.586    609.515    643.395    609.515    609.515    609.515
 11.970    679.000    667.437     11.563    609.992    667.406    609.992    609.992    609.992
 12.070    645.948    701.348    -55.400    610.457    701.298    610.457    610.457    610.457
 12.170    736.000    737.216     -1.216    610.909    737.145    610.909    610.909    610.909
 12.270    698.000    756.455    -58.455    611.351    756.374    611.351    611.351    611.351
 12.370    761.000    744.631     16.369    611.780    744.557    611.780    611.780    611.780
 12.470    671.000    711.945    -40.945    612.198    711.889    612.198    612.198    612.198
 12.570    714.000    677.563     36.437    612.605    677.527    612.605    612.605    612.605
 12.670    653.000    651.891      1.109    613.001    651.869    613.001    613.001    613.001
 12.770    619.000    636.357    -17.357    613.385    636.344    613.385    613.385    613.385
 12.870    633.000    628.200      4.800    613.758    628.192    613.758    613.758    613.758
 12.970    605.000    624.169    -19.169    614.120    624.164    614.120    614.120    614.120
 13.070    681.233    622.105     59.128    614.471    622.101    614.471    614.471    614.471
 13.170    561.000    620.936    -59.936    614.811    620.933    614.811    614.811    614.811
 13.270    605.000    620.214    -15.214    615.141    620.211    615.141    615.141    615.141
 13.370    605.000    619.751    -14.751    615.460    619.749    615.460    615.460    615.460
 13.470    553.000    619.459    -66.459    615.768    619.457    615.768    615.768    615.768
 13.570    562.000    619.290    -57.290    616.066    619.288    616.066    616.066    616.066
 13.670    631.000    619.226     11.774    616.353    619.225    616.353    616.353    616.353
 13.770    619.000    619.200     -0.200    616.630    619.199    616.630    616.630    616.630
 13.870    622.000    619.217      2.783    616.897    619.216    616.897    616.897    616.897
 13.970    668.388    619.266     49.123    617.154    619.265    617.154    617.154    617.154
 14.070    582.043    619.338    -37.295    617.401    619.337    617.401    617.401    617.401
 14.170    615.949    619.427     -3.478    617.638    619.427    617.638    617.638    617.638
 14.270    601.000    619.529    -18.529    617.865    619.528    617.865    617.865    617.865
 14.370    578.000    619.638    -41.638    618.082    619.638    618.082    618.082    618.082
 14.470    629.000    619.756      9.244    618.289    619.755    618.289    618.289    618.289
 14.570    648.000    619.875     28.125    618.487    619.875    618.487    618.487    618.487
 14.670    641.000    619.994     21.006    618.676    619.993    618.676    618.676    618.676
 14.770    609.000    620.111    -11.111    618.855    620.110    618.855    618.855    618.855
 14.870    628.662    620.226      8.436    619.024    620.226    619.024    619.024    619.024
 14.970    639.225    620.338     18.886    619.185    620.338    619.185    619.185    619.185
 15.070    634.574    620.447     14.127    619.336    620.447    619.336    619.336    619.336
 15.170    602.019    620.552    -18.532    619.478    620.551    619.478    619.478    619.478
 15.270    595.000    620.651    -25.651    619.611    620.651    619.611    619.611    619.611
 15.370    617.000    620.747     -3.747    619.735    620.747    619.735    619.735    619.735
 15.470    600.000    620.841    -20.841    619.851    620.840    619.851    619.851    619.851
 15.570    584.000    620.967    -36.967    619.957    620.967    619.957    619.957    619.957
 15.670    567.000    621.083    -54.083    620.055    621.083    620.055    620.055    620.055
 15.770    620.000    621.157     -1.157    620.145    621.157    620.145    620.145    620.145
 15.870    604.000    621.221    -17.221    620.226    621.221    620.226    620.226    620.226
 15.970    563.000    621.279    -58.279    620.298    621.279    620.298    620.298    620.298
 16.070    621.924    621.330      0.593    620.362    621.330    620.362    620.362    620.362
 16.170    611.231    621.378    -10.147    620.418    621.378    620.418    620.418    620.418
 16.270    579.000    621.420    -42.420    620.466    621.420    620.466    620.466    620.466
 16.370    634.000    621.455     12.545    620.505    621.455    620.505    620.505    620.505
 16.470    617.645    621.522     -3.878    620.537    621.522    620.537    620.537    620.537
 16.570    618.735    621.565     -2.830    620.560    621.565    620.560    620.560    620.560
 16.670    582.382    621.590    -39.208    620.576    621.590    620.576    620.576    620.576
 16.770    563.000    621.595    -58.595    620.584    621.595    620.584    620.584    620.584
 16.870    663.000    621.592     41.408    620.584    621.592    620.584    620.584    620.584
 16.970    629.559    621.582      7.977    620.577    621.582    620.577    620.577    620.577
 17.070    606.777    621.565    -14.788    620.562    621.565    620.562    620.562    620.562
 17.170    574.056    621.542    -47.486    620.540    621.541    620.540    620.540    620.540
 17.270    576.000    621.511    -45.511    620.510    621.511    620.510    620.510    620.510
 17.370    606.000    621.475    -15.475    620.473    621.475    620.473    620.473    620.473
 17.470    607.000    621.444    -14.444    620.428    621.444    620.428    620.428    620.428
 17.570    582.000    621.413    -39.413    620.377    621.412    620.377    620.377    620.377
 17.670    592.598    621.369    -28.770    620.318    621.369    620.318    620.318    620.318
 17.770    558.000    621.307    -63.307    620.253    621.307    620.253    620.253    620.253
 17.870    591.000    621.237    -30.237    620.180    621.237    620.180    620.180    620.180
 17.970    563.000    621.161    -58.161    620.100    621.161    620.100    620.100    620.100
 18.070    663.747    621.079     42.668    620.014    621.079    620.014    620.014    620.014
 18.170    581.007    620.991    -39.984    619.921    620.991    619.921    619.921    619.921
 18.270    581.834    620.910    -39.076    619.821    620.910    619.821    619.821    619.821
 18.370    603.000    620.850    -17.850    619.715    620.850    619.715    619.715    619.715
 18.470    613.230    620.765     -7.535    619.602    620.765    619.602    619.602    619.602
 18.570    609.000    620.654    -11.654    619.483    620.654    619.483    619.483    619.483
 18.670    601.000    620.536    -19.536    619.358    620.536    619.358    619.358    619.358
 18.770    602.000    620.414    -18.414    619.226    620.414    619.226    619.226    619.226
 18.870    541.000    620.308    -79.308    619.088    620.307    619.088    619.088    619.088
 18.970    586.000    620.234    -34.234    618.943    620.233    618.943    618.943    618.943
 19.070    616.000    620.126     -4.126    618.793    620.126    618.793    618.793    618.793
 19.170    563.000    619.995    -56.995    618.637    619.995    618.637    618.637    618.637
 19.270    615.000    619.851     -4.851    618.475    619.851    618.475    618.475    618.475
 19.370    562.000    619.695    -57.695    618.306    619.695    618.306    618.306    618.306
 19.470    572.000    619.533    -47.533    618.132    619.533    618.132    618.132    618.132
 19.570    658.111    619.378     38.734    617.953    619.378    617.953    617.953    617.953
 19.670    581.623    619.245    -37.621    617.767    619.245    617.767    617.767    617.767
 19.770    625.112    619.074      6.038    617.576    619.074    617.576    617.576    617.576
 19.870    573.482    618.893    -45.410    617.380    618.893    617.380    617.380    617.380
 19.970    606.000    618.709    -12.709    617.178    618.709    617.178    617.178    617.178
 20.070    653.165    618.524     34.641    616.971    618.524    616.971    616.971    616.971
 20.170    577.651    618.332    -40.681    616.758    618.332    616.758    616.758    616.758
 20.270    569.000    618.139    -49.139    616.540    618.139    616.540    616.540    616.540
 20.370    626.457    617.935      8.523    616.317    617.935    616.317    616.317    616.317
 20.470    575.000    617.726    -42.726    616.088    617.726    616.088    616.088    616.088
 20.570    633.000    617.516     15.484    615.855    617.516    615.855    615.855    615.855
 20.670    580.000    617.303    -37.303    615.616    617.303    615.616    615.616    615.616
 20.770    601.293    617.084    -15.791    615.373    617.084    615.373    615.373    615.373
 20.870    628.000    616.861     11.139    615.125    616.861    615.125    615.125    615.125
 20.970    575.000    616.633    -41.633    614.872    616.633    614.872    614.872    614.872
 21.070    568.000    616.402    -48.402    614.614    616.402    614.614    614.614    614.614
 21.170    600.000    616.168    -16.168    614.351    616.168    614.351    614.351    614.351
 21.270    560.863    615.932    -55.068    614.084    615.932    614.084    614.084    614.084
 21.370    600.161    615.691    -15.530    613.812    615.691    613.812    613.812    613.812
 21.470    625.882    615.448     10.434    613.536    615.448    613.536    613.536    613.536
 21.570    636.368    615.202     21.166    613.255    615.202    613.255    613.255    613.255
 21.670    554.000    614.953    -60.953    612.970    614.954    612.970    612.970    612.970
 21.770    576.000    614.703    -38.703    612.681    614.704    612.681    612.681    612.681
 21.870    595.000    614.452    -19.452    612.387    614.452    612.387    612.387    612.387
 21.970    629.620    614.199     15.420    612.090    614.199    612.090    612.090    612.090
 22.070    553.480    613.946    -60.466    611.787    613.946    611.787    611.787    611.787
 22.170    552.000    613.693    -61.693    611.481    613.693    611.481    611.481    611.481
 22.270    574.814    613.440    -38.626    611.171    613.440    611.171    611.171    611.171
 22.370    605.722    613.188     -7.466    610.857    613.188    610.857    610.857    610.857
 22.470    634.000    612.937     21.063    610.539    612.937    610.539    610.539    610.539
 22.570    558.618    612.691    -54.072    610.217    612.691    610.217    610.217    610.217
 22.670    556.941    612.447    -55.506    609.892    612.447    609.892    609.892    609.892
 22.770    604.000    612.208     -8.208    609.562    612.208    609.562    609.562    609.562
 22.870    600.000    611.975    -11.975    609.229    611.976    609.229    609.229    609.229
 22.970    645.931    611.752     34.179    608.893    611.752    608.893    608.893    608.893
 23.070    604.000    611.539     -7.539    608.552    611.540    608.552    608.552    608.552
 23.170    577.804    611.342    -33.538    608.209    611.342    608.209    608.209    608.209
 23.270    621.404    611.163     10.241    607.861    611.164    607.861    607.861    607.861
 23.370    565.087    611.008    -45.921    607.511    611.009    607.511    607.511    607.511
 23.470    604.000    610.883     -6.883    607.157    610.884    607.157    607.157    607.157
 23.570    615.000    610.800      4.200    606.800    610.801    606.800    606.800    606.800
 23.670    648.000    610.770     37.230    606.439    610.771    606.439    606.439    606.439
 23.770    625.000    610.813     14.187    606.075    610.815    606.075    606.075    606.075
 23.870    666.000    610.957     55.043    605.709    610.959    605.709    605.709    605.709
 23.970    586.852    611.247    -24.395    605.339    611.249    605.339    605.339    605.339
 24.070    666.153    611.769     54.384    604.966    611.772    604.966    604.966    604.966
 24.170    665.000    612.720     52.280    604.590    612.724    604.590    604.590    604.590
 24.270    597.000    614.560    -17.560    604.211    614.565    604.211    604.211    604.211
 24.370    646.342    618.263     28.079    603.830    618.271    603.830    603.830    603.830
 24.470    683.000    625.486     57.514    603.445    625.500    603.445    603.445    603.445
 24.570    624.225    638.173    -13.948    603.058    638.196    603.058    603.058    603.058
 24.670    639.639    657.101    -17.462    602.668    657.138    602.668    602.668    602.668
 24.770    667.000    679.379    -12.379    602.276    679.432    602.276    602.276    602.276
 24.870    678.424    696.304    -17.880    601.881    696.369    601.881    601.881    601.881
 24.970    724.000    697.348     26.652    601.483    697.415    601.483    601.483    601.483
 25.070    697.000    681.437     15.563    601.083    681.492    601.083    601.083    601.083
 25.170    709.000    658.555     50.445    600.680    658.594    600.680    600.680    600.680
 25.270    672.000    638.248     33.752    600.275    638.273    600.275    600.275    600.275
 25.370    650.000    624.112     25.888    599.868    624.127    599.868    599.868    599.868
 25.470    650.343    615.686     34.657    599.458    615.694    599.458    599.458    599.458
 25.570    604.774    611.061     -6.286    599.046    611.066    599.046    599.046    599.046
 25.670    651.086    608.491     42.595    598.632    608.495    598.632    598.632    598.632
 25.770    646.000    606.911     39.089    598.215    606.914    598.215    598.215    598.215
 25.870    594.690    605.813    -11.124    597.797    605.816    597.797    597.797    597.797
 25.970    652.000    604.984     47.016    597.376    604.985    597.376    597.376    597.376
 26.070    642.000    604.332     37.668    596.954    604.333    596.954    596.954    596.954
 26.170    675.000    603.814     71.186    596.529    603.815    596.529    596.529    596.529
 26.270    671.000    603.407     67.593    596.103    603.407    596.103    596.103    596.103
 26.370    575.787    603.096    -27.309    595.675    603.097    595.675    595.675    595.675
 26.470    684.000    602.878     81.122    595.244    602.878    595.244    595.244    595.244
 26.570    625.000    602.752     22.248    594.812    602.751    594.812    594.812    594.812
 26.670    616.842    602.724     14.119    594.379    602.723    594.379    594.379    594.379
 26.770    671.000    602.805     68.195    593.943    602.805    593.943    593.943    593.943
 26.870    634.000    603.015     30.985    593.506    603.015    593.506    593.506    593.506
 26.970    638.000    603.380     34.620    593.068    603.379    593.068    593.068    593.068
 27.070    644.000    603.938     40.062    592.628    603.937    592.628    592.628    592.628
 27.170    563.124    604.742    -41.618    592.186    604.740    592.186    592.186    592.186
 27.270    665.000    605.871     59.129    591.743    605.869    591.743    591.743    591.743
 27.370    651.000    607.444     43.556    591.298    607.442    591.298    591.298    591.298
 27.470    644.390    609.667     34.723    590.852    609.664    590.852    590.852    590.852
 27.570    661.000    612.977     48.023    590.404    612.973    590.404    590.404    590.404
 27.670    696.000    618.464     77.536    589.956    618.457    589.956    589.956    589.956
 27.770    684.298    628.815     55.483    589.506    628.804    589.506    589.506    589.506
 27.870    726.000    649.604     76.396    589.055    649.585    589.055    589.055    589.055
 27.970    725.000    689.350     35.650    588.602    689.317    588.602    588.602    588.602
 28.070    824.000    755.486     68.514    588.149    755.434    588.149    588.149    588.149
 28.170    906.000    845.016     60.984    587.694    844.946    587.694    587.694    587.694
 28.270    982.000    933.361     48.639    587.238    933.283    587.238    587.238    587.238
 28.370   1021.522    974.289     47.233    586.782    974.221    586.782    586.782    586.782
 28.470   1006.000    941.390     64.610    586.324    941.339    586.324    586.324    586.324
 28.570    805.515    870.412    -64.896    585.865    870.376    585.865    585.865    585.865
 28.670    788.000    813.376    -25.376    585.406    813.348    585.406    585.406    585.406
 28.770    763.123    796.930    -33.807    584.946    796.905    584.946    584.946    584.946
 28.870    852.313    819.684     32.630    584.484    819.660    584.484    584.484    584.484
 28.970    791.329    857.411    -66.081    584.022    857.395    584.022    584.022    584.022
 29.070    966.000    871.835     94.165    583.560    871.831    583.560    583.560    583.560
 29.170    788.428    839.667    -51.240    583.096    839.671    583.096    583.096    583.096
 29.270    733.384    777.957    -44.572    582.632    777.963    582.632    582.632    582.632
 29.370    741.000    715.555     25.445    582.167    715.560    582.167    582.167    582.167
 29.470    746.000    667.692     78.308    581.702    667.695    581.702    581.702    581.702
 29.570    674.644    636.846     37.797    581.236    636.847    581.236    581.236    581.236
 29.670    697.000    619.123     77.877    580.770    619.123    580.770    580.770    580.770
 29.770    656.599    609.362     47.237    580.303    609.361    580.303    580.303    580.303
 29.870    665.262    603.745     61.517    579.836    603.743    579.836    579.836    579.836
 29.970    692.000    600.188     91.812    579.368    600.186    579.368    579.368    579.368
 30.070    713.000    597.760    115.240    578.900    597.758    578.900    578.900    578.900
 30.170    623.211    596.105     27.105    578.431    596.102    578.431    578.431    578.431
 30.270    718.000    595.156    122.844    577.962    595.152    577.962    577.962    577.962
 30.370    601.935    595.085      6.850    577.493    595.081    577.493    577.493    577.493
 30.470    682.000    596.383     85.617    577.024    596.376    577.024    577.024    577.024
 30.570    642.000    599.916     42.084    576.555    599.905    576.555    576.555    576.555
 30.670    606.929    606.759      0.169    576.085    606.743    576.085    576.085    576.085
 30.770    715.000    617.597     97.403    575.615    617.572    575.615    575.615    575.615
 30.870    667.000    631.661     35.339    575.145    631.626    575.145    575.145    575.145
 30.970    658.399    645.375     13.024    574.675    645.331    574.675    574.675    574.675
 31.070    731.000    652.083     78.917    574.205    652.036    574.205    574.205    574.205
 31.170    734.000    647.041     86.959    573.735    646.999    573.735    573.735    573.735
 31.270    682.000    633.333     48.667    573.265    633.301    573.265    573.265    573.265
 31.370    681.000    617.651     63.349    572.795    617.630    572.795    572.795    572.795
 31.470    564.322    604.437    -40.115    572.325    604.423    572.325    572.325    572.325
 31.570    644.000    595.102     48.898    571.856    595.093    571.856    571.856    571.856
 31.670    624.000    589.244     34.756    571.386    589.238    571.386    571.386    571.386
 31.770    655.000    585.802     69.198    570.917    585.798    570.917    570.917    570.917
 31.870    546.942    583.785    -36.843    570.448    583.782    570.448    570.448    570.448
 31.970    641.000    582.543     58.457    569.979    582.540    569.979    569.979    569.979
 32.070    553.000    581.732    -28.732    569.510    581.729    569.510    569.510    569.510
 32.170    597.000    581.198     15.802    569.042    581.195    569.042    569.042    569.042
 32.270    542.636    580.878    -38.241    568.574    580.876    568.574    568.574    568.574
 32.370    605.000    580.750     24.250    568.106    580.748    568.106    568.106    568.106
 32.470    576.000    580.815     -4.815    567.639    580.813    567.639    567.639    567.639
 32.570    585.000    581.085      3.915    567.172    581.083    567.172    567.172    567.172
 32.670    590.663    581.589      9.074    566.706    581.587    566.706    566.706    566.706
 32.770    642.000    582.370     59.630    566.240    582.368    566.240    566.240    566.240
 32.870    587.000    583.491      3.509    565.775    583.489    565.775    565.775    565.775
 32.970    577.159    585.049     -7.890    565.310    585.046    565.310    565.310    565.310
 33.070    648.000    587.186     60.814    564.845    587.183    564.845    564.845    564.845
 33.170    590.000    590.148     -0.148    564.382    590.145    564.382    564.382    564.382
 33.270    641.713    594.409     47.304    563.919    594.405    563.919    563.919    563.919
 33.370    572.900    600.958    -28.058    563.456    600.954    563.456    563.456    563.456
 33.470    620.000    611.830      8.170    562.995    611.823    562.995    562.995    562.995
 33.570    633.000    630.757      2.243    562.534    630.747    562.534    562.534    562.534
 33.670    634.000    663.442    -29.442    562.073    663.426    562.073    562.073    562.073
 33.770    687.000    716.447    -29.447    561.614    716.421    561.614    561.614    561.614
 33.870    744.000    793.870    -49.870    561.155    793.833    561.155    561.155    561.155
 33.970    905.725    891.669     14.056    560.697    891.620    560.697    560.697    560.697
 34.070   1008.000    990.270     17.730    560.240    990.215    560.240    560.240    560.240
 34.170   1044.000   1052.103     -8.103    559.784   1052.054    559.784    559.784    559.784
 34.270   1042.000   1043.588     -1.588    559.328   1043.555    559.328    559.328    559.328
 34.370    988.000    969.934     18.066    558.874    969.918    558.874    558.874    558.874
 34.470    805.000    868.371    -63.371    558.420    868.366    558.420    558.420    558.420
 34.570    771.217    772.987     -1.770    557.967    772.987    557.967    557.967    557.967
 34.670    644.641    699.638    -54.997    557.516    699.639    557.516    557.516    557.516
 34.770    602.000    650.224    -48.224    557.065    650.225    557.065    557.065    557.065
 34.870    610.000    619.813     -9.813    556.616    619.813    556.616    556.616    556.616
 34.970    607.000    601.865      5.135    556.167    601.865    556.167    556.167    556.167
 35.070    555.000    591.069    -36.069    555.719    591.068    555.719    555.719    555.719
 35.170    516.000    584.080    -68.080    555.273    584.079    555.273    555.273    555.273
 35.270    595.000    579.122     15.878    554.828    579.121    554.828    554.828    554.828
 35.370    579.000    575.335      3.665    554.384    575.334    554.384    554.384    554.384
 35.470    576.000    572.301      3.699    553.940    572.300    553.940    553.940    553.940
 35.570    558.000    569.798    -11.798    553.499    569.797    553.499    553.499    553.499
 35.670    582.000    567.690     14.310    553.058    567.689    553.058    553.058    553.058
 35.770    525.000    565.885    -40.885    552.619    565.884    552.619    552.619    552.619
 35.870    576.000    564.316     11.684    552.180    564.316    552.180    552.180    552.180
 35.970    553.341    562.937     -9.596    551.743    562.936    551.743    551.743    551.743
 36.070    582.000    561.710     20.290    551.308    561.710    551.308    551.308    551.308
 36.170    614.316    560.608     53.708    550.873    560.608    550.873    550.873    550.873
 36.270    531.000    559.611    -28.611    550.440    559.611    550.440    550.440    550.440
 36.370    556.531    558.703     -2.172    550.009    558.703    550.009    550.009    550.009
 36.470    587.053    557.872     29.181    549.578    557.872    549.578    549.578    549.578
 36.570    516.208    557.109    -40.902    549.149    557.109    549.149    549.149    549.149
 36.670    544.000    556.410    -12.410    548.722    556.410    548.722    548.722    548.722
 36.770    588.425    555.771     32.654    548.296    555.771    548.296    548.296    548.296
 36.870    522.000    555.196    -33.196    547.871    555.197    547.871    547.871    547.871
 36.970    528.000    554.697    -26.697    547.448    554.698    547.448    547.448    547.448
 37.070    527.208    554.308    -27.100    547.026    554.308    547.026    547.026    547.026
 37.170    529.000    554.104    -25.104    546.606    554.104    546.606    546.606    546.606
 37.270    596.830    554.232     42.598    546.187    554.233    546.187    546.187    546.187
 37.370    587.036    554.917     32.119    545.770    554.918    545.770    545.770    545.770
 37.470    505.085    556.409    -51.324    545.354    556.410    545.354    545.354    545.354
 37.570    562.086    558.836      3.250    544.940    558.839    544.940    544.940    544.940
 37.670    550.397    562.002    -11.605    544.528    562.005    544.528    544.528    544.528
 37.770    527.000    565.107    -38.107    544.117    565.112    544.117    544.117    544.117
 37.870    564.000    566.775     -2.775    543.707    566.781    543.707    543.707    543.707
 37.970    559.966    565.976     -6.010    543.300    565.984    543.300    543.300    543.300
 38.070    561.000    563.112     -2.112    542.894    563.122    542.894    542.894    542.894
 38.170    504.000    559.388    -55.388    542.489    559.399    542.489    542.489    542.489
 38.270    596.280    555.737     40.543    542.087    555.747    542.087    542.087    542.087
 38.370    510.289    552.632    -42.343    541.686    552.641    541.686    541.686    541.686
 38.470    530.000    550.233    -20.233    541.286    550.240    541.286    541.286    541.286
 38.570    503.000    548.480    -45.480    540.889    548.485    540.889    540.889    540.889
 38.670    579.176    547.211     31.964    540.493    547.215    540.493    540.493    540.493
 38.770    509.000    546.268    -37.268    540.099    546.270    540.099    540.099    540.099
 38.870    545.873    545.529      0.344    539.706    545.531    539.706    539.706    539.706
 38.970    535.000    544.917     -9.917    539.316    544.918    539.316    539.316    539.316
 39.070    594.886    544.383     50.503    538.927    544.384    538.927    538.927    538.927
 39.170    506.000    543.899    -37.899    538.540    543.900    538.540    538.540    538.540
 39.270    562.000    543.448     18.552    538.155    543.449    538.155    538.155    538.155
 39.370    506.992    543.022    -36.031    537.772    543.023    537.772    537.772    537.772
 39.470    505.000    542.617    -37.617    537.390    542.617    537.390    537.390    537.390
 39.570    523.000    542.228    -19.228    537.011    542.228    537.011    537.011    537.011
 39.670    546.000    541.854      4.146    536.633    541.855    536.633    536.633    536.633
 39.770    487.710    541.495    -53.785    536.257    541.495    536.257    536.257    536.257
 39.870    535.000    541.149     -6.149    535.883    541.149    535.883    535.883    535.883
 39.970    525.000    540.816    -15.816    535.511    540.817    535.511    535.511    535.511
 40.070    503.000    540.496    -37.496    535.141    540.497    535.141    535.141    535.141
 40.170    517.000    540.190    -23.190    534.773    540.191    534.773    534.773    534.773
 40.270    523.932    539.898    -15.966    534.407    539.899    534.407    534.407    534.407
 40.370    559.686    539.621     20.065    534.043    539.621    534.043    534.043    534.043
 40.470    471.000    539.360    -68.360    533.680    539.360    533.680    533.680    533.680
 40.570    484.534    539.116    -54.582    533.320    539.117    533.320    533.320    533.320
 40.670    542.520    538.892      3.628    532.962    538.893    532.962    532.962    532.962
 40.770    577.571    538.691     38.881    532.605    538.691    532.605    532.605    532.605
 40.870    519.000    538.515    -19.515    532.251    538.515    532.251    532.251    532.251
 40.970    553.000    538.368     14.632    531.899    538.369    531.899    531.899    531.899
 41.070    524.152    538.256    -14.104    531.548    538.257    531.548    531.548    531.548
 41.170    491.000    538.186    -47.186    531.200    538.187    531.200    531.200    531.200
 41.270    553.756    538.166     15.591    530.854    538.167    530.854    530.854    530.854
 41.370    488.882    538.208    -49.326    530.510    538.209    530.510    530.510    530.510
 41.470    487.647    538.327    -50.680    530.168    538.329    530.168    530.168    530.168
 41.570    530.000    538.546     -8.546    529.828    538.548    529.828    529.828    529.828
 41.670    501.030    538.900    -37.870    529.490    538.903    529.490    529.490    529.490
 41.770    519.884    539.449    -19.565    529.154    539.452    529.154    529.154    529.154
 41.870    500.000    540.309    -40.309    528.821    540.312    528.821    528.821    528.821
 41.970    513.677    541.709    -28.032    528.489    541.713    528.489    528.489    528.489
 42.070    531.054    544.080    -13.026    528.159    544.085    528.159    528.159    528.159
 42.170    505.911    548.146    -42.235    527.832    548.154    527.832    527.832    527.832
 42.270    538.000    554.947    -16.947    527.507    554.957    527.507    527.507    527.507
 42.370    518.139    565.655    -47.517    527.184    565.671    527.184    527.184    527.184
 42.470    540.000    581.117    -41.117    526.863    581.140    526.863    526.863    526.863
 42.570    569.000    601.114    -32.114    526.544    601.147    526.544    526.544    526.544
 42.670    592.000    623.432    -31.432    526.228    623.476    526.228    526.228    526.228
 42.770    614.000    642.927    -28.927    525.913    642.982    525.913    525.913    525.913
 42.870    600.000    652.216    -52.216    525.601    652.278    525.601    525.601    525.601
 42.970    678.499    646.640     31.858    525.291    646.702    525.291    525.291    525.291
 43.070    568.000    629.018    -61.018    524.983    629.073    524.983    524.983    524.983
 43.170    568.388    606.496    -38.109    524.678    606.540    524.678    524.678    524.678
 43.270    528.714    585.020    -56.306    524.374    585.052    524.374    524.374    524.374
 43.370    563.000    567.620     -4.620    524.073    567.643    524.073    524.073    524.073
 43.470    605.488    555.034     50.454    523.774    555.049    523.774    523.774    523.774
 43.570    548.000    546.664      1.336    523.477    546.675    523.477    523.477    523.477
 43.670    584.101    541.386     42.715    523.182    541.393    523.182    523.182    523.182
 43.770    503.282    538.095    -34.813    522.890    538.100    522.890    522.890    522.890
 43.870    549.025    535.970     13.055    522.600    535.974    522.600    522.600    522.600
 43.970    521.048    534.499    -13.452    522.312    534.502    522.312    522.312    522.312
 44.070    544.000    533.401     10.599    522.026    533.403    522.026    522.026    522.026
 44.170    522.583    532.530     -9.948    521.743    532.533    521.743    521.743    521.743
 44.270    548.000    531.814     16.186    521.462    531.816    521.462    521.462    521.462
 44.370    567.354    531.211     36.143    521.183    531.213    521.183    521.183    521.183
 44.470    521.000    530.696     -9.696    520.906    530.697    520.906    520.906    520.906
 44.570    561.000    530.253     30.747    520.632    530.254    520.632    520.632    520.632
 44.670    496.170    529.868    -33.698    520.360    529.869    520.360    520.360    520.360
 44.770    524.000    529.533     -5.533    520.090    529.534    520.090    520.090    520.090
 44.870    579.215    529.242     49.973    519.823    529.243    519.823    519.823    519.823
 44.970    560.000    528.989     31.011    519.557    528.990    519.557    519.557    519.557
 45.070    527.000    528.771     -1.771    519.294    528.772    519.294    519.294    519.294
 45.170    508.000    528.585    -20.585    519.034    528.585    519.034    519.034    519.034
 45.270    552.455    528.429     24.027    518.775    528.429    518.775    518.775    518.775
 45.370    547.000    528.301     18.699    518.519    528.301    518.519    518.519    518.519
 45.470    533.579    528.202      5.377    518.265    528.202    518.265    518.265    518.265
 45.570    582.848    528.132     54.717    518.014    528.132    518.014    518.014    518.014
 45.670    499.737    528.090    -28.354    517.764    528.090    517.764    517.764    517.764
 45.770    537.000    528.078      8.922    517.517    528.078    517.517    517.517    517.517
 45.870    533.000    528.098      4.902    517.273    528.097    517.273    517.273    517.273
 45.970    575.676    528.151     47.526    517.030    528.150    517.030    517.030    517.030
 46.070    503.830    528.240    -24.410    516.790    528.239    516.790    516.790    516.790
 46.170    525.000    528.369     -3.369    516.552    528.368    516.552    516.552    516.552
 46.270    561.527    528.543     32.984    516.317    528.542    516.317    516.317    516.317
 46.370    500.090    528.766    -28.677    516.084    528.765    516.084    516.084    516.084
 46.470    571.000    529.048     41.952    515.853    529.047    515.853    515.853    515.853
 46.570    553.000    529.397     23.603    515.624    529.395    515.624    515.624    515.624
 46.670    514.000    529.826    -15.826    515.398    529.824    515.398    515.398    515.398
 46.770    518.000    530.354    -12.354    515.174    530.353    515.174    515.174    515.174
 46.870    567.000    531.014     35.986    514.952    531.012    514.952    514.952    514.952
 46.970    540.000    531.859      8.141    514.733    531.856    514.733    514.733    514.733
 47.070    535.000    532.993      2.007    514.516    532.990    514.516    514.516    514.516
 47.170    538.000    534.603      3.397    514.301    534.599    514.301    514.301    514.301
 47.270    584.628    537.006     47.622    514.089    537.001    514.089    514.089    514.089
 47.370    569.000    540.677     28.323    513.879    540.669    513.879    513.879    513.879
 47.470    499.447    546.218    -46.771    513.671    546.206    513.671    513.671    513.671
 47.570    525.000    554.221    -29.221    513.465    554.203    513.465    513.465    513.465
 47.670    553.000    565.005    -12.005    513.262    564.979    513.262    513.262    513.262
 47.770    592.000    578.262     13.738    513.061    578.227    513.061    513.061    513.061
 47.870    581.408    592.639    -11.231    512.862    592.595    512.862    512.862    512.862
 47.970    591.000    605.394    -14.394    512.666    605.342    512.666    512.666    512.666
 48.070    596.000    612.807    -16.807    512.472    612.752    512.472    512.472    512.472
 48.170    644.000    612.334     31.666    512.280    612.281    512.280    512.280    512.280
 48.270    611.000    604.824      6.176    512.091    604.779    512.091    512.091    512.091
 48.370    622.000    593.700     28.300    511.904    593.664    511.904    511.904    511.904
 48.470    597.000    582.428     14.572    511.719    582.401    511.719    511.719    511.719
 48.570    605.000    573.214     31.786    511.536    573.195    511.536    511.536    511.536
 48.670    611.568    567.015     44.553    511.356    567.001    511.356    511.356    511.356
 48.770    598.033    563.940     34.092    511.178    563.931    511.178    511.178    511.178
 48.870    536.000    563.658    -27.658    511.002    563.651    511.002    511.002    511.002
 48.970    525.698    565.736    -40.038    510.828    565.730    510.828    510.828    510.828
 49.070    577.054    569.891      7.163    510.657    569.886    510.657    510.657    510.657
 49.170    553.000    576.185    -23.185    510.488    576.180    510.488    510.488    510.488
 49.270    580.110    585.271     -5.161    510.321    585.265    510.321    510.321    510.321
 49.370    590.000    598.896     -8.896    510.157    598.889    510.157    510.157    510.157
 49.470    615.000    620.845     -5.845    509.995    620.834    509.995    509.995    509.995
 49.570    621.000    658.316    -37.316    509.835    658.298    509.835    509.835    509.835
 49.670    724.000    723.192      0.808    509.677    723.161    509.677    509.677    509.677
 49.770    787.000    831.842    -44.842    509.522    831.792    509.522    509.522    509.522
 49.870    915.000   1001.634    -86.634    509.368   1001.557    509.368    509.368    509.368
 49.970   1195.000   1243.133    -48.133    509.217   1243.028    509.217    509.217    509.217
 50.070   1486.129   1549.218    -63.089    509.069   1549.090    509.069    509.069    509.069
 50.170   1834.000   1884.303    -50.303    508.922   1884.172    508.922    508.922    508.922
 50.270   2222.067   2178.401     43.666    508.778   2178.302    508.778    508.778    508.778
 50.370   2351.000   2339.629     11.371    508.636   2339.602    508.636    508.636    508.636
 50.470   2364.000   2304.206     59.794    508.496   2304.269    508.496    508.496    508.496
 50.570   2087.000   2088.825     -1.825    508.358   2088.958    508.358    508.358    508.358
 50.670   1699.000   1774.717    -75.717    508.223   1774.878    508.223    508.223    508.223
 50.770   1360.000   1449.107    -89.107    508.089   1449.261    508.089    508.089    508.089
 50.870   1035.000   1170.225   -135.225    507.958   1170.355    507.958    507.958    507.958
 50.970    866.000    962.913    -96.913    507.829    963.013    507.829    507.829    507.829
 51.070    748.000    826.521    -78.521    507.703    826.596    507.703    507.703    507.703
 51.170    773.000    745.862     27.138    507.578    745.921    507.578    507.578    507.578
 51.270    738.000    701.116     36.884    507.456    701.165    507.456    507.456    507.456
 51.370    699.890    674.549     25.341    507.335    674.592    507.335    507.335    507.335
 51.470    672.000    654.352     17.648    507.217    654.390    507.217    507.217    507.217
 51.570    594.000    635.586    -41.586    507.101    635.618    507.101    507.101    507.101
 51.670    634.000    617.856     16.144    506.988    617.881    506.988    506.988    506.988
 51.770    580.000    602.217    -22.217    506.876    602.236    506.876    506.876    506.876
 51.870    569.000    589.550    -20.550    506.767    589.564    506.767    506.767    506.767
 51.970    603.215    580.151     23.063    506.659    580.161    506.659    506.659    506.659
 52.070    598.000    573.812     24.188    506.554    573.819    506.554    506.554    506.554
 52.170    577.000    570.045      6.955    506.451    570.050    506.451    506.451    506.451
 52.270    609.000    568.331     40.669    506.350    568.335    506.350    506.350    506.350
 52.370    618.849    568.297     50.552    506.251    568.300    506.251    506.251    506.251
 52.470    579.000    569.823      9.177    506.154    569.826    506.154    506.154    506.154
 52.570    614.000    573.130     40.870    506.059    573.133    506.059    506.059    506.059
 52.670    631.000    578.918     52.082    505.967    578.920    505.967    505.967    505.967
 52.770    530.813    588.573    -57.761    505.876    588.575    505.876    505.876    505.876
 52.870    608.189    604.420      3.769    505.787    604.421    505.787    505.787    505.787
 52.970    601.000    629.846    -28.846    505.701    629.846    505.701    505.701    505.701
 53.070    694.339    669.067     25.272    505.616    669.065    505.616    505.616    505.616
 53.170    702.000    726.267    -24.267    505.534    726.264    505.534    505.534    505.534
 53.270    742.901    804.031    -61.130    505.454    804.029    505.454    505.454    505.454
 53.370    878.000    901.265    -23.265    505.375    901.265    505.375    505.375    505.375
 53.470   1056.498   1010.932     45.566    505.299   1010.936    505.299    505.299    505.299
 53.570   1187.000   1117.787     69.213    505.225   1117.800    505.225    505.225    505.225
 53.670   1153.000   1198.000    -45.000    505.152   1198.025    505.152    505.152    505.152
 53.770   1245.000   1225.995     19.005    505.082   1226.031    505.082    505.082    505.082
 53.870   1211.000   1190.920     20.080    505.013   1190.963    505.013    505.013    505.013
 53.970   1069.782   1106.300    -36.519    504.947   1106.343    504.947    504.947    504.947
 54.070    990.655    998.472     -7.817    504.883    998.510    504.883    504.883    504.883
 54.170    906.000    890.458     15.542    504.820    890.490    504.820    504.820    504.820
 54.270    800.000    796.333      3.667    504.759    796.357    504.759    504.759    504.759
 54.370    705.825    722.211    -16.386    504.701    722.229    504.701    504.701    504.701
 54.470    643.754    668.551    -24.797    504.644    668.564    504.644    504.644    504.644
 54.570    664.000    632.433     31.567    504.589    632.442    504.589    504.589    504.589
 54.670    630.724    609.587     21.137    504.536    609.594    504.536    504.536    504.536
 54.770    571.051    595.870    -24.820    504.485    595.875    504.485    504.485    504.485
 54.870    605.000    588.033     16.967    504.436    588.036    504.436    504.436    504.436
 54.970    611.034    583.881     27.153    504.389    583.884    504.389    504.389    504.389
 55.070    621.000    582.110     38.890    504.344    582.113    504.344    504.344    504.344
 55.170    555.800    582.022    -26.221    504.300    582.024    504.300    504.300    504.300
 55.270    565.976    583.292    -17.316    504.259    583.295    504.259    504.259    504.259
 55.370    639.717    585.817     53.900    504.219    585.819    504.219    504.219    504.219
 55.470    612.000    589.634     22.366    504.181    589.636    504.181    504.181    504.181
 55.570    601.000    594.909      6.091    504.145    594.911    504.145    504.145    504.145
 55.670    630.000    601.995     28.005    504.110    601.996    504.110    504.110    504.110
 55.770    567.612    611.561    -43.949    504.078    611.562    504.078    504.078    504.078
 55.870    599.000    624.867    -25.867    504.047    624.867    504.047    504.047    504.047
 55.970    695.525    644.203     51.322    504.018    644.202    504.018    504.018    504.018
 56.070    669.000    673.494     -4.494    503.991    673.490    503.991    503.991    503.991
 56.170    676.000    718.929    -42.929    503.965    718.921    503.965    503.965    503.965
 56.270    738.000    789.271    -51.271    503.942    789.257    503.942    503.942    503.942
 56.370    880.000    895.298    -15.298    503.920    895.275    503.920    503.920    503.920
 56.470   1097.452   1047.897     49.556    503.899   1047.866    503.899    503.899    503.899
 56.570   1121.000   1254.474   -133.474    503.881   1254.436    503.881    503.881    503.881
 56.670   1408.000   1514.261   -106.261    503.864   1514.223    503.864    503.864    503.864
 56.770   1797.000   1813.144    -16.144    503.849   1813.116    503.849    503.849    503.849
 56.870   2181.000   2118.843     62.157    503.835   2118.843    503.835    503.835    503.835
 56.970   2423.000   2378.794     44.206    503.823   2378.843    503.823    503.823    503.823
 57.070   2577.000   2529.179     47.821    503.813   2529.296    503.813    503.813    503.813
 57.170   2526.938   2523.691      3.247    503.805   2523.874    503.805    503.805    503.805
 57.270   2278.109   2364.700    -86.592    503.798   2364.928    503.798    503.798    503.798
 57.370   2197.000   2101.349     95.651    503.793   2101.586    503.793    503.793    503.793
 57.470   1768.000   1797.247    -29.247    503.789   1797.465    503.789    503.789    503.789
 57.570   1391.000   1503.462   -112.462    503.787   1503.646    503.787    503.787    503.787
 57.670   1178.000   1250.840    -72.840    503.786   1250.984    503.786    503.786    503.786
 57.770   1052.000   1052.518     -0.518    503.788   1052.623    503.788    503.788    503.788
 57.870    937.965    908.888     29.078    503.790    908.960    503.790    503.790    503.790
 57.970    827.000    812.872     14.128    503.794    812.918    503.794    503.794    503.794
 58.070    799.000    754.720     44.280    503.800    754.747    503.800    503.800    503.800
 58.170    775.300    725.514     49.786    503.808    725.526    503.808    503.808    503.808
 58.270    715.000    718.955     -3.955    503.816    718.954    503.816    503.816    503.816
 58.370    750.000    731.582     18.418    503.827    731.571    503.827    503.827    503.827
 58.470    697.476    761.939    -64.463    503.838    761.918    503.838    503.838    503.838
 58.570    818.000    809.200      8.800    503.852    809.171    503.852    503.852    503.852
 58.670    930.543    871.669     58.875    503.866    871.634    503.866    503.866    503.866
 58.770    908.000    945.402    -37.402    503.883    945.365    503.883    503.883    503.883
 58.870   1029.000   1023.629      5.371    503.900   1023.597    503.900    503.900    503.900
 58.970   1092.000   1098.061     -6.061    503.919   1098.038    503.919    503.919    503.919
 59.070   1179.130   1161.622     17.509    503.940   1161.612    503.940    503.940    503.940
 59.170   1253.000   1209.188     43.812    503.962   1209.193    503.962    503.962    503.962
 59.270   1166.207   1235.854    -69.647    503.985   1235.872    503.985    503.985    503.985
 59.370   1321.424   1238.147     83.277    504.009   1238.174    504.009    504.009    504.009
 59.470   1302.047   1219.134     82.913    504.035   1219.159    504.035    504.035    504.035
 59.570   1257.000   1189.867     67.133    504.063   1189.876    504.063    504.063    504.063
 59.670   1237.000   1163.983     73.017    504.091   1163.965    504.091    504.091    504.091
 59.770   1201.000   1152.149     48.851    504.121   1152.095    504.121    504.121    504.121
 59.870   1257.000   1161.144     95.856    504.153   1161.048    504.153    504.153    504.153
 59.970   1265.089   1195.236     69.853    504.185   1195.094    504.185    504.185    504.185
 60.070   1329.000   1255.683     73.317    504.219   1255.496    504.219    504.219    504.219
 60.170   1320.639   1337.696    -17.056    504.254   1337.466    504.254    504.254    504.254
 60.270   1457.000   1427.625     29.375    504.291   1427.366    504.291    504.291    504.291
 60.370   1542.000   1502.883     39.117    504.328   1502.613    504.328    504.328    504.328
 60.470   1589.000   1537.005     51.995    504.367   1536.752    504.367    504.367    504.367
 60.570   1534.000   1511.543     22.457    504.407   1511.328    504.407    504.407    504.407
 60.670   1450.036   1427.311     22.725    504.449   1427.145    504.449    504.449    504.449
 60.770   1230.935   1302.977    -72.042    504.491   1302.858    504.491    504.491    504.491
 60.870   1158.000   1163.194     -5.194    504.535   1163.113    504.535    504.535    504.535
 60.970   1093.618   1028.682     64.936    504.580   1028.629    504.580    504.580    504.580
 61.070    884.000    912.943    -28.943    504.626    912.908    504.626    504.626    504.626
 61.170    798.000    822.752    -24.752    504.673    822.726    504.673    504.673    504.673
 61.270    813.514    759.881     53.633    504.721    759.857    504.721    504.721    504.721
 61.370    786.851    723.217     63.633    504.770    723.191    504.770    504.770    504.770
 61.470    724.000    710.814     13.186    504.821    710.780    504.821    504.821    504.821
 61.570    752.000    721.364     30.636    504.872    721.319    504.872    504.872    504.872
 61.670    718.000    754.728    -36.728    504.925    754.667    504.925    504.925    504.925
 61.770    785.000    811.424    -26.424    504.979    811.344    504.979    504.979    504.979
 61.870    926.000    891.316     34.684    505.033    891.214    505.033    505.033    505.033
 61.970    955.000    991.885    -36.885    505.089    991.759    505.089    505.089    505.089
 62.070   1061.000   1106.511    -45.511    505.146   1106.365    505.146    505.146    505.146
 62.170   1230.000   1223.096      6.904    505.203   1222.937    505.203    505.203    505.203
 62.270   1306.000   1323.647    -17.647    505.262   1323.490    505.262    505.262    505.262
 62.370   1378.000   1386.799     -8.799    505.322   1386.658    505.322    505.322    505.322
 62.470   1240.000   1395.479   -155.479    505.382   1395.367    505.382    505.382    505.382
 62.570   1311.979   1346.572    -34.593    505.444   1346.493    505.444    505.444    505.444
 62.670   1234.000   1253.104    -19.104    505.506   1253.055    505.506    505.506    505.506
 62.770   1098.000   1136.132    -38.132    505.569   1136.104    505.569    505.569    505.569
 62.870   1008.000   1015.252     -7.252    505.634   1015.238    505.634    505.634    505.634
 62.970    850.000    904.327    -54.327    505.699    904.322    505.699    505.699    505.699
 63.070    769.010    811.165    -42.156    505.765    811.164    505.765    505.765    505.765
 63.170    680.000    738.548    -58.548    505.832    738.546    505.832    505.832    505.832
 63.270    646.000    685.631    -39.631    505.899    685.628    505.899    505.899    505.899
 63.370    639.000    649.468    -10.468    505.968    649.463    505.968    505.968    505.968
 63.470    603.000    626.400    -23.400    506.037    626.393    506.037    506.037    506.037
 63.570    653.287    613.095     40.192    506.107    613.086    506.107    506.107    506.107
 63.670    686.000    607.140     78.860    506.178    607.129    506.178    506.178    506.178
 63.770    580.182    607.260    -27.079    506.250    607.245    506.250    506.250    506.250
 63.870    634.000    613.271     20.729    506.322    613.251    506.322    506.322    506.322
 63.970    601.000    625.878    -24.878    506.395    625.852    506.395    506.395    506.395
 64.070    644.000    646.358     -2.358    506.469    646.323    506.469    506.469    506.469
 64.170    696.000    676.124     19.876    506.544    676.077    506.544    506.544    506.544
 64.270    710.000    716.177     -6.177    506.619    716.117    506.619    506.619    506.619
 64.370    796.000    766.489     29.511    506.695    766.414    506.695    506.695    506.695
 64.470    800.714    825.359    -24.646    506.771    825.267    506.771    506.771    506.771
 64.570    865.000    888.810    -23.810    506.848    888.703    506.848    506.848    506.848
 64.670    988.000    950.182     37.818    506.926    950.065    506.926    506.926    506.926
 64.770   1000.355   1000.508     -0.153    507.005   1000.388    507.005    507.005    507.005
 64.870   1038.000   1030.665      7.335    507.084   1030.550    507.084    507.084    507.084
 64.970   1045.000   1035.112      9.888    507.163   1035.011    507.163    507.163    507.163
 65.070   1051.000   1014.409     36.591    507.244   1014.327    507.244    507.244    507.244
 65.170    969.000    974.429     -5.429    507.324    974.370    507.324    507.324    507.324
 65.270    941.000    923.531     17.469    507.406    923.495    507.406    507.406    507.406
 65.370    890.000    869.758     20.242    507.487    869.742    507.487    507.487    507.487
 65.470    872.148    818.964     53.184    507.570    818.966    507.570    507.570    507.570
 65.570    708.960    774.175    -65.215    507.652    774.189    507.652    507.652    507.652
 65.670    750.515    736.039     14.477    507.736    736.061    507.736    507.736    507.736
 65.770    651.000    703.937    -52.937    507.819    703.963    507.819    507.819    507.819
 65.870    672.339    677.089     -4.750    507.904    677.113    507.904    507.904    507.904
 65.970    660.000    654.992      5.008    507.988    655.013    507.988    507.988    507.988
 66.070    604.000    637.310    -33.310    508.073    637.326    508.073    508.073    508.073
 66.170    615.000    623.689     -8.689    508.159    623.701    508.159    508.159    508.159
 66.270    553.000    613.734    -60.734    508.245    613.742    508.245    508.245    508.245
 66.370    566.338    607.054    -40.716    508.331    607.059    508.331    508.331    508.331
 66.470    598.000    603.298     -5.298    508.417    603.301    508.417    508.417    508.417
 66.570    609.000    602.189      6.811    508.504    602.191    508.504    508.504    508.504
 66.670    563.000    603.562    -40.562    508.592    603.564    508.592    508.592    508.592
 66.770    634.000    607.455     26.545    508.679    607.457    508.679    508.679    508.679
 66.870    601.000    614.232    -13.232    508.767    614.235    508.767    508.767    508.767
 66.970    623.000    624.768     -1.768    508.855    624.771    508.855    508.855    508.855
 67.070    637.000    640.663     -3.663    508.944    640.666    508.944    508.944    508.944
 67.170    698.585    664.496     34.089    509.032    664.499    509.032    509.032    509.032
 67.270    703.000    700.017      2.983    509.121    700.019    509.121    509.121    509.121
 67.370    691.000    752.186    -61.186    509.210    752.188    509.210    509.210    509.210
 67.470    800.000    826.884    -26.884    509.299    826.886    509.299    509.299    509.299
 67.570    860.343    930.152    -69.809    509.389    930.155    509.389    509.389    509.389
 67.670   1062.000   1066.906     -4.906    509.479   1066.912    509.479    509.479    509.479
 67.770   1226.000   1239.227    -13.227    509.568   1239.240    509.568    509.568    509.568
 67.870   1375.765   1444.468    -68.703    509.658   1444.495    509.658    509.658    509.658
 67.970   1689.122   1673.453     15.669    509.749   1673.503    509.749    509.749    509.749
 68.070   1874.662   1908.955    -34.293    509.839   1909.039    509.839    509.839    509.839
 68.170   2036.856   2124.897    -88.041    509.929   2125.025    509.929    509.929    509.929
 68.270   2260.255   2288.127    -27.872    510.020   2288.309    510.020    510.020    510.020
 68.370   2374.000   2366.201      7.799    510.110   2366.440    510.110    510.110    510.110
 68.470   2364.000   2341.064     22.936    510.201   2341.351    510.201    510.201    510.201
 68.570   2233.000   2218.995     14.005    510.291   2219.309    510.291    510.291    510.291
 68.670   2022.000   2026.763     -4.763    510.382   2027.080    510.382    510.382    510.382
 68.770   1780.103   1798.350    -18.246    510.472   1798.647    510.472    510.472    510.472
 68.870   1526.000   1563.875    -37.875    510.563   1564.137    510.563    510.563    510.563
 68.970   1368.000   1345.143     22.857    510.654   1345.364    510.654    510.654    510.654
 69.070   1101.000   1155.382    -54.382    510.744   1155.559    510.744    510.744    510.744
 69.170    947.000   1000.447    -53.447    510.835   1000.585    510.835    510.835    510.835
 69.270    878.000    880.499     -2.499    510.925    880.602    510.925    510.925    510.925
 69.370    815.000    791.879     23.121    511.015    791.954    511.015    511.015    511.015
 69.470    744.000    728.948     15.052    511.106    729.002    511.106    511.106    511.106
 69.570    679.000    685.614     -6.614    511.196    685.652    511.196    511.196    511.196
 69.670    681.000    656.355     24.645    511.286    656.382    511.286    511.286    511.286
 69.770    643.000    636.735      6.265    511.376    636.755    511.376    511.376    511.376
 69.870    618.000    623.509     -5.509    511.466    623.524    511.466    511.466    511.466
 69.970    651.000    614.480     36.520    511.555    614.491    511.555    511.555    511.555
 70.070    619.000    608.254     10.746    511.645    608.262    511.645    511.645    511.645
 70.170    588.207    603.997    -15.790    511.734    604.004    511.734    511.734    511.734
 70.270    602.276    601.242      1.033    511.823    601.247    511.823    511.823    511.823
 70.370    614.000    599.755     14.245    511.911    599.758    511.911    511.911    511.911
 70.470    577.407    599.464    -22.056    512.000    599.465    512.000    512.000    512.000
 70.570    633.000    600.436     32.564    512.088    600.435    512.088    512.088    512.088
 70.670    679.000    602.899     76.101    512.176    602.897    512.176    512.176    512.176
 70.770    598.425    607.303     -8.878    512.264    607.298    512.264    512.264    512.264
 70.870    637.000    614.412     22.588    512.351    614.404    512.351    512.351    512.351
 70.970    610.000    625.433    -15.433    512.438    625.421    512.438    512.438    512.438
 71.070    681.782    642.142     39.639    512.525    642.124    512.525    512.525    512.525
 71.170    618.821    666.975    -48.154    512.611    666.949    512.611    512.611    512.611
 71.270    641.573    703.011    -61.438    512.697    702.974    512.697    512.697    512.697
 71.370    708.000    753.781    -45.781    512.783    753.729    512.783    512.783    512.783
 71.470    815.000    822.830     -7.830    512.868    822.761    512.868    512.868    512.868
 71.570    952.823    913.031     39.792    512.953    912.940    512.953    512.953    512.953
 71.670   1009.000   1025.681    -16.681    513.038   1025.566    513.038    513.038    513.038
 71.770   1112.000   1159.526    -47.526    513.122   1159.387    513.122    513.122    513.122
 71.870   1296.000   1309.826    -13.826    513.205   1309.666    513.205    513.205    513.205
 71.970   1421.000   1467.568    -46.568    513.288   1467.391    513.288    513.288    513.288
 72.070   1641.104   1618.952     22.152    513.371   1618.767    513.371    513.371    513.371
 72.170   1838.112   1745.724     92.387    513.453   1745.545    513.453    513.453    513.453
 72.270   1777.601   1827.749    -50.149    513.535   1827.589    513.535    513.535    513.535
 72.370   1818.683   1848.991    -30.308    513.616   1848.860    513.616    513.616    513.616
 72.470   1811.521   1804.720      6.802    513.696   1804.622    513.696    513.696    513.696
 72.570   1766.000   1704.119     61.881    513.776   1704.052    513.776    513.776    513.776
 72.670   1664.000   1565.567     98.433    513.856   1565.526    513.856    513.856    513.856
 72.770   1464.000   1409.159     54.841    513.935   1409.137    513.935    513.935    513.935
 72.870   1337.471   1251.775     85.696    514.013   1251.767    514.013    514.013    514.013
 72.970   1109.000   1105.498      3.502    514.091   1105.498    514.091    514.091    514.091
 73.070   1100.000    977.736    122.264    514.168    977.739    514.168    514.168    514.168
 73.170    814.532    871.879    -57.347    514.244    871.884    514.244    514.244    514.244
 73.270    828.000    788.163     39.837    514.320    788.167    514.320    514.320    514.320
 73.370    775.814    724.629     51.185    514.395    724.632    514.395    514.395    514.395
 73.470    640.874    678.090    -37.216    514.470    678.092    514.470    514.470    514.470
 73.570    588.656    644.964    -56.307    514.543    644.965    514.543    514.543    514.543
 73.670    663.000    621.873     41.127    514.616    621.874    514.616    514.616    514.616
 73.770    634.000    605.991     28.009    514.689    605.993    514.689    514.689    514.689
 73.870    643.000    595.164     47.836    514.760    595.167    514.760    514.760    514.760
 73.970    607.851    587.873     19.979    514.831    587.877    514.831    514.831    514.831
 74.070    644.000    583.110     60.890    514.901    583.117    514.901    514.901    514.901
 74.170    525.368    580.233    -54.865    514.971    580.244    514.971    514.971    514.971
 74.270    591.000    578.829     12.171    515.039    578.843    515.039    515.039    515.039
 74.370    586.000    578.593      7.407    515.107    578.613    515.107    515.107    515.107
 74.470    594.000    579.256     14.744    515.174    579.281    515.174    515.174    515.174
 74.570    652.000    580.519     71.481    515.241    580.549    515.241    515.241    515.241
 74.670    600.000    582.024     17.976    515.306    582.060    515.306    515.306    515.306
 74.770    611.471    583.344     28.127    515.370    583.385    515.370    515.370    515.370
 74.870    654.000    584.017     69.983    515.434    584.062    515.434    515.434    515.434
 74.970    640.680    583.664     57.016    515.497    583.710    515.497    515.497    515.497
 75.070    518.382    582.137    -63.755    515.559    582.182    515.559    515.559    515.559
 75.170    660.000    579.611     80.389    515.620    579.653    515.620    515.620    515.620
 75.270    661.000    576.510     84.490    515.680    576.548    515.680    515.680    515.680
 75.370    649.000    573.372     75.628    515.739    573.404    515.739    515.739    515.739
 75.470    604.539    570.742     33.797    515.797    570.767    515.797    515.797    515.797
 75.570    648.000    569.142     78.858    515.855    569.160    515.855    515.855    515.855
 75.670    574.382    569.065      5.317    515.911    569.076    515.911    515.911    515.911
 75.770    663.000    570.986     92.014    515.966    570.991    515.966    515.966    515.966
 75.870    590.390    575.347     15.043    516.021    575.345    516.021    516.021    516.021
 75.970    583.000    582.526      0.474    516.074    582.517    516.074    516.074    516.074
 76.070    532.739    592.785    -60.047    516.126    592.769    516.126    516.126    516.126
 76.170    664.692    606.198     58.494    516.178    606.174    516.178    516.178    516.178
 76.270    657.000    622.569     34.431    516.228    622.536    516.228    516.228    516.228
 76.370    658.000    641.347     16.653    516.277    641.307    516.277    516.277    516.277
 76.470    671.000    661.558      9.442    516.325    661.510    516.325    516.325    516.325
 76.570    694.000    681.744     12.256    516.373    681.689    516.373    516.373    516.373
 76.670    694.867    699.966     -5.099    516.419    699.906    516.419    516.419    516.419
 76.770    813.000    713.945     99.055    516.464    713.883    516.464    516.464    516.464
 76.870    714.271    721.501     -7.230    516.507    721.440    516.507    516.507    516.507
 76.970    793.000    721.241     71.759    516.550    721.184    516.550    516.550    516.550
 77.070    710.000    713.144     -3.144    516.592    713.093    516.592    516.592    516.592
 77.170    659.000    698.566    -39.566    516.632    698.522    516.632    516.632    516.632
 77.270    681.000    679.662      1.338    516.672    679.625    516.672    516.672    516.672
 77.370    597.317    658.686    -61.369    516.710    658.656    516.710    516.710    516.710
 77.470    650.413    637.553     12.860    516.747    637.529    516.747    516.747    516.747
 77.570    603.177    617.679    -14.502    516.783    617.661    516.783    516.783    516.783
 77.670    596.000    599.985     -3.985    516.817    599.971    516.817    516.817    516.817
 77.770    565.000    584.959    -19.959    516.851    584.949    516.851    516.851    516.851
 77.870    552.652    572.720    -20.069    516.883    572.713    516.883    516.883    516.883
 77.970    572.000    563.121      8.879    516.914    563.115    516.914    516.914    516.914
 78.070    564.741    555.838      8.903    516.943    555.834    516.943    516.943    516.943
 78.170    547.000    550.469     -3.469    516.972    550.466    516.972    516.972    516.972
 78.270    515.548    546.600    -31.051    516.999    546.597    516.999    516.999    516.999
 78.370    544.000    543.856      0.144    517.025    543.854    517.025    517.025    517.025
 78.470    550.000    541.927      8.073    517.050    541.926    517.050    517.050    517.050
 78.570    490.809    540.577    -49.768    517.073    540.575    517.073    517.073    517.073
 78.670    519.000    539.634    -20.634    517.095    539.632    517.095    517.095    517.095
 78.770    589.420    538.983     50.438    517.116    538.982    517.116    517.116    517.116
 78.870    551.000    538.552     12.448    517.135    538.551    517.135    517.135    517.135
 78.970    526.000    538.302    -12.302    517.153    538.301    517.153    517.153    517.153
 79.070    563.958    538.214     25.744    517.170    538.213    517.170    517.170    517.170
 79.170    525.606    538.288    -12.683    517.185    538.288    517.185    517.185    517.185
 79.270    525.000    538.537    -13.537    517.199    538.536    517.199    517.199    517.199
 79.370    503.682    538.982    -35.300    517.212    538.981    517.212    517.212    517.212
 79.470    551.000    539.657     11.343    517.223    539.655    517.223    517.223    517.223
 79.570    560.150    540.602     19.547    517.233    540.601    517.233    517.233    517.233
 79.670    569.000    541.874     27.126    517.241    541.872    517.241    517.241    517.241
 79.770    568.000    543.542     24.458    517.249    543.540    517.249    517.249    517.249
 79.870    594.561    545.697     48.864    517.254    545.694    517.254    517.254    517.254
 79.970    548.000    548.457     -0.457    517.258    548.454    517.258    517.258    517.258
 80.070    524.000    551.976    -27.976    517.261    551.972    517.261    517.261    517.261
 80.170    545.000    556.440    -11.440    517.262    556.436    517.262    517.262    517.262
 80.270    591.034    562.074     28.960    517.262    562.070    517.262    517.262    517.262
 80.370    584.000    569.133     14.867    517.261    569.129    517.261    517.261    517.261
 80.470    603.000    577.899     25.101    517.258    577.896    517.258    517.258    517.258
 80.570    567.000    588.670    -21.670    517.253    588.668    517.253    517.253    517.253
 80.670    598.000    601.711     -3.711    517.247    601.712    517.247    517.247    517.247
 80.770    632.000    617.186     14.814    517.239    617.190    517.239    517.239    517.239
 80.870    596.000    635.057    -39.057    517.230    635.066    517.230    517.230    517.230
 80.970    654.000    655.006     -1.006    517.220    655.020    517.220    517.220    517.220
 81.070    641.000    676.387    -35.387    517.208    676.407    517.208    517.208    517.208
 81.170    650.000    698.228    -48.228    517.194    698.255    517.194    517.194    517.194
 81.270    710.000    719.335     -9.335    517.179    719.369    517.179    517.179    517.179
 81.370    757.174    738.460     18.714    517.162    738.501    517.162    517.162    517.162
 81.470    735.000    754.477    -19.477    517.144    754.526    517.144    517.144    517.144
 81.570    782.000    766.494     15.506    517.124    766.549    517.124    517.124    517.124
 81.670    773.000    773.918     -0.918    517.103    773.980    517.103    517.103    517.103
 81.770    772.557    776.525     -3.969    517.080    776.591    517.080    517.080    517.080
 81.870    798.000    774.443     23.557    517.055    774.512    517.055    517.055    517.055
 81.970    785.394    768.031     17.363    517.029    768.104    517.029    517.029    517.029
 82.070    724.537    757.783    -33.246    517.001    757.856    517.001    517.001    517.001
 82.170    744.000    744.340     -0.340    516.972    744.413    516.972    516.972    516.972
 82.270    764.376    728.546     35.831    516.941    728.618    516.941    516.941    516.941
 82.370    712.144    711.359      0.786    516.908    711.428    516.908    516.908    516.908
 82.470    684.000    693.653     -9.653    516.874    693.719    516.874    516.874    516.874
 82.570    665.000    676.070    -11.070    516.838    676.132    516.838    516.838    516.838
 82.670    660.000    659.017      0.983    516.801    659.074    516.801    516.801    516.801
 82.770    616.818    642.784    -25.967    516.762    642.836    516.762    516.762    516.762
 82.870    653.646    627.664     25.982    516.721    627.711    516.721    516.721    516.721
 82.970    640.817    613.983     26.834    516.678    614.022    516.678    516.678    516.678
 83.070    569.000    602.056    -33.056    516.634    602.088    516.634    516.634    516.634
 83.170    643.522    592.138     51.385    516.588    592.162    516.588    516.588    516.588
 83.270    520.000    584.389    -64.389    516.541    584.406    516.541    516.541    516.541
 83.370    603.160    578.878     24.282    516.492    578.887    516.492    516.492    516.492
 83.470    601.332    575.579     25.753    516.441    575.580    516.441    516.441    516.441
 83.570    561.000    574.375    -13.375    516.389    574.368    516.389    516.389    516.389
 83.670    567.000    575.055     -8.055    516.334    575.039    516.334    516.334    516.334
 83.770    578.000    577.312      0.688    516.278    577.289    516.278    516.278    516.278
 83.870    549.000    580.744    -31.744    516.221    580.713    516.221    516.221    516.221
 83.970    610.759    584.856     25.904    516.162    584.818    516.162    516.162    516.162
 84.070    571.000    589.069    -18.069    516.101    589.026    516.101    516.101    516.101
 84.170    582.000    592.747    -10.747    516.038    592.700    516.038    516.038    516.038
 84.270    567.434    595.253    -27.819    515.973    595.204    515.973    515.973    515.973
 84.370    534.000    596.033    -62.033    515.907    595.983    515.907    515.907    515.907
 84.470    593.000    594.866     -1.866    515.839    594.818    515.839    515.839    515.839
 84.570    575.000    591.797    -16.797    515.769    591.752    515.769    515.769    515.769
 84.670    548.000    587.129    -39.129    515.698    587.089    515.698    515.698    515.698
 84.770    536.806    581.346    -44.540    515.625    581.310    515.625    515.625    515.625
 84.870    589.000    574.966     14.034    515.550    574.936    515.550    515.550    515.550
 84.970    586.000    568.458     17.542    515.473    568.432    515.473    515.473    515.473
 85.070    553.000    562.198     -9.198    515.395    562.177    515.395    515.395    515.395
 85.170    558.642    556.462      2.180    515.315    556.445    515.315    515.315    515.315
 85.270    582.000    551.427     30.573    515.233    551.413    515.233    515.233    515.233
 85.370    569.995    547.186     22.809    515.149    547.175    515.149    515.149    515.149
 85.470    516.000    543.758    -27.758    515.064    543.748    515.064    515.064    515.064
 85.570    532.000    541.104     -9.104    514.976    541.096    514.976    514.976    514.976
 85.670    490.535    539.157    -48.622    514.887    539.150    514.887    514.887    514.887
 85.770    554.000    537.834     16.166    514.797    537.827    514.797    514.797    514.797
 85.870    595.000    537.055     57.945    514.704    537.048    514.704    514.704    514.704
 85.970    524.000    536.758    -12.758    514.610    536.750    514.610    514.610    514.610
 86.070    578.294    536.907     41.387    514.513    536.898    514.513    514.513    514.513
 86.170    549.000    537.494     11.506    514.416    537.485    514.416    514.416    514.416
 86.270    494.947    538.548    -43.602    514.316    538.537    514.316    514.316    514.316
 86.370    574.811    540.128     34.684    514.214    540.114    514.214    514.214    514.214
 86.470    538.509    542.320     -3.811    514.111    542.303    514.111    514.111    514.111
 86.570    523.000    545.233    -22.233    514.006    545.212    514.006    514.006    514.006
 86.670    570.000    548.985     21.015    513.899    548.960    513.899    513.899    513.899
 86.770    542.000    553.693    -11.693    513.791    553.661    513.791    513.791    513.791
 86.870    557.000    559.451     -2.451    513.680    559.413    513.680    513.680    513.680
 86.970    541.562    566.314    -24.751    513.568    566.267    513.568    513.568    513.568
 87.070    580.000    574.269      5.731    513.454    574.213    513.454    513.454    513.454
 87.170    617.000    583.214     33.786    513.338    583.148    513.338    513.338    513.338
 87.270    638.264    592.933     45.331    513.220    592.856    513.220    513.220    513.220
 87.370    604.000    603.081      0.919    513.101    602.994    513.101    513.101    513.101
 87.470    615.817    613.175      2.642    512.980    613.078    512.980    512.980    512.980
 87.570    601.000    622.599    -21.599    512.857    622.494    512.857    512.857    512.857
 87.670    649.331    630.638     18.694    512.732    630.526    512.732    512.732    512.732
 87.770    618.722    636.565    -17.843    512.605    636.451    512.605    512.605    512.605
 87.870    586.131    639.803    -53.673    512.477    639.690    512.477    512.477    512.477
 87.970    657.000    640.083     16.917    512.347    639.976    512.347    512.347    512.347
 88.070    659.000    637.536     21.464    512.215    637.437    512.215    512.215    512.215
 88.170    667.000    632.643     34.357    512.081    632.555    512.081    512.081    512.081
 88.270    658.000    626.101     31.899    511.945    626.026    511.945    511.945    511.945
 88.370    633.000    618.683     14.317    511.808    618.620    511.808    511.808    511.808
 88.470    621.000    611.137      9.863    511.669    611.088    511.669    511.669    511.669
 88.570    593.000    604.140    -11.140    511.528    604.103    511.528    511.528    511.528
 88.670    632.000    598.255     33.745    511.385    598.230    511.385    511.385    511.385
 88.770    560.000    593.906    -33.906    511.241    593.891    511.241    511.241    511.241
 88.870    530.404    591.357    -60.953    511.094    591.352    511.094    511.094    511.094
 88.970    623.000    590.707     32.293    510.946    590.712    510.946    510.946    510.946
 89.070    587.000    591.892     -4.892    510.797    591.906    510.797    510.797    510.797
 89.170    586.000    594.691     -8.691    510.645    594.713    510.645    510.645    510.645
 89.270    563.000    598.743    -35.743    510.492    598.774    510.492    510.492    510.492
 89.370    569.592    603.563    -33.971    510.336    603.602    510.336    510.336    510.336
 89.470    633.480    608.562     24.918    510.179    608.608    510.179    510.179    510.179
 89.570    607.377    613.080     -5.703    510.021    613.132    510.021    510.021    510.021
 89.670    574.000    616.449    -42.449    509.860    616.507    509.860    509.860    509.860
 89.770    645.958    618.089     27.869    509.698    618.151    509.698    509.698    509.698
 89.870    652.937    617.620     35.317    509.534    617.685    509.534    509.534    509.534
 89.970    590.000    614.954    -24.954    509.369    615.019    509.369    509.369    509.369
 90.070    599.000    610.297    -11.297    509.201    610.360    509.201    509.201    509.201
 90.170    604.000    604.071     -0.071    509.032    604.131    509.032    509.032    509.032
 90.270    591.000    596.799     -5.799    508.861    596.854    508.861    508.861    508.861
 90.370    541.000    588.999    -47.999    508.688    589.048    508.688    508.688    508.688
 90.470    541.000    581.133    -40.133    508.514    581.176    508.514    508.514    508.514
 90.570    506.000    573.573    -67.573    508.338    573.609    508.338    508.338    508.338
 90.670    543.131    566.598    -23.467    508.160    566.628    508.160    508.160    508.160
 90.770    539.000    560.399    -21.399    507.981    560.423    507.981    507.981    507.981
 90.870    558.000    555.083      2.917    507.799    555.102    507.799    507.799    507.799
 90.970    583.000    550.688     32.312    507.617    550.703    507.617    507.617    507.617
 91.070    539.000    547.198     -8.198    507.432    547.209    507.432    507.432    507.432
 91.170    516.751    544.558    -27.807    507.246    544.565    507.246    507.246    507.246
 91.270    519.914    542.694    -22.781    507.058    542.699    507.058    507.058    507.058
 91.370    594.981    541.532     53.449    506.868    541.535    506.868    506.868    506.868
 91.470    487.000    541.004    -54.004    506.677    541.005    506.677    506.677    506.677
 91.570    553.000    541.068     11.932    506.484    541.068    506.484    506.484    506.484
 91.670    466.000    541.710    -75.710    506.289    541.708    506.289    506.289    506.289
 91.770    530.000    542.949    -12.949    506.093    542.945    506.093    506.093    506.093
 91.870    532.000    544.842    -12.842    505.895    544.837    505.895    505.895    505.895
 91.970    514.000    547.480    -33.480    505.695    547.472    505.695    505.695    505.695
 92.070    554.000    550.984      3.016    505.494    550.974    505.494    505.494    505.494
 92.170    536.000    555.501    -19.501    505.291    555.488    505.291    505.291    505.291
 92.270    563.000    561.190      1.810    505.087    561.174    505.087    505.087    505.087
 92.370    591.020    568.216     22.804    504.881    568.195    504.881    504.881    504.881
 92.470    589.177    576.725     12.452    504.673    576.701    504.673    504.673    504.673
 92.570    567.703    586.840    -19.136    504.464    586.810    504.464    504.464    504.464
 92.670    532.000    598.632    -66.632    504.253    598.596    504.253    504.253    504.253
 92.770    605.927    612.111     -6.184    504.041    612.069    504.041    504.041    504.041
 92.870    595.808    627.208    -31.400    503.827    627.160    503.827    503.827    503.827
 92.970    592.680    643.760    -51.079    503.612    643.705    503.612    503.612    503.612
 93.070    698.000    661.496     36.504    503.395    661.436    503.395    503.395    503.395
 93.170    680.838    680.036      0.802    503.176    679.970    503.176    503.176    503.176
 93.270    708.000    698.891      9.109    502.956    698.819    502.956    502.956    502.956
 93.370    731.000    717.507     13.493    502.735    717.431    502.735    502.735    502.735
 93.470    719.591    735.342    -15.751    502.512    735.264    502.512    502.512    502.512
 93.570    774.000    751.986     22.014    502.287    751.906    502.287    502.287    502.287
 93.670    792.000    767.253     24.747    502.061    767.172    502.061    502.061    502.061
 93.770    760.137    781.216    -21.079    501.834    781.136    501.834    501.834    501.834
 93.870    786.000    794.130     -8.130    501.605    794.051    501.605    501.605    501.605
 93.970    761.445    806.289    -44.844    501.374    806.211    501.374    501.374    501.374
 94.070    769.032    817.980    -48.948    501.143    817.903    501.143    501.143    501.143
 94.170    835.521    829.305      6.216    500.909    829.231    500.909    500.909    500.909
 94.270    830.000    840.296    -10.296    500.675    840.224    500.675    500.675    500.675
 94.370    880.000    850.970     29.030    500.439    850.900    500.439    500.439    500.439
 94.470    851.000    861.387    -10.387    500.201    861.321    500.201    500.201    500.201
 94.570    841.000    871.635    -30.635    499.963    871.571    499.963    499.963    499.963
 94.670    894.716    881.727     12.988    499.722    881.667    499.722    499.722    499.722
 94.770    868.000    891.480    -23.480    499.481    891.424    499.481    499.481    499.481
 94.870    901.000    900.417      0.583    499.238    900.365    499.238    499.238    499.238
 94.970    949.000    907.743     41.257    498.994    907.696    498.994    498.994    498.994
 95.070    897.455    912.417    -14.961    498.748    912.377    498.748    498.748    498.748
 95.170    855.756    913.310    -57.555    498.502    913.278    498.502    498.502    498.502
 95.270    916.000    909.460      6.540    498.254    909.436    498.254    498.254    498.254
 95.370    927.296    900.342     26.955    498.004    900.326    498.004    498.004    498.004
 95.470    941.000    886.062     54.938    497.754    886.054    497.754    497.754    497.754
 95.570    885.000    867.383     17.617    497.502    867.381    497.502    497.502    497.502
 95.670    829.895    845.572    -15.677    497.249    845.575    497.249    497.249    497.249
 95.770    834.000    822.177     11.823    496.995    822.183    496.995    496.995    496.995
 95.870    830.000    798.824     31.176    496.739    798.832    496.739    496.739    496.739
 95.970    740.336    777.092    -36.756    496.482    777.100    496.482    496.482    496.482
 96.070    766.000    758.443      7.557    496.225    758.449    496.225    496.225    496.225
 96.170    733.000    744.198    -11.198    495.966    744.200    495.966    495.966    495.966
 96.270    720.000    735.517    -15.517    495.706    735.515    495.706    495.706    495.706
 96.370    703.000    733.400    -30.400    495.444    733.392    495.444    495.444    495.444
 96.470    715.985    738.671    -22.686    495.182    738.657    495.182    495.182    495.182
 96.570    768.000    751.971     16.029    494.919    751.950    494.919    494.919    494.919
 96.670    772.967    773.740     -0.773    494.654    773.710    494.654    494.654    494.654
 96.770    782.654    804.191    -21.537    494.389    804.153    494.389    494.389    494.389
 96.870    823.878    843.282    -19.404    494.122    843.235    494.122    494.122    494.122
 96.970    897.000    890.665      6.335    493.855    890.609    493.855    493.855    493.855
 97.070    900.000    945.645    -45.645    493.586    945.581    493.586    493.586    493.586
 97.170    967.000   1007.119    -40.119    493.317   1007.047    493.317    493.317    493.317
 97.270   1023.000   1073.535    -50.535    493.046   1073.457    493.046    493.046    493.046
 97.370   1165.000   1142.850     22.150    492.775   1142.769    492.775    492.775    492.775
 97.470   1265.000   1212.511     52.489    492.503   1212.429    492.503    492.503    492.503
 97.570   1220.105   1279.469    -59.364    492.229   1279.389    492.229    492.229    492.229
 97.670   1373.000   1340.264     32.736    491.955   1340.190    491.955    491.955    491.955
 97.770   1427.000   1391.243     35.757    491.680   1391.178    491.680    491.680    491.680
 97.870   1433.817   1428.944      4.873    491.404   1428.892    491.404    491.404    491.404
 97.970   1496.000   1450.642     45.358    491.128   1450.607    491.128    491.128    491.128
 98.070   1491.000   1454.887     36.113    490.850   1454.871    490.850    490.850    490.850
 98.170   1402.504   1441.786    -39.283    490.572   1441.788    490.572    490.572    490.572
 98.270   1454.324   1412.955     41.369    490.293   1412.975    490.293    490.293    490.293
 98.370   1442.535   1371.133     71.402    490.013   1371.167    490.013    490.013    490.013
 98.470   1395.558   1319.678     75.880    489.732   1319.723    489.732    489.732    489.732
 98.570   1302.000   1262.125     39.875    489.451   1262.178    489.451    489.451    489.451
 98.670   1171.000   1201.857    -30.857    489.169   1201.913    489.169    489.169    489.169
 98.770   1166.000   1142.042     23.958    488.887   1142.099    488.887    488.887    488.887
 98.870   1119.000   1085.458     33.542    488.603   1085.513    488.603    488.603    488.603
 98.970   1027.000   1034.423     -7.423    488.320   1034.474    488.320    488.320    488.320
 99.070    980.000    990.904    -10.904    488.035    990.949    488.035    488.035    488.035
 99.170    945.000    956.514    -11.514    487.750    956.552    487.750    487.750    487.750
 99.270    957.384    932.539     24.845    487.465    932.569    487.465    487.465    487.465
 99.370    862.813    919.957    -57.144    487.178    919.980    487.178    487.178    487.178
 99.470    916.750    919.453     -2.703    486.892    919.469    486.892    486.892    486.892
 99.570    961.476    931.429     30.047    486.605    931.438    486.605    486.605    486.605
 99.670    981.000    956.009     24.991    486.317    956.013    486.317    486.317    486.317
 99.770   1017.730    993.048     24.681    486.029    993.049    486.029    486.029    486.029
 99.870   1101.000   1042.129     58.871    485.741   1042.128    485.741    485.741    485.741
 99.970   1191.000   1102.503     88.497    485.452   1102.502    485.452    485.452    485.452
100.070   1203.000   1173.083     29.917    485.163   1173.085    485.163    485.163    485.163
100.170   1306.530   1252.391     54.139    484.873   1252.399    484.873    484.873    484.873
100.270   1345.051   1338.517      6.534    484.584   1338.534    484.584    484.584    484.584
100.370   1374.000   1429.084    -55.084    484.293   1429.114    484.293    484.293    484.293
100.470   1561.000   1521.275     39.725    484.003   1521.320    484.003    484.003    484.003
100.570   1597.781   1611.922    -14.141    483.712   1611.986    483.712    483.712    483.712
100.670   1782.907   1697.727     85.180    483.422   1697.813    483.422    483.422    483.422
100.770   1729.000   1775.556    -46.556    483.131   1775.665    483.131    483.131    483.131
100.870   1793.080   1842.740    -49.660    482.840   1842.874    482.840    482.840    482.840
100.970   1852.979   1897.253    -44.274    482.548   1897.411    482.548    482.548    482.548
101.070   2005.203   1937.689     67.514    482.257   1937.869    482.257    482.257    482.257
101.170   2049.000   1963.088     85.912    481.965   1963.288    481.965    481.965    481.965
101.270   1976.000   1972.766      3.234    481.674   1972.983    481.674    481.674    481.674
101.370   2028.000   1966.307     61.693    481.382   1966.537    481.382    481.382    481.382
101.470   1966.914   1943.761     23.154    481.091   1944.000    481.091    481.091    481.091
101.570   1892.000   1905.952    -13.952    480.799   1906.197    480.799    480.799    480.799
101.670   1862.194   1854.710      7.484    480.508   1854.956    480.508    480.508    480.508
101.770   1779.792   1792.849    -13.058    480.217   1793.091    480.217    480.217    480.217
101.870   1707.000   1723.866    -16.866    479.925   1724.100    479.925    479.925    479.925
101.970   1654.000   1651.482      2.518    479.634   1651.705    479.634    479.634    479.634
102.070   1540.063   1579.196    -39.133    479.343   1579.405    479.343    479.343    479.343
102.170   1479.000   1509.959    -30.959    479.053   1510.154    479.053    479.053    479.053
102.270   1500.000   1446.006     53.994    478.762   1446.185    478.762    478.762    478.762
102.370   1402.000   1388.791     13.209    478.472   1388.955    478.472    478.472    478.472
102.470   1345.717   1339.004      6.713    478.182   1339.155    478.182    478.182    478.182
102.570   1283.000   1296.617    -13.617    477.893   1296.756    477.893    477.893    477.893
102.670   1314.358   1260.934     53.424    477.604   1261.062    477.604    477.604    477.604
102.770   1210.000   1230.742    -20.742    477.315   1230.861    477.315    477.315    477.315
102.870   1252.000   1204.381     47.619    477.026   1204.494    477.026    477.026    477.026
102.970   1207.446   1179.929     27.517    476.738   1180.038    476.738    476.738    476.738
103.070   1134.026   1155.471    -21.445    476.451   1155.577    476.451    476.451    476.451
103.170   1123.000   1129.363     -6.363    476.164   1129.467    476.164    476.164    476.164
103.270   1078.000   1100.466    -22.466    475.878   1100.569    475.878    475.878    475.878
103.370   1091.000   1068.270     22.730    475.592   1068.371    475.592    475.592    475.592
103.470    994.000   1032.867    -38.867    475.307   1032.966    475.307    475.307    475.307
103.570    983.000    994.821    -11.821    475.023    994.917    475.023    475.023    475.023
103.670    935.372    954.976    -19.603    474.739    955.068    474.739    474.739    474.739
103.770    979.400    914.274     65.126    474.456    914.361    474.456    474.456    474.456
103.870    888.768    873.651     15.117    474.173    873.733    474.173    474.173    474.173
103.970    861.000    833.963     27.037    473.892    834.038    473.892    473.892    473.892
104.070    757.558    795.948    -38.390    473.611    796.017    473.611    473.611    473.611
104.170    772.000    760.210     11.790    473.331    760.272    473.331    473.331    473.331
104.270    717.772    727.209     -9.437    473.052    727.264    473.052    473.052    473.052
104.370    716.540    697.258     19.282    472.774    697.307    472.774    472.774    472.774
104.470    686.000    670.532     15.468    472.497    670.574    472.497    472.497    472.497
104.570    691.564    647.074     44.489    472.221    647.110    472.221    472.221    472.221
104.670    655.308    626.817     28.491    471.946    626.847    471.946    471.946    471.946
104.770    558.124    609.605    -51.481    471.672    609.630    471.672    471.672    471.672
104.870    609.000    595.217     13.783    471.399    595.238    471.399    471.399    471.399
104.970    541.274    583.394    -42.120    471.128    583.410    471.128    471.128    471.128
105.070    597.052    573.858     23.194    470.857    573.871    470.857    470.857    470.857
105.170    616.000    566.335     49.665    470.588    566.345    470.588    470.588    470.588
105.270    551.412    560.572     -9.160    470.320    560.579    470.320    470.320    470.320
105.370    599.000    556.342     42.658    470.053    556.347    470.053    470.053    470.053
105.470    553.502    553.459      0.043    469.788    553.462    469.788    469.788    469.788
105.570    540.000    551.774    -11.774    469.524    551.774    469.524    469.524    469.524
105.670    577.000    551.179     25.821    469.262    551.177    469.262    469.262    469.262
105.770    567.000    551.604     15.396    469.001    551.600    469.001    469.001    469.001
105.870    606.000    553.012     52.988    468.741    553.006    468.741    468.741    468.741
105.970    600.755    555.393     45.362    468.483    555.385    468.483    468.483    468.483
106.070    565.187    558.758      6.429    468.226    558.747    468.226    468.226    468.226
106.170    553.000    563.133    -10.133    467.972    563.119    467.972    467.972    467.972
106.270    614.867    568.549     46.318    467.718    568.533    467.718    467.718    467.718
106.370    610.488    575.036     35.452    467.467    575.016    467.467    467.467    467.467
106.470    566.000    582.607    -16.607    467.217    582.585    467.217    467.217    467.217
106.570    567.000    591.247    -24.247    466.969    591.221    466.969    466.969    466.969
106.670    619.000    600.916     18.084    466.723    600.886    466.723    466.723    466.723
106.770    578.000    611.559    -33.559    466.479    611.526    466.479    466.479    466.479
106.870    622.000    623.030     -1.030    466.236    622.995    466.236    466.236    466.236
106.970    650.000    635.150     14.850    465.996    635.111    465.996    465.996    465.996
107.070    626.000    647.686    -21.686    465.758    647.644    465.758    465.758    465.758
107.170    644.000    660.356    -16.356    465.521    660.312    465.521    465.521    465.521
107.270    656.470    672.831    -16.361    465.287    672.785    465.287    465.287    465.287
107.370    632.247    684.744    -52.497    465.055    684.697    465.055    465.055    465.055
107.470    759.164    695.705     63.459    464.825    695.658    464.825    464.825    464.825
107.570    701.000    705.336     -4.336    464.597    705.289    464.597    464.597    464.597
107.670    720.000    713.305      6.695    464.372    713.259    464.372    464.372    464.372
107.770    689.000    719.381    -30.381    464.149    719.338    464.149    464.149    464.149
107.870    696.000    723.474    -27.474    463.928    723.434    463.928    463.928    463.928
107.970    696.827    725.662    -28.835    463.709    725.626    463.709    463.709    463.709
108.070    696.000    726.179    -30.179    463.493    726.147    463.493    463.493    463.493
108.170    729.180    725.380      3.800    463.280    725.352    463.280    463.280    463.280
108.270    704.280    723.687    -19.407    463.069    723.663    463.069    463.069    463.069
108.370    729.000    721.530      7.470    462.861    721.511    462.861    462.861    462.861
108.470    690.122    719.303    -29.181    462.655    719.288    462.655    462.655    462.655
108.570    680.000    717.329    -37.329    462.452    717.318    462.452    462.452    462.452
108.670    718.029    715.838      2.191    462.252    715.832    462.252    462.252    462.252
108.770    697.000    714.963    -17.963    462.054    714.960    462.054    462.054    462.054
108.870    707.000    714.728     -7.728    461.859    714.729    461.859    461.859    461.859
108.970    744.000    715.054     28.946    461.667    715.059    461.667    461.667    461.667
109.070    771.522    715.761     55.760    461.479    715.769    461.479    461.479    461.479
109.170    704.000    716.579    -12.579    461.293    716.590    461.293    461.293    461.293
109.270    712.000    717.166     -5.166    461.110    717.181    461.110    461.110    461.110
109.370    743.106    717.141     25.964    460.930    717.159    460.930    460.930    460.930
109.470    702.000    716.121    -14.121    460.753    716.141    460.753    460.753    460.753
109.570    663.000    713.770    -50.770    460.580    713.793    460.580    460.580    460.580
109.670    725.000    709.851     15.149    460.410    709.876    460.410    460.410    460.410
109.770    724.483    704.258     20.225    460.243    704.284    460.243    460.243    460.243
109.870    707.000    697.027      9.973    460.079    697.054    460.079    460.079    460.079
109.970    742.000    688.323     53.677    459.919    688.351    459.919    459.919    459.919
110.070    665.094    678.406    -13.313    459.762    678.433    459.762    459.762    459.762
110.170    719.467    667.589     51.878    459.608    667.615    459.608    459.608    459.608
110.270    662.000    656.202      5.798    459.459    656.227    459.459    459.459    459.459
110.370    633.000    644.569    -11.569    459.312    644.592    459.312    459.312    459.312
110.470    571.849    632.985    -61.136    459.170    633.007    459.170    459.170    459.170
110.570    672.000    621.712     50.288    459.031    621.731    459.031    459.031    459.031
110.670    616.008    610.972      5.036    458.896    610.990    458.896    458.896    458.896
110.770    582.000    600.948    -18.948    458.764    600.963    458.764    458.764    458.764
110.870    634.000    591.776     42.224    458.637    591.789    458.637    458.637    458.637
110.970    621.000    583.554     37.446    458.513    583.565    458.513    458.513    458.513
111.070    612.000    576.342     35.658    458.394    576.351    458.394    458.394    458.394
111.170    577.000    570.164      6.836    458.278    570.171    458.278    458.278    458.278
111.270    552.000    565.013    -13.013    458.167    565.018    458.167    458.167    458.167
111.370    590.000    560.857     29.143    458.060    560.859    458.060    458.060    458.060
111.470    576.822    557.641     19.181    457.957    557.642    457.957    457.957    457.957
111.570    612.530    555.300     57.230    457.858    555.299    457.858    457.858    457.858
111.670    544.000    553.755     -9.755    457.763    553.753    457.763    457.763    457.763
111.770    612.000    552.922     59.078    457.673    552.918    457.673    457.673    457.673
111.870    550.000    552.726     -2.726    457.588    552.722    457.588    457.588    457.588
111.970    537.000    553.087    -16.087    457.506    553.082    457.506    457.506    457.506
112.070    591.000    553.929     37.071    457.430    553.922    457.430    457.430    457.430
112.170    538.957    555.179    -16.222    457.358    555.172    457.358    457.358    457.358
112.270    535.606    556.802    -21.195    457.290    556.794    457.290    457.290    457.290
112.370    546.000    558.743    -12.743    457.228    558.735    457.228    457.228    457.228
112.470    568.000    560.969      7.031    457.170    560.960    457.170    457.170    457.170
112.570    511.951    563.461    -51.510    457.117    563.451    457.117    457.117    457.117
112.670    603.237    566.211     37.026    457.069    566.201    457.069    457.069    457.069
112.770    598.760    569.227     29.533    457.026    569.217    457.026    457.026    457.026
112.870    605.769    572.530     33.238    456.988    572.520    456.988    456.988    456.988
112.970    547.000    576.156    -29.156    456.955    576.145    456.955    456.955    456.955
113.070    552.000    580.153    -28.153    456.927    580.142    456.927    456.927    456.927
113.170    569.000    584.587    -15.587    456.904    584.576    456.904    456.904    456.904
113.270    653.000    589.545     63.455    456.887    589.533    456.887    456.887    456.887
113.370    586.000    595.136     -9.136    456.875    595.124    456.875    456.875    456.875
113.470    583.000    601.501    -18.501    456.868    601.488    456.868    456.868    456.868
113.570    603.852    608.820     -4.968    456.867    608.806    456.867    456.867    456.867
113.670    673.990    617.321     56.669    456.872    617.306    456.872    456.872    456.872
113.770    653.000    627.294     25.706    456.882    627.277    456.882    456.882    456.882
113.870    664.000    639.105     24.895    456.897    639.086    456.897    456.897    456.897
113.970    636.000    653.209    -17.209    456.919    653.187    456.919    456.919    456.919
114.070    688.000    670.171     17.829    456.946    670.144    456.946    456.946    456.946
114.170    729.000    690.681     38.319    456.979    690.649    456.979    456.979    456.979
114.270    751.809    715.573     36.236    457.018    715.535    457.018    457.018    457.018
114.370    725.124    745.844    -20.720    457.063    745.798    457.063    457.063    457.063
114.470    762.578    782.662    -20.084    457.114    782.607    457.114    457.114    457.114
114.570    850.000    827.380     22.620    457.172    827.312    457.172    457.172    457.172
114.670    872.182    881.532     -9.349    457.235    881.450    457.235    457.235    457.235
114.770    973.000    946.829     26.171    457.305    946.730    457.305    457.305    457.305
114.870   1018.000   1025.135     -7.135    457.381   1025.017    457.381    457.381    457.381
114.970   1170.000   1118.436     51.564    457.463   1118.296    457.463    457.463    457.463
115.070   1223.000   1228.784     -5.784    457.552   1228.618    457.552    457.552    457.552
115.170   1364.000   1358.236      5.764    457.647   1358.041    457.647    457.647    457.647
115.270   1534.000   1508.762     25.238    457.750   1508.535    457.750    457.750    457.750
115.370   1736.000   1682.150     53.850    457.858   1681.888    457.858    457.858    457.858
115.470   1902.185   1879.891     22.294    457.974   1879.592    457.974    457.974    457.974
115.570   2111.657   2103.053      8.604    458.096   2102.715    458.096    458.096    458.096
115.670   2447.000   2352.158     94.842    458.225   2351.780    458.225    458.225    458.225
115.770   2864.000   2627.056    236.944    458.361   2626.637    458.361    458.361    458.361
115.870   2970.937   2926.805     44.132    458.505   2926.348    458.505    458.505    458.505
115.970   3399.000   3249.577    149.423    458.655   3249.084    458.655    458.655    458.655
116.070   3589.000   3592.579     -3.579    458.812   3592.053    458.812    458.812    458.812
116.170   4018.000   3951.992     66.008    458.977   3951.440    458.977    458.977    458.977
116.270   4396.000   4322.956     73.044    459.149   4322.385    459.149    459.149    459.149
116.370   4704.983   4699.567      5.416    459.329   4698.986    459.329    459.329    459.329
116.470   5166.000   5074.918     91.082    459.516   5074.336    459.516    459.516    459.516
116.570   5497.000   5441.171     55.829    459.710   5440.601    459.710    459.710    459.710
116.670   5788.000   5789.685     -1.685    459.912   5789.140    459.912    459.912    459.912
116.770   6121.000   6111.222      9.778    460.122   6110.716    460.122    460.122    460.122
116.870   6489.000   6396.259     92.741    460.340   6395.806    460.340    460.340    460.340
116.970   6542.000   6635.444    -93.444    460.565   6635.059    460.565    460.565    460.565
117.070   6789.000   6820.197    -31.197    460.799   6819.893    460.799    460.799    460.799
117.170   7089.606   6943.424    146.181    461.040   6943.211    461.040    461.040    461.040
117.270   7146.257   7000.221    146.036    461.290   7000.106    461.290    461.290    461.290
117.370   6865.779   6988.435   -122.657    461.547   6988.421    461.547    461.547    461.547
117.470   6988.000   6908.924     79.076    461.813   6909.009    461.813    461.813    461.813
117.570   6817.000   6765.439     51.561    462.087   6765.617    462.087    462.087    462.087
117.670   6417.000   6564.172   -147.172    462.370   6564.433    462.370    462.370    462.370
117.770   6198.787   6313.079   -114.292    462.661   6313.410    462.661    462.661    462.661
117.870   5817.000   6021.123   -204.123    462.961   6021.511    462.961    462.961    462.961
117.970   5840.497   5697.767    142.730    463.269   5698.197    463.269    463.269    463.269
118.070   5291.000   5352.265    -61.265    463.586   5352.723    463.586    463.586    463.586
118.170   4911.000   4993.366    -82.366    463.912   4993.838    463.912    463.912    463.912
118.270   4633.485   4629.089      4.397    464.246   4629.563    464.246    464.246    464.246
118.370   4336.000   4266.561     69.439    464.590   4267.027    464.590    464.590    464.590
118.470   3848.243   3911.922    -63.678    464.942   3912.371    464.942    464.942    464.942
118.570   3541.000   3570.279    -29.279    465.304   3570.703    465.304    465.304    465.304
118.670   3266.484   3245.704     20.779    465.675   3246.098    465.675    465.675    465.675
118.770   2907.000   2941.260    -34.260    466.055   2941.619    466.055    466.055    466.055
118.870   2597.000   2659.060    -62.060    466.445   2659.382    466.445    466.445    466.445
118.970   2441.000   2400.355     40.645    466.844   2400.640    466.844    466.844    466.844
119.070   2256.566   2165.634     90.932    467.252   2165.882    467.252    467.252    467.252
119.170   1958.000   1954.736      3.264    467.670   1954.948    467.670    467.670    467.670
119.270   1675.616   1766.965    -91.348    468.098   1767.143    468.098    468.098    468.098
119.370   1546.000   1601.202    -55.202    468.536   1601.349    468.536    468.536    468.536
119.470   1447.000   1456.015     -9.015    468.983   1456.135    468.983    468.983    468.983
119.570   1325.000   1329.756     -4.756    469.441   1329.852    469.441    469.441    469.441
119.670   1212.000   1220.657     -8.657    469.908   1220.732    469.908    469.908    469.908
119.770   1092.447   1126.906    -34.459    470.386   1126.963    470.386    470.386    470.386
119.870   1085.000   1046.716     38.284    470.874   1046.759    470.874    470.874    470.874
119.970   1035.443    978.381     57.063    471.372    978.412    471.372    471.372    471.372
120.070    979.087    920.309     58.778    471.881    920.331    471.881    471.881    471.881
120.170    870.927    871.054     -0.126    472.400    871.069    472.400    472.400    472.400
120.270    857.000    829.323     27.677    472.929    829.334    472.929    472.929    472.929
120.370    745.000    793.987    -48.987    473.469    793.993    473.469    473.469    473.469
120.470    798.000    764.067     33.933    474.020    764.071    474.020    474.020    474.020
120.570    676.558    738.731    -62.173    474.582    738.734    474.582    474.582    474.582
120.670    698.000    717.280    -19.280    475.155    717.283    475.155    475.155    475.155
120.770    760.549    699.130     61.419    475.739    699.133    475.739    475.739    475.739
120.870    662.000    683.799    -21.799    476.334    683.802    476.334    476.334    476.334
120.970    651.000    670.889    -19.889    476.940    670.893    476.940    476.940    476.940
121.070    609.000    660.076    -51.076    477.557    660.081    477.557    477.557    477.557
121.170    653.000    651.094      1.906    478.186    651.099    478.186    478.186    478.186
121.270    602.115    643.724    -41.610    478.826    643.731    478.826    478.826    478.826
121.370    656.000    637.788     18.212    479.478    637.796    479.478    479.478    479.478
121.470    595.000    633.136    -38.136    480.141    633.144    480.141    480.141    480.141
121.570    620.000    629.642     -9.642    480.816    629.651    480.816    480.816    480.816
121.670    553.000    627.198    -74.198    481.503    627.209    481.503    481.503    481.503
121.770    607.000    625.709    -18.709    482.202    625.722    482.202    482.202    482.202
121.870    606.470    625.091    -18.621    482.913    625.105    482.913    482.913    482.913
121.970    576.649    625.262    -48.613    483.636    625.277    483.636    483.636    483.636
122.070    619.000    626.145     -7.145    484.372    626.163    484.372    484.372    484.372
122.170    641.668    627.665     14.003    485.119    627.685    485.119    485.119    485.119
122.270    626.000    629.744     -3.744    485.879    629.766    485.879    485.879    485.879
122.370    679.619    632.301     47.318    486.652    632.325    486.652    486.652    486.652
122.470    629.000    635.250     -6.250    487.437    635.277    487.437    487.437    487.437
122.570    629.000    638.502     -9.502    488.235    638.532    488.235    488.235    488.235
122.670    584.543    641.962    -57.418    489.046    641.994    489.046    489.046    489.046
122.770    695.237    645.527     49.709    489.869    645.562    489.869    489.869    489.869
122.870    708.629    649.092     59.538    490.706    649.130    490.706    490.706    490.706
122.970    680.874    652.544     28.330    491.556    652.585    491.556    491.556    491.556
123.070    680.000    655.770     24.230    492.418    655.814    492.418    492.418    492.418
123.170    663.000    658.656      4.344    493.295    658.703    493.295    493.295    493.295
123.270    701.000    661.092     39.908    494.184    661.142    494.184    494.184    494.184
123.370    715.000    662.979     52.021    495.087    663.031    495.087    495.087    495.087
123.470    656.000    664.232     -8.232    496.004    664.285    496.004    496.004    496.004
123.570    672.000    664.786      7.214    496.935    664.841    496.935    496.935    496.935
123.670    663.442    664.602     -1.160    497.879    664.658    497.879    497.879    497.879
123.770    708.526    663.668     44.858    498.837    663.726    498.837    498.837    498.837
123.870    632.017    662.000    -29.983    499.809    662.057    499.809    499.809    499.809
123.970    603.045    659.635    -56.590    500.795    659.692    500.795    500.795    500.795
124.070    689.000    656.631     32.369    501.796    656.688    501.796    501.796    501.796
124.170    643.000    653.061    -10.061    502.811    653.116    502.811    502.811    502.811
124.270    656.000    649.005      6.995    503.840    649.059    503.840    503.840    503.840
124.370    665.000    644.549     20.451    504.884    644.601    504.884    504.884    504.884
124.470    676.000    639.781     36.219    505.942    639.831    505.942    505.942    505.942
124.570    676.000    634.787     41.213    507.015    634.835    507.015    507.015    507.015
124.670    627.000    629.650     -2.650    508.103    629.695    508.103    508.103    508.103
124.770    649.994    624.448     25.545    509.206    624.491    509.206    509.206    509.206
124.870    618.512    619.257     -0.745    510.324    619.297    510.324    510.324    510.324
124.970    583.679    614.143    -30.464    511.457    614.180    511.457    511.457    511.457
