neutron_powder_diffraction_0201
R_wp: 4.138
Temperature (K): 1074.000
Counts: 83710.00
Wavelength (Ã…): 2.52098
COMMENTS
Test file for demonstrating the .xyy file format in Reel1.0
END OF HEADER
   tth       Y_obs     Y_calc      Y_res    Background    Phase_1_Nuc    Phase_1_Mag    Phase_2_Nuc    Phase_2_Mag
  9.970    585.127    566.583     18.544    565.907    566.558    565.907    565.932    565.907
 10.070    587.000    566.834     20.166    566.097    566.808    566.097    566.122    566.097
 10.170    601.000    567.082     33.918    566.280    567.056    566.280    566.306    566.280
 10.270    545.754    567.333    -21.579    566.457    567.307    566.457    566.482    566.457
 10.370    616.000    567.589     48.411    566.626    567.563    566.626    566.652    566.626
 10.470    559.000    567.853     -8.853    566.788    567.826    566.788    566.814    566.788
 10.570    589.000    568.129     20.871    566.944    568.102    566.944    566.970    566.944
 10.670    631.000    568.421     62.579    567.093    568.394    567.093    567.119    567.093
 10.770    564.376    568.736     -4.360    567.235    568.709    567.235    567.261    567.235
 10.870    572.000    569.083      2.917    567.370    569.055    567.370    567.397    567.370
 10.970    575.923    569.475      6.448    567.499    569.446    567.499    567.527    567.499
 11.070    562.856    569.928     -7.072    567.621    569.898    567.621    567.649    567.621
 11.170    520.596    570.468    -49.871    567.737    570.437    567.737    567.765    567.737
 11.270    536.000    571.134    -35.134    567.846    571.103    567.846    567.875    567.846
 11.370    578.000    571.995      6.005    567.949    571.964    567.949    567.978    567.949
 11.470    573.000    573.200     -0.200    568.046    573.168    568.046    568.075    568.046
 11.570    540.929    575.163    -34.234    568.136    575.129    568.136    568.166    568.136
 11.670    622.000    579.064     42.936    568.220    579.028    568.220    568.250    568.220
 11.770    609.841    587.653     22.188    568.298    587.610    568.298    568.330    568.298
 11.870    617.473    605.371     12.103    568.370    605.308    568.370    568.412    568.370
 11.970    641.000    635.645      5.355    568.436    635.563    568.436    568.480    568.436
 12.070    683.120    674.592      8.528    568.496    674.488    568.496    568.540    568.496
 12.170    704.000    705.241     -1.241    568.550    705.119    568.550    568.594    568.550
 12.270    660.000    706.288    -46.288    568.599    706.165    568.599    568.643    568.599
 12.370    700.301    676.833     23.468    568.641    676.727    568.641    568.685    568.641
 12.470    636.153    637.808     -1.654    568.678    637.724    568.678    568.722    568.678
 12.570    613.000    606.945      6.055    568.709    606.879    568.709    568.754    568.709
 12.670    569.116    588.731    -19.614    568.734    588.674    568.734    568.780    568.734
 12.770    567.000    579.905    -12.905    568.754    579.848    568.754    568.805    568.754
 12.870    595.000    575.958     19.042    568.769    575.903    568.769    568.820    568.769
 12.970    558.998    574.041    -15.043    568.778    573.986    568.778    568.830    568.778
 13.070    538.000    572.916    -34.916    568.781    572.861    568.781    568.833    568.781
 13.170    564.000    572.145     -8.145    568.780    572.091    568.780    568.832    568.780
 13.270    554.000    571.575    -17.575    568.772    571.521    568.772    568.825    568.772
 13.370    522.582    571.136    -48.554    568.760    571.082    568.760    568.813    568.760
 13.470    506.000    570.787    -64.787    568.743    570.732    568.743    568.796    568.743
 13.570    548.283    570.501    -22.218    568.720    570.447    568.720    568.774    568.720
 13.670    582.000    570.262     11.738    568.693    570.208    568.693    568.746    568.693
 13.770    610.076    570.057     40.018    568.660    570.003    568.660    568.714    568.660
 13.870    575.159    569.878      5.282    568.622    569.823    568.622    568.677    568.622
 13.970    530.000    569.716    -39.716    568.580    569.661    568.580    568.634    568.580
 14.070    551.000    569.569    -18.569    568.532    569.514    568.532    568.587    568.532
 14.170    610.988    569.432     41.556    568.480    569.376    568.480    568.535    568.480
 14.270    584.000    569.302     14.698    568.423    569.246    568.423    568.479    568.423
 14.370    562.000    569.178     -7.178    568.362    569.122    568.362    568.418    568.362
 14.470    544.000    569.058    -25.058    568.295    569.001    568.295    568.352    568.295
 14.570    561.000    568.943     -7.943    568.224    568.886    568.224    568.281    568.224
 14.670    540.000    568.828    -28.828    568.149    568.770    568.149    568.206    568.149
 14.770    591.000    568.711     22.289    568.069    568.654    568.069    568.126    568.069
 14.870    587.754    568.596     19.158    567.985    568.537    567.985    568.043    567.985
 14.970    559.000    568.481     -9.481    567.896    568.420    567.896    567.957    567.896
 15.070    538.000    568.364    -30.364    567.803    568.302    567.803    567.865    567.803
 15.170    553.000    568.247    -15.247    567.705    568.184    567.705    567.768    567.705
 15.270    549.091    568.125    -19.034    567.604    568.062    567.604    567.667    567.604
 15.370    542.000    568.002    -26.002    567.498    567.938    567.498    567.562    567.498
 15.470    536.000    567.876    -31.876    567.388    567.811    567.388    567.453    567.388
 15.570    572.000    567.747      4.253    567.274    567.682    567.274    567.339    567.274
 15.670    568.170    567.616      0.554    567.156    567.551    567.156    567.221    567.156
 15.770    539.000    567.483    -28.483    567.034    567.417    567.034    567.099    567.034
 15.870    532.000    567.346    -35.346    566.908    567.280    566.908    566.974    566.908
 15.970    581.330    567.207     14.123    566.778    567.140    566.778    566.844    566.778
 16.070    526.000    567.065    -41.065    566.644    566.998    566.644    566.711    566.644
 16.170    598.000    566.920     31.080    566.506    566.852    566.506    566.574    566.506
 16.270    535.368    566.772    -31.403    566.365    566.704    566.365    566.433    566.365
 16.370    534.000    566.621    -32.621    566.220    566.552    566.220    566.288    566.220
 16.470    581.000    566.466     14.534    566.071    566.398    566.071    566.139    566.071
 16.570    597.000    566.309     30.691    565.918    566.240    565.918    565.988    565.918
 16.670    583.000    566.149     16.851    565.762    566.080    565.762    565.832    565.762
 16.770    542.730    565.986    -23.257    565.603    565.916    565.603    565.673    565.603
 16.870    595.304    565.820     29.484    565.440    565.750    565.440    565.510    565.440
 16.970    565.000    565.652     -0.652    565.273    565.581    565.273    565.344    565.273
 17.070    520.574    565.480    -44.906    565.104    565.408    565.104    565.175    565.104
 17.170    577.000    565.305     11.695    564.930    565.233    564.930    565.002    564.930
 17.270    549.000    565.130    -16.130    564.754    565.057    564.754    564.827    564.754
 17.370    556.000    564.951     -8.951    564.574    564.877    564.574    564.649    564.574
 17.470    528.000    564.768    -36.768    564.391    564.693    564.391    564.466    564.391
 17.570    514.000    564.581    -50.581    564.205    564.506    564.205    564.281    564.205
 17.670    551.000    564.392    -13.392    564.016    564.316    564.016    564.092    564.016
 17.770    566.000    564.200      1.800    563.823    564.124    563.823    563.900    563.823
 17.870    544.322    564.006    -19.683    563.628    563.929    563.628    563.705    563.628
 17.970    596.028    563.808     32.219    563.430    563.731    563.430    563.507    563.430
 18.070    580.000    563.608     16.392    563.228    563.530    563.228    563.307    563.228
 18.170    522.253    563.406    -41.152    563.024    563.327    563.024    563.103    563.024
 18.270    607.000    563.201     43.799    562.817    563.121    562.817    562.896    562.817
 18.370    543.737    562.993    -19.256    562.607    562.913    562.607    562.687    562.607
 18.470    504.000    562.784    -58.784    562.394    562.703    562.394    562.475    562.394
 18.570    565.895    562.571      3.324    562.179    562.490    562.179    562.260    562.179
 18.670    593.000    562.356     30.644    561.961    562.274    561.961    562.042    561.961
 18.770    608.345    562.140     46.205    561.740    562.057    561.740    561.822    561.740
 18.870    569.000    561.921      7.079    561.516    561.838    561.516    561.599    561.516
 18.970    578.000    561.699     16.301    561.290    561.615    561.290    561.374    561.290
 19.070    564.252    561.475      2.778    561.062    561.390    561.062    561.146    561.062
 19.170    577.570    561.249     16.321    560.831    561.163    560.831    560.916    560.831
 19.270    574.000    561.024     12.976    560.597    560.934    560.597    560.688    560.597
 19.370    596.953    560.795     36.158    560.361    560.702    560.361    560.454    560.361
 19.470    610.000    560.563     49.437    560.123    560.469    560.123    560.217    560.123
 19.570    574.000    560.328     13.672    559.882    560.233    559.882    559.977    559.882
 19.670    576.000    560.092     15.908    559.639    559.997    559.639    559.735    559.639
 19.770    535.022    559.867    -24.846    559.394    559.771    559.394    559.490    559.394
 19.870    555.000    559.637     -4.637    559.146    559.540    559.146    559.244    559.146
 19.970    565.000    559.396      5.604    558.897    559.298    558.897    558.995    558.897
 20.070    575.000    559.153     15.847    558.645    559.054    558.645    558.744    558.645
 20.170    558.000    558.907     -0.907    558.391    558.807    558.391    558.491    558.391
 20.270    544.000    558.660    -14.660    558.135    558.560    558.135    558.236    558.135
 20.370    562.000    558.412      3.588    557.877    558.310    557.877    557.979    557.877
 20.470    522.000    558.162    -36.162    557.617    558.059    557.617    557.720    557.617
 20.570    562.000    557.911      4.089    557.355    557.807    557.355    557.459    557.355
 20.670    528.000    557.658    -29.658    557.091    557.554    557.091    557.196    557.091
 20.770    551.000    557.405     -6.405    556.826    557.299    556.826    556.931    556.826
 20.870    563.000    557.150      5.850    556.558    557.043    556.558    556.665    556.558
 20.970    553.188    556.894     -3.706    556.288    556.786    556.288    556.396    556.288
 21.070    566.000    556.637      9.363    556.017    556.529    556.017    556.126    556.017
 21.170    552.294    556.380     -4.086    555.744    556.270    555.744    555.854    555.744
 21.270    552.951    556.122     -3.171    555.470    556.011    555.470    555.581    555.470
 21.370    550.364    555.871     -5.508    555.193    555.759    555.193    555.306    555.193
 21.470    562.000    555.697      6.303    554.915    555.583    554.915    555.029    554.915
 21.570    570.000    555.459     14.541    554.636    555.345    554.636    554.751    554.636
 21.670    593.613    555.202     38.411    554.355    555.085    554.355    554.471    554.355
 21.770    550.000    554.943     -4.943    554.072    554.825    554.072    554.190    554.072
 21.870    577.634    554.684     22.949    553.788    554.565    553.788    553.907    553.788
 21.970    565.000    554.428     10.572    553.503    554.308    553.503    553.623    553.503
 22.070    536.000    554.193    -18.193    553.216    554.071    553.216    553.338    553.216
 22.170    548.477    553.968     -5.491    552.927    553.845    552.927    553.051    552.927
 22.270    544.000    553.721     -9.721    552.637    553.596    552.637    552.763    552.637
 22.370    524.000    553.470    -29.470    552.346    553.344    552.346    552.473    552.346
 22.470    526.000    553.227    -27.227    552.054    553.098    552.054    552.183    552.054
 22.570    518.000    553.028    -35.028    551.760    552.897    551.760    551.891    551.760
 22.670    563.710    552.806     10.904    551.465    552.674    551.465    551.598    551.465
 22.770    591.591    552.574     39.017    551.169    552.440    551.169    551.304    551.169
 22.870    554.000    552.349      1.651    550.872    552.214    550.872    551.008    550.872
 22.970    596.858    552.131     44.727    550.574    551.993    550.574    550.712    550.574
 23.070    566.682    551.923     14.759    550.274    551.783    550.274    550.415    550.274
 23.170    590.960    551.730     39.230    549.974    551.586    549.974    550.119    549.974
 23.270    598.672    551.553     47.119    549.672    551.406    549.672    549.820    549.672
 23.370    586.000    551.397     34.603    549.370    551.248    549.370    549.520    549.370
 23.470    528.689    551.271    -22.581    549.066    551.118    549.066    549.219    549.066
 23.570    557.000    551.182      5.818    548.762    551.027    548.762    548.917    548.762
 23.670    577.554    551.144     26.410    548.456    550.987    548.456    548.615    548.456
 23.770    523.702    551.177    -27.475    548.150    551.017    548.150    548.311    548.150
 23.870    559.084    551.312      7.772    547.843    551.149    547.843    548.007    547.843
 23.970    555.000    551.605      3.395    547.535    551.440    547.535    547.702    547.535
 24.070    553.000    552.192      0.808    547.226    552.024    547.226    547.397    547.226
 24.170    553.000    553.453     -0.453    546.917    553.282    546.917    547.091    546.917
 24.270    560.000    556.390      3.610    546.606    556.218    546.606    546.784    546.606
 24.370    598.000    563.063     34.937    546.295    562.892    546.295    546.477    546.295
 24.470    535.000    576.260    -41.260    545.984    576.094    545.984    546.169    545.984
 24.570    603.000    597.287      5.713    545.672    597.132    545.672    545.861    545.672
 24.670    616.000    621.993     -5.993    545.359    621.851    545.359    545.553    545.359
 24.770    645.000    638.290      6.710    545.045    638.156    545.045    545.244    545.045
 24.870    629.000    634.293     -5.293    544.731    634.152    544.731    544.935    544.731
 24.970    620.000    613.218      6.782    544.417    613.056    544.417    544.626    544.417
 25.070    592.593    588.455      4.138    544.101    588.270    544.101    544.316    544.101
 25.170    560.000    569.432     -9.432    543.786    569.228    543.786    544.007    543.786
 25.270    559.608    558.091      1.517    543.470    557.873    543.470    543.697    543.470
 25.370    553.000    552.337      0.663    543.153    552.108    543.153    543.387    543.153
 25.470    511.000    549.546    -38.546    542.837    549.308    542.837    543.078    542.837
 25.570    591.000    548.039     42.961    542.519    547.793    542.519    542.768    542.519
 25.670    566.312    547.062     19.250    542.202    546.806    542.202    542.459    542.202
 25.770    572.411    546.333     26.078    541.884    546.069    541.884    542.150    541.884
 25.870    499.112    545.752    -46.640    541.566    545.478    541.566    541.841    541.566
 25.970    591.000    545.274     45.726    541.247    544.989    541.247    541.533    541.247
 26.070    525.105    544.872    -19.767    540.929    544.576    540.929    541.226    540.929
 26.170    546.565    544.533      2.032    540.610    544.225    540.610    540.919    540.610
 26.270    514.000    544.251    -30.251    540.291    543.930    540.291    540.613    540.291
 26.370    546.000    544.046      1.954    539.972    543.711    539.972    540.307    539.972
 26.470    556.572    543.888     12.684    539.652    543.537    539.652    540.004    539.652
 26.570    502.716    543.769    -41.053    539.333    543.401    539.333    539.701    539.333
 26.670    558.000    543.717     14.283    539.013    543.330    539.013    539.400    539.013
 26.770    538.000    543.711     -5.711    538.694    543.304    538.694    539.101    538.694
 26.870    554.000    543.781     10.219    538.374    543.351    538.374    538.803    538.374
 26.970    483.000    543.947    -60.947    538.054    543.492    538.054    538.508    538.054
 27.070    552.000    544.235      7.765    537.735    543.753    537.735    538.216    537.735
 27.170    513.389    544.695    -31.306    537.415    544.181    537.415    537.928    537.415
 27.270    553.661    545.383      8.278    537.095    544.834    537.095    537.643    537.095
 27.370    564.000    546.352     17.648    536.776    545.764    536.776    537.362    536.776
 27.470    534.000    547.779    -13.779    536.456    547.146    536.456    537.087    536.456
 27.570    525.000    550.079    -25.079    536.137    549.395    536.137    536.818    536.137
 27.670    565.000    554.701     10.299    535.818    553.958    535.818    536.557    535.818
 27.770    540.914    566.516    -25.603    535.499    565.702    535.499    536.305    535.499
 27.870    629.907    597.714     32.193    535.180    596.812    535.180    536.064    535.180
 27.970    633.460    667.018    -33.559    534.862    666.002    534.862    535.836    534.862
 28.070    819.325    782.404     36.921    534.543    781.246    534.543    535.624    534.543
 28.170    898.000    911.112    -13.112    534.225    909.797    534.225    535.434    534.225
 28.270    959.000    974.533    -15.533    533.908    973.066    533.908    535.270    533.908
 28.370    919.747    920.853     -1.106    533.590    919.236    533.590    535.140    533.590
 28.470    755.330    805.193    -49.862    533.273    803.382    533.273    535.055    533.273
 28.570    707.000    715.576     -8.576    532.956    713.485    532.956    535.033    532.956
 28.670    701.000    697.358      3.642    532.640    694.878    532.640    535.103    532.640
 28.770    731.000    745.435    -14.435    532.324    742.418    532.324    535.319    532.324
 28.870    814.075    817.768     -3.693    532.008    813.980    532.008    535.780    532.008
 28.970    814.000    851.920    -37.920    531.693    846.959    531.693    536.653    531.693
 29.070    788.000    811.093    -23.093    531.378    804.290    531.378    538.190    531.378
 29.170    713.000    727.618    -14.618    531.064    717.989    531.064    540.704    531.064
 29.270    656.000    651.396      4.604    530.750    637.675    530.750    544.478    530.750
 29.370    583.316    604.944    -21.628    530.436    585.801    530.436    549.582    530.436
 29.470    630.000    585.252     44.748    530.124    559.820    530.124    555.556    530.124
 29.570    621.000    579.733     41.267    529.811    548.611    529.811    560.932    529.811
 29.670    603.990    577.434     26.556    529.500    543.657    529.500    563.275    529.500
 29.770    619.000    572.849     46.151    529.188    540.993    529.188    561.042    529.188
 29.870    547.777    565.788    -18.012    528.878    539.253    528.878    555.411    528.878
 29.970    553.390    558.264     -4.874    528.568    538.021    528.568    548.809    528.568
 30.070    531.000    551.793    -20.793    528.259    537.164    528.259    542.886    528.259
 30.170    571.000    546.960     24.040    527.950    536.656    527.950    538.251    527.950
 30.270    562.000    543.876     18.124    527.642    536.609    527.642    534.906    527.642
 30.370    546.977    542.731      4.246    527.335    537.469    527.335    532.593    527.335
 30.470    621.000    544.405     76.595    527.028    540.429    527.028    530.997    527.028
 30.570    562.000    550.865     11.135    526.723    547.721    526.723    529.854    526.723
 30.670    588.713    564.389     24.324    526.418    561.802    526.418    528.981    526.418
 30.770    597.000    584.817     12.183    526.113    582.622    526.113    528.269    526.113
 30.870    624.000    606.042     17.958    525.810    604.140    525.810    527.658    525.810
 30.970    567.000    615.726    -48.726    525.507    614.060    525.507    527.115    525.507
 31.070    612.021    605.713      6.308    525.205    604.251    525.205    526.619    525.205
 31.170    566.000    583.569    -17.569    524.904    582.282    524.904    526.160    524.904
 31.270    538.165    561.634    -23.469    524.604    560.492    524.604    525.730    524.604
 31.370    570.000    546.271     23.729    524.304    545.246    524.304    525.321    524.304
 31.470    514.187    537.752    -23.566    524.006    536.823    524.006    524.931    524.006
 31.570    579.000    533.668     45.332    523.708    532.819    523.708    524.555    523.708
 31.670    553.000    531.731     21.269    523.412    530.950    523.412    524.191    523.412
 31.770    554.000    530.676     23.324    523.116    529.953    523.116    523.837    523.116
 31.870    548.000    529.994     18.006    522.821    529.321    522.821    523.492    522.821
 31.970    515.787    529.507    -13.721    522.527    528.879    522.527    523.155    522.527
 32.070    550.711    529.157     21.554    522.234    528.567    522.234    522.823    522.234
 32.170    535.000    528.923      6.077    521.943    528.367    521.943    522.497    521.943
 32.270    539.000    528.797     10.203    521.652    528.271    521.652    522.176    521.652
 32.370    561.000    528.779     32.221    521.362    528.280    521.362    521.860    521.362
 32.470    537.000    528.879      8.121    521.073    528.404    521.073    521.547    521.073
 32.570    507.831    529.113    -21.282    520.785    528.659    520.785    521.238    520.785
 32.670    544.000    529.505     14.495    520.498    529.070    520.498    520.932    520.498
 32.770    531.698    530.095      1.603    520.213    529.678    520.213    520.629    520.213
 32.870    576.000    530.938     45.062    519.928    530.536    519.928    520.329    519.928
 32.970    546.000    532.116     13.884    519.645    531.728    519.645    520.031    519.645
 33.070    542.152    533.758      8.394    519.362    533.382    519.362    519.736    519.362
 33.170    521.000    536.093    -15.093    519.081    535.729    519.081    519.443    519.081
 33.270    539.000    539.658     -0.658    518.801    539.303    518.801    519.153    518.801
 33.370    578.000    545.918     32.082    518.522    545.572    518.522    518.864    518.522
 33.470    583.000    558.758     24.242    518.244    558.418    518.244    518.578    518.244
 33.570    583.000    586.661     -3.661    517.967    586.324    517.967    518.293    517.967
 33.670    638.000    643.136     -5.136    517.692    642.795    517.692    518.010    517.692
 33.770    719.000    740.502    -21.502    517.418    740.151    517.418    517.729    517.418
 33.870    874.442    874.976     -0.534    517.145    874.612    517.145    517.450    517.145
 33.970   1046.000   1009.906     36.094    516.873   1009.536    516.873    517.173    516.873
 34.070   1089.000   1076.005     12.995    516.603   1075.649    516.603    516.897    516.603
 34.170   1079.441   1026.312     53.130    516.333   1025.988    516.333    516.623    516.333
 34.270    886.011    897.614    -11.603    516.065    897.320    516.065    516.351    516.065
 34.370    718.836    759.630    -40.794    515.798    759.354    515.798    516.080    515.798
 34.470    692.000    654.833     37.167    515.533    654.563    515.533    515.811    515.533
 34.570    561.000    591.526    -30.526    515.269    591.256    515.269    515.544    515.269
 34.670    576.000    559.064     16.936    515.006    558.794    515.006    515.278    515.006
 34.770    581.000    543.654     37.346    514.744    543.386    514.744    515.013    514.744
 34.870    504.000    535.956    -31.956    514.484    535.689    514.484    514.751    514.484
 34.970    537.258    531.443      5.815    514.225    531.178    514.225    514.490    514.225
 35.070    525.000    528.338     -3.338    513.968    528.076    513.968    514.230    513.968
 35.170    534.056    525.993      8.063    513.712    525.732    513.712    513.972    513.712
 35.270    491.000    524.135    -33.135    513.457    523.876    513.457    513.716    513.457
 35.370    577.000    522.624     54.376    513.204    522.366    513.204    513.461    513.204
 35.470    555.352    521.367     33.984    512.951    521.111    512.951    513.208    512.951
 35.570    510.461    520.304     -9.842    512.701    520.048    512.701    512.956    512.701
 35.670    523.968    519.389      4.579    512.452    519.135    512.452    512.706    512.452
 35.770    502.996    518.592    -15.595    512.204    518.338    512.204    512.457    512.204
 35.870    510.344    517.888     -7.545    511.958    517.636    511.958    512.210    511.958
 35.970    527.000    517.261      9.739    511.713    517.009    511.713    511.965    511.713
 36.070    473.914    516.698    -42.783    511.469    516.446    511.469    511.721    511.469
 36.170    516.000    516.188     -0.188    511.227    515.936    511.227    511.478    511.227
 36.270    525.000    515.724      9.276    510.987    515.473    510.987    511.238    510.987
 36.370    534.449    515.302     19.148    510.747    515.050    510.747    510.999    510.747
 36.470    516.597    514.917      1.679    510.510    514.666    510.510    510.761    510.510
 36.570    501.000    514.570    -13.570    510.274    514.319    510.274    510.525    510.274
 36.670    536.863    514.261     22.602    510.039    514.009    510.039    510.291    510.039
 36.770    488.000    513.996    -25.996    509.806    513.745    509.806    510.058    509.806
 36.870    516.000    513.796      2.204    509.574    513.544    509.574    509.827    509.574
 36.970    504.000    513.714     -9.714    509.344    513.462    509.344    509.597    509.344
 37.070    518.868    513.876      4.991    509.116    513.623    509.116    509.369    509.116
 37.170    485.012    514.520    -29.508    508.889    514.266    508.889    509.143    508.889
 37.270    554.000    515.977     38.023    508.663    515.722    508.663    508.918    508.663
 37.370    487.000    518.514    -31.514    508.439    518.259    508.439    508.695    508.439
 37.470    546.000    522.027     23.973    508.217    521.772    508.217    508.474    508.217
 37.570    526.000    525.703      0.297    507.996    525.447    507.996    508.254    507.996
 37.670    519.620    527.997     -8.377    507.777    527.743    507.777    508.036    507.777
 37.770    518.000    527.627     -9.627    507.559    527.373    507.559    507.819    507.559
 37.870    539.000    524.916     14.084    507.343    524.663    507.343    507.605    507.343
 37.970    517.719    521.266     -3.547    507.129    521.014    507.129    507.392    507.129
 38.070    511.000    517.777     -6.777    506.916    517.523    506.916    507.180    506.916
 38.170    538.000    514.900     23.100    506.705    514.644    506.705    506.970    506.705
 38.270    502.000    512.751    -10.751    506.495    512.491    506.495    506.762    506.495
 38.370    521.065    511.261      9.804    506.287    510.997    506.287    506.556    506.287
 38.470    477.000    510.267    -33.267    506.080    509.999    506.080    506.351    506.080
 38.570    527.259    509.603     17.657    505.876    509.332    505.876    506.148    505.876
 38.670    523.000    509.139     13.861    505.672    508.865    505.672    505.947    505.672
 38.770    532.000    508.787     23.213    505.471    508.511    505.471    505.747    505.471
 38.870    530.367    508.494     21.873    505.271    508.216    505.271    505.549    505.271
 38.970    497.000    508.235    -11.235    505.073    507.955    505.073    505.353    505.073
 39.070    493.000    507.997    -14.997    504.876    507.714    504.876    505.159    504.876
 39.170    493.000    507.774    -14.774    504.681    507.489    504.681    504.966    504.681
 39.270    476.000    507.564    -31.564    504.488    507.277    504.488    504.775    504.488
 39.370    504.041    507.365     -3.325    504.296    507.075    504.296    504.586    504.296
 39.470    457.000    507.176    -50.176    504.106    506.883    504.106    504.399    504.106
 39.570    491.000    506.995    -15.995    503.918    506.700    503.918    504.213    503.918
 39.670    532.000    506.823     25.177    503.731    506.525    503.731    504.029    503.731
 39.770    493.158    506.658    -13.500    503.546    506.357    503.546    503.847    503.546
 39.870    550.902    506.502     44.400    503.363    506.198    503.363    503.667    503.363
 39.970    509.083    506.354      2.730    503.181    506.047    503.181    503.489    503.181
 40.070    531.000    506.214     24.786    503.002    505.904    503.002    503.312    503.002
 40.170    534.492    506.082     28.410    502.823    505.769    502.823    503.137    502.823
 40.270    519.445    505.961     13.485    502.647    505.644    502.647    502.964    502.647
 40.370    474.000    505.849    -31.849    502.472    505.529    502.472    502.792    502.472
 40.470    545.849    505.748     40.101    502.299    505.425    502.299    502.623    502.299
 40.570    536.000    505.660     30.340    502.128    505.333    502.128    502.455    502.128
 40.670    504.000    505.586     -1.586    501.958    505.255    501.958    502.289    501.958
 40.770    521.000    505.528     15.472    501.790    505.193    501.790    502.125    501.790
 40.870    492.000    505.489    -13.489    501.624    505.150    501.624    501.963    501.624
 40.970    480.235    505.473    -25.237    501.459    505.130    501.459    501.803    501.459
 41.070    514.438    505.483      8.955    501.297    505.136    501.297    501.645    501.297
 41.170    483.000    505.527    -22.527    501.136    505.176    501.136    501.488    501.136
 41.270    493.000    505.613    -12.613    500.976    505.257    500.976    501.333    500.976
 41.370    496.485    505.751     -9.266    500.819    505.390    500.819    501.180    500.819
 41.470    532.762    505.957     26.804    500.663    505.592    500.663    501.029    500.663
 41.570    493.000    506.257    -13.257    500.509    505.887    500.509    500.880    500.509
 41.670    479.655    506.695    -27.040    500.356    506.320    500.356    500.733    500.356
 41.770    486.839    507.374    -20.535    500.206    506.993    500.206    500.588    500.206
 41.870    550.940    508.536     42.404    500.057    508.151    500.057    500.445    500.057
 41.970    493.000    510.748    -17.748    499.909    510.357    499.909    500.303    499.909
 42.070    462.000    515.131    -53.131    499.764    514.737    499.764    500.164    499.764
 42.170    510.000    523.478    -13.478    499.620    523.081    499.620    500.027    499.620
 42.270    530.000    537.834     -7.834    499.478    537.437    499.478    499.891    499.478
 42.370    527.495    559.248    -31.753    499.338    558.855    499.338    499.758    499.338
 42.470    532.000    585.930    -53.930    499.200    585.543    499.200    499.626    499.200
 42.570    589.032    611.653    -22.621    499.063    611.273    499.063    499.497    499.063
 42.670    664.461    626.343     38.118    498.928    625.966    498.928    499.369    498.928
 42.770    558.000    622.329    -64.329    498.795    621.945    498.795    499.244    498.795
 42.870    559.000    601.944    -42.944    498.663    601.544    498.663    499.120    498.663
 42.970    589.000    574.765     14.235    498.533    574.343    498.533    498.999    498.533
 43.070    511.000    549.575    -38.575    498.405    549.130    498.405    498.879    498.405
 43.170    559.000    530.744     28.256    498.279    530.279    498.279    498.762    498.279
 43.270    483.051    518.745    -35.694    498.155    518.263    498.155    498.647    498.155
 43.370    477.279    511.969    -34.689    498.032    511.472    498.032    498.534    498.032
 43.470    486.000    508.394    -22.394    497.911    507.885    497.911    498.424    497.911
 43.570    515.000    506.489      8.511    497.791    505.969    497.791    498.315    497.791
 43.670    481.148    505.375    -24.227    497.674    504.842    497.674    498.209    497.674
 43.770    481.000    504.632    -23.632    497.558    504.087    497.558    498.105    497.558
 43.870    489.845    504.084    -14.239    497.444    503.527    497.444    498.003    497.444
 43.970    543.476    503.657     39.820    497.332    503.086    497.332    497.903    497.332
 44.070    544.165    503.314     40.851    497.221    502.730    497.221    497.806    497.221
 44.170    471.874    503.036    -31.161    497.112    502.438    497.112    497.711    497.112
 44.270    493.000    502.808     -9.808    497.005    502.195    497.005    497.619    497.005
 44.370    493.000    502.622     -9.622    496.900    501.993    496.900    497.529    496.900
 44.470    520.000    502.469     17.531    496.796    501.824    496.796    497.442    496.796
 44.570    456.000    502.346    -46.346    496.694    501.683    496.694    497.357    496.694
 44.670    535.494    502.248     33.246    496.594    501.567    496.594    497.275    496.594
 44.770    474.000    502.172    -28.172    496.496    501.472    496.496    497.196    496.496
 44.870    520.000    502.116     17.884    496.399    501.396    496.399    497.120    496.399
 44.970    462.748    502.080    -39.332    496.304    501.338    496.304    497.046    496.304
 45.070    517.000    502.061     14.939    496.211    501.297    496.211    496.976    496.211
 45.170    504.871    502.060      2.811    496.120    501.271    496.120    496.908    496.120
 45.270    557.000    502.076     54.924    496.030    501.261    496.030    496.844    496.030
 45.370    510.000    502.109      7.891    495.942    501.267    495.942    496.783    495.942
 45.470    538.143    502.160     35.983    495.855    501.289    495.855    496.726    495.855
 45.570    499.000    502.229     -3.229    495.771    501.327    495.771    496.672    495.771
 45.670    511.883    502.317      9.566    495.688    501.382    495.688    496.623    495.688
 45.770    486.264    502.426    -16.163    495.607    501.456    495.607    496.577    495.607
 45.870    503.000    502.558      0.442    495.527    501.549    495.527    496.536    495.527
 45.970    442.000    502.715    -60.715    495.449    501.665    495.449    496.499    495.449
 46.070    550.899    502.899     48.000    495.373    501.805    495.373    496.467    495.373
 46.170    482.961    503.115    -20.153    495.299    501.972    495.299    496.441    495.299
 46.270    517.000    503.367     13.633    495.226    502.172    495.226    496.420    495.226
 46.370    500.000    503.660     -3.660    495.155    502.409    495.155    496.406    495.155
 46.470    486.594    504.003    -17.409    495.086    502.690    495.086    496.398    495.086
 46.570    508.000    504.406      3.594    495.018    503.025    495.018    496.398    495.018
 46.670    544.805    504.885     39.920    494.952    503.430    494.952    496.406    494.952
 46.770    522.000    505.467     16.533    494.888    503.931    494.888    496.423    494.888
 46.870    539.000    506.209     32.791    494.826    504.584    494.826    496.450    494.826
 46.970    545.000    507.238     37.762    494.765    505.512    494.765    496.488    494.765
 47.070    525.000    508.825     16.175    494.706    506.988    494.706    496.539    494.706
 47.170    527.000    511.494     15.506    494.648    509.532    494.648    496.605    494.648
 47.270    528.586    516.089     12.497    494.592    513.986    494.592    496.687    494.592
 47.370    508.000    523.664    -15.664    494.538    521.399    494.538    496.789    494.538
 47.470    510.000    535.054    -25.054    494.485    532.603    494.485    496.913    494.485
 47.570    502.000    550.155    -48.155    494.434    547.492    494.434    497.063    494.434
 47.670    566.000    567.137     -1.137    494.385    564.231    494.385    497.245    494.385
 47.770    525.000    582.014    -57.014    494.337    578.831    494.337    497.464    494.337
 47.870    571.980    589.486    -17.506    494.291    585.990    494.291    497.729    494.291
 47.970    584.873    586.448     -1.575    494.247    582.591    494.247    498.049    494.247
 48.070    553.000    575.019    -22.019    494.204    570.741    494.204    498.439    494.204
 48.170    586.000    560.364     25.636    494.163    555.575    494.163    498.920    494.163
 48.270    524.000    546.963    -22.963    494.123    541.539    494.123    499.526    494.123
 48.370    480.000    537.256    -57.256    494.086    531.014    494.086    500.314    494.086
 48.470    505.450    531.860    -26.410    494.049    524.518    494.049    501.383    494.049
 48.570    519.000    530.329    -11.329    494.015    521.435    494.015    502.903    494.015
 48.670    511.244    531.966    -20.722    493.981    520.791    493.981    505.152    493.981
 48.770    519.000    536.363    -17.363    493.950    521.767    493.950    508.542    493.950
 48.870    554.000    543.584     10.416    493.920    523.885    493.920    513.615    493.920
 48.970    518.000    554.087    -36.087    493.892    527.001    493.892    520.973    493.892
 49.070    589.183    568.541     20.642    493.865    531.285    493.865    531.115    493.865
 49.170    542.782    587.757    -44.975    493.840    537.406    493.840    544.185    493.840
 49.270    620.000    613.014      6.986    493.816    547.191    493.816    559.630    493.816
 49.370    692.000    647.242     44.758    493.794    565.236    493.794    575.785    493.794
 49.470    746.992    697.514     49.478    493.773    601.725    493.773    589.535    493.773
 49.570    791.000    778.790     12.210    493.754    675.658    493.754    596.838    493.754
 49.670    904.000    916.559    -12.559    493.737    815.253    493.737    594.960    493.737
 49.770   1132.404   1141.374     -8.970    493.721   1050.280    493.721    584.685    493.721
 49.870   1512.000   1469.306     42.694    493.707   1393.259    493.707    569.579    493.707
 49.970   1836.000   1874.818    -38.818    493.694   1814.880    493.694    553.438    493.694
 50.070   2287.000   2273.790     13.210    493.683   2228.520    493.683    538.789    493.683
 50.170   2439.538   2537.044    -97.506    493.673   2503.824    493.673    526.822    493.673
 50.270   2492.216   2552.527    -60.311    493.664   2528.466    493.664    517.779    493.664
 50.370   2259.704   2309.019    -49.315    493.658   2291.477    493.658    511.350    493.658
 50.470   1919.000   1907.205     11.795    493.652   1894.072    493.652    506.973    493.652
 50.570   1491.000   1481.101      9.899    493.649   1470.866    493.649    504.057    493.649
 50.670   1028.000   1126.956    -98.956    493.646   1118.628    493.646    502.109    493.646
 50.770    930.220    882.688     47.532    493.645    875.657    493.645    500.770    493.645
 50.870    759.269    739.745     19.524    493.646    733.646    493.646    499.809    493.646
 50.970    633.720    667.210    -33.490    493.648    661.820    493.648    499.085    493.648
 51.070    685.000    632.603     52.397    493.651    627.776    493.651    498.518    493.651
 51.170    619.000    612.763      6.237    493.656    608.392    493.656    498.061    493.656
 51.270    587.000    596.200     -9.200    493.663    592.204    493.663    497.687    493.663
 51.370    628.000    580.034     47.966    493.671    576.349    493.671    497.378    493.671
 51.470    565.000    565.112     -0.112    493.680    561.689    493.680    497.120    493.680
 51.570    567.000    552.741     14.259    493.690    549.539    493.690    496.904    493.690
 51.670    567.064    543.543     23.521    493.702    540.529    493.702    496.724    493.702
 51.770    561.000    537.385     23.615    493.716    534.533    493.716    496.573    493.716
 51.870    535.000    533.687      1.313    493.731    530.973    493.731    496.448    493.731
 51.970    559.000    531.773     27.227    493.747    529.178    493.747    496.345    493.747
 52.070    523.000    531.116     -8.116    493.765    528.623    493.765    496.260    493.765
 52.170    578.000    531.425     46.575    493.784    529.018    493.784    496.192    493.784
 52.270    529.000    532.650     -3.650    493.804    530.317    493.804    496.138    493.804
 52.370    524.184    535.018    -10.834    493.826    532.747    493.826    496.098    493.826
 52.470    553.488    539.193     14.295    493.849    536.974    493.849    496.069    493.849
 52.570    538.487    546.639     -8.152    493.873    544.461    493.873    496.051    493.873
 52.670    579.000    560.151     18.849    493.899    558.008    493.899    496.042    493.899
 52.770    601.855    584.359     17.496    493.926    582.241    493.926    496.042    493.926
 52.870    661.782    625.642     36.140    493.954    623.542    493.954    496.051    493.954
 52.970    727.852    690.765     37.086    493.984    688.676    493.984    496.067    493.984
 53.070    734.640    783.834    -49.194    494.015    781.750    494.015    496.090    494.015
 53.170    916.000    902.084     13.916    494.047    900.001    494.047    496.121    494.047
 53.270   1043.000   1031.918     11.082    494.081   1029.834    494.081    496.159    494.081
 53.370   1095.000   1147.138    -52.138    494.116   1145.052    494.116    496.203    494.116
 53.470   1189.000   1213.689    -24.689    494.152   1211.601    494.152    496.253    494.152
 53.570   1153.000   1206.668    -53.668    494.189   1204.573    494.189    496.310    494.189
 53.670   1099.039   1129.206    -30.167    494.228   1127.094    494.228    496.373    494.228
 53.770    997.000   1009.572    -12.572    494.268   1007.432    494.268    496.442    494.268
 53.870    957.000    881.021     75.979    494.309    878.843    494.309    496.518    494.309
 53.970    724.000    767.435    -43.435    494.351    765.210    494.351    496.600    494.351
 54.070    683.514    680.186      3.328    494.394    677.909    494.394    496.688    494.394
 54.170    626.000    620.463      5.537    494.439    618.130    494.439    496.783    494.439
 54.270    576.000    583.402     -7.402    494.485    581.009    494.485    496.885    494.485
 54.370    535.000    562.159    -27.159    494.532    559.700    494.532    496.995    494.532
 54.470    569.446    550.637     18.810    494.581    548.108    494.581    497.111    494.581
 54.570    615.000    544.568     70.432    494.630    541.964    494.630    497.236    494.630
 54.670    584.000    541.437     42.563    494.681    538.750    494.681    497.369    494.681
 54.770    530.000    539.948     -9.948    494.732    537.170    494.732    497.511    494.732
 54.870    573.000    539.500     33.500    494.785    536.623    494.785    497.662    494.785
 54.970    493.052    539.837    -46.785    494.839    536.854    494.839    497.824    494.839
 55.070    536.076    540.868     -4.793    494.895    537.768    494.895    497.996    494.895
 55.170    545.859    542.579      3.279    494.951    539.351    494.951    498.180    494.951
 55.270    590.038    545.010     45.028    495.008    541.642    495.008    498.376    495.008
 55.370    585.020    548.252     36.768    495.067    544.732    495.067    498.587    495.067
 55.470    519.000    552.474    -33.474    495.126    548.788    495.126    498.813    495.126
 55.570    599.000    558.001     40.999    495.187    554.133    495.187    499.055    495.187
 55.670    512.000    565.510    -53.510    495.249    561.441    495.249    499.317    495.249
 55.770    604.000    576.468     27.532    495.312    572.180    495.312    499.598    495.312
 55.870    604.000    593.988     10.012    495.376    589.457    495.376    499.903    495.376
 55.970    669.966    624.165     45.801    495.440    619.365    495.440    500.234    495.440
 56.070    678.000    677.643      0.357    495.506    672.542    495.506    500.593    495.506
 56.170    717.706    770.411    -52.705    495.573    764.974    495.573    500.985    495.573
 56.270    877.000    922.132    -45.132    495.641    916.317    495.641    501.415    495.641
 56.370   1088.000   1150.321    -62.321    495.710   1144.086    495.710    501.887    495.710
 56.470   1530.467   1460.355     70.112    495.780   1453.655    495.780    502.408    495.780
 56.570   1805.000   1834.041    -29.041    495.851   1826.834    495.851    502.985    495.851
 56.670   2199.000   2221.389    -22.389    495.923   2213.635    495.923    503.628    495.923
 56.770   2641.897   2540.986    100.911    495.996   2532.640    495.996    504.348    495.996
 56.870   2656.947   2699.869    -42.922    496.070   2690.869    496.070    505.157    496.070
 56.970   2699.000   2642.292     56.708    496.145   2632.536    496.145    506.074    496.145
 57.070   2408.000   2391.000     17.000    496.220   2380.332    496.220    507.120    496.220
 57.170   2108.000   2028.197     79.803    496.297   2016.417    496.297    508.323    496.297
 57.270   1702.000   1644.072     57.928    496.375   1630.947    496.375    509.721    496.375
 57.370   1343.365   1304.139     39.226    496.453   1289.396    496.453    511.373    496.453
 57.470    995.606   1041.111    -45.505    496.532   1024.402    496.532    513.369    496.532
 57.570    889.000    859.773     29.227    496.613    840.608    496.613    515.861    496.613
 57.670    773.380    747.618     25.762    496.694    725.262    496.694    519.100    496.694
 57.770    738.095    686.180     51.915    496.776    659.481    496.776    523.502    496.776
 57.870    685.000    659.211     25.789    496.858    626.363    496.858    529.717    496.858
 57.970    701.440    656.448     44.993    496.942    614.693    496.942    538.697    496.942
 58.070    686.102    673.897     12.205    497.027    619.209    497.027    551.705    497.027
 58.170    691.000    712.184    -21.184    497.112    639.039    497.112    570.236    497.112
 58.270    792.213    774.093     18.120    497.198    675.480    497.198    595.778    497.198
 58.370    807.000    861.991    -54.991    497.285    729.815    497.285    629.417    497.285
 58.470    965.000    975.276    -10.276    497.373    801.279    497.373    671.316    497.373
 58.570   1076.000   1108.412    -32.412    497.461    885.711    497.461    720.103    497.461
 58.670   1302.000   1249.927     52.073    497.550    975.231    497.550    772.190    497.550
 58.770   1403.000   1383.502     19.498    497.640   1060.025    497.640    821.072    497.640
 58.870   1435.000   1491.107    -56.107    497.731   1131.440    497.731    857.369    497.731
 58.970   1567.000   1556.226     10.774    497.822   1182.608    497.822    871.431    497.822
 59.070   1581.851   1567.607     14.244    497.915   1206.722    497.915    858.814    497.915
 59.170   1490.773   1524.842    -34.069    498.008   1199.272    498.008    823.607    498.008
 59.270   1474.628   1441.154     33.474    498.101   1163.959    498.101    775.331    498.101
 59.370   1466.000   1338.678    127.322    498.195   1113.453    498.195    723.442    498.195
 59.470   1230.621   1239.968     -9.347    498.290   1063.661    498.290    674.594    498.290
 59.570   1189.838   1163.727     26.110    498.386   1029.566    498.386    632.507    498.386
 59.670   1185.000   1125.314     59.686    498.482   1025.062    498.482    598.648    498.482
 59.770   1112.000   1135.952    -23.952    498.579   1061.472    498.579    572.919    498.579
 59.870   1178.000   1198.189    -20.189    498.677   1142.400    498.677    554.266    498.677
 59.970   1337.000   1301.410     35.590    498.775   1258.716    498.775    541.213    498.775
 60.070   1488.000   1420.607     67.393    498.874   1386.921    498.874    532.262    498.874
 60.170   1593.000   1519.221     73.779    498.974   1491.748    498.974    526.135    498.974
 60.270   1561.185   1558.754      2.432    499.074   1535.672    499.074    521.865    499.074
 60.370   1539.000   1516.853     22.147    499.174   1497.001    499.174    518.792    499.174
 60.470   1405.000   1400.836      4.164    499.275   1383.454    499.275    516.491    499.275
 60.570   1296.000   1240.524     55.476    499.377   1225.088    499.377    514.708    499.377
 60.670   1101.263   1070.283     30.981    499.479   1056.410    499.479    513.296    499.479
 60.770    917.330    916.829      0.500    499.582    904.216    499.582    512.169    499.582
 60.870    803.000    795.134      7.866    499.686    783.526    499.686    511.283    499.686
 60.970    660.000    709.302    -49.302    499.790    698.472    499.790    510.613    499.790
 61.070    715.000    656.235     58.765    499.894    645.973    499.894    510.148    499.894
 61.170    680.000    630.218     49.782    499.999    620.323    499.999    509.881    499.999
 61.270    622.000    626.738     -4.738    500.104    617.016    500.104    509.804    500.104
 61.370    639.000    644.573     -5.573    500.210    634.847    500.210    509.902    500.210
 61.470    728.763    685.963     42.801    500.316    676.085    500.316    510.142    500.316
 61.570    718.000    755.005    -37.005    500.423    744.881    500.423    510.470    500.423
 61.670    817.005    854.667    -37.661    500.530    844.288    500.530    510.801    500.530
 61.770    949.000    983.108    -34.108    500.638    972.582    500.638    511.021    500.638
 61.870   1104.000   1130.432    -26.432    500.746   1119.990    500.746    511.014    500.746
 61.970   1238.982   1277.072    -38.090    500.854   1267.015    500.854    510.718    500.854
 62.070   1346.000   1395.063    -49.063    500.963   1385.672    500.963    510.161    500.963
 62.170   1433.000   1454.698    -21.698    501.072   1446.165    501.072    509.436    501.072
 62.270   1498.619   1437.968     60.651    501.182   1430.369    501.182    508.654    501.182
 62.370   1341.521   1349.813     -8.292    501.292   1343.127    501.292    507.899    501.292
 62.470   1179.000   1214.603    -35.603    501.402   1208.740    501.402    507.227    501.402
 62.570   1085.000   1062.438     22.562    501.513   1057.278    501.513    506.663    501.513
 62.670    905.000    918.287    -13.287    501.624    913.702    501.624    506.214    501.624
 62.770    791.672    797.683     -6.011    501.735    793.557    501.735    505.872    501.735
 62.870    742.514    706.648     35.866    501.847    702.881    501.847    505.623    501.847
 62.970    582.000    643.892    -61.892    501.958    640.408    501.958    505.449    501.958
 63.070    614.000    604.020      9.980    502.071    600.761    502.071    505.331    502.071
 63.170    640.000    580.507     59.493    502.183    577.433    502.183    505.256    502.183
 63.270    596.907    567.693     29.215    502.296    564.773    502.296    505.212    502.296
 63.370    580.073    561.643     18.430    502.408    558.855    502.408    505.190    502.408
 63.470    581.000    560.249     20.751    502.522    557.578    502.522    505.185    502.522
 63.570    572.000    562.993      9.007    502.635    560.424    502.635    505.193    502.635
 63.670    565.128    570.654     -5.526    502.748    568.177    502.748    505.211    502.748
 63.770    602.000    585.038     16.962    502.862    582.640    502.862    505.239    502.862
 63.870    602.842    608.597     -5.755    502.976    606.268    502.976    505.273    502.976
 63.970    660.173    643.816     16.357    503.090    641.546    503.090    505.315    503.090
 64.070    651.151    692.285    -41.133    503.205    690.063    503.205    505.362    503.205
 64.170    713.961    753.586    -39.625    503.319    751.404    503.319    505.415    503.319
 64.270    857.000    824.238     32.762    503.434    822.092    503.434    505.472    503.434
 64.370    927.000    897.034     29.966    503.548    894.921    503.548    505.535    503.548
 64.470   1024.204    961.276     62.928    503.663    959.202    503.663    505.601    503.663
 64.570   1052.000   1005.037     46.963    503.778   1003.009    503.778    505.671    503.778
 64.670   1079.681   1019.783     59.897    503.893   1017.811    503.893    505.745    503.893
 64.770    979.000   1004.182    -25.182    504.008   1002.271    504.008    505.822    504.008
 64.870    956.000    963.651     -7.651    504.123    961.805    504.123    505.902    504.123
 64.970    940.000    907.439     32.561    504.239    905.653    504.239    505.985    504.239
 65.070    883.000    845.582     37.418    504.354    843.850    504.354    506.070    504.354
 65.170    774.000    786.199    -12.199    504.469    784.516    504.469    506.157    504.469
 65.270    727.000    733.975     -6.975    504.584    732.329    504.584    506.247    504.584
 65.370    720.000    690.382     29.618    504.700    688.765    504.700    506.340    504.700
 65.470    626.024    655.040    -29.017    504.815    653.445    504.815    506.435    504.815
 65.570    609.000    627.000    -18.000    504.931    625.420    504.931    506.532    504.931
 65.670    645.190    605.246     39.944    505.046    603.678    505.046    506.631    505.046
 65.770    564.000    588.788    -24.788    505.161    587.229    505.161    506.732    505.161
 65.870    599.000    576.708     22.292    505.276    575.157    505.276    506.834    505.276
 65.970    559.000    568.218     -9.218    505.392    566.674    505.392    506.939    505.392
 66.070    532.814    562.657    -29.843    505.507    561.119    505.507    507.045    505.507
 66.170    556.000    559.474     -3.474    505.622    557.942    505.622    507.153    505.622
 66.270    595.992    558.218     37.774    505.737    556.691    505.737    507.263    505.737
 66.370    587.821    558.555     29.266    505.852    557.032    505.852    507.374    505.852
 66.470    576.380    560.304     16.076    505.966    558.783    505.966    507.487    505.966
 66.570    564.640    563.503      1.136    506.081    561.983    506.081    507.602    506.081
 66.670    512.000    568.525    -56.525    506.196    567.003    506.196    507.718    506.196
 66.770    598.025    576.286     21.739    506.310    574.760    506.310    507.836    506.310
 66.870    632.930    588.588     44.342    506.424    587.056    506.424    507.956    506.424
 66.970    614.000    608.602      5.398    506.538    607.061    506.538    508.077    506.538
 67.070    607.000    641.375    -34.375    506.652    639.822    506.652    508.200    506.652
 67.170    700.000    694.150      5.850    506.766    692.581    506.766    508.324    506.766
 67.270    733.000    776.076    -43.076    506.879    774.488    506.879    508.451    506.879
 67.370    814.000    896.905    -82.905    506.992    895.296    506.992    508.579    506.992
 67.470   1064.000   1064.435     -0.435    507.106   1062.806    507.106    508.709    507.106
 67.570   1214.359   1280.919    -66.560    507.218   1279.273    507.218    508.841    507.218
 67.670   1532.000   1539.268     -7.268    507.331   1537.615    507.331    508.976    507.331
 67.770   1788.156   1820.170    -32.014    507.443   1818.522    507.443    509.112    507.443
 67.870   2043.204   2091.199    -47.995    507.555   2089.570    507.555    509.251    507.555
 67.970   2323.000   2309.404     13.596    507.667   2307.807    507.667    509.393    507.667
 68.070   2422.471   2430.357     -7.886    507.778   2428.799    507.778    509.537    507.778
 68.170   2346.180   2424.962    -78.782    507.889   2423.433    507.889    509.683    507.889
 68.270   2290.000   2294.703     -4.703    508.000   2293.175    508.000    509.833    508.000
 68.370   2042.939   2070.719    -27.779    508.111   2069.157    508.111    509.987    508.111
 68.470   1893.000   1797.804     95.196    508.221   1796.175    508.221    510.143    508.221
 68.570   1502.235   1518.210    -15.976    508.331   1516.492    508.331    510.304    508.331
 68.670   1216.000   1263.283    -47.283    508.440   1261.460    508.440    510.469    508.440
 68.770   1087.000   1051.234     35.766    508.549   1049.301    508.549    510.638    508.549
 68.870    889.000    888.236      0.764    508.658    886.194    508.658    510.812    508.658
 68.970    720.000    771.423    -51.423    508.766    769.274    508.766    510.992    508.766
 69.070    651.000    692.715    -41.715    508.874    690.462    508.874    511.178    508.874
 69.170    643.000    642.334      0.666    508.982    639.977    508.982    511.370    508.982
 69.270    620.810    611.257      9.553    509.089    608.796    509.089    511.570    509.089
 69.370    617.000    592.420     24.580    509.195    589.851    509.195    511.778    509.195
 69.470    585.000    580.929      4.071    509.302    578.245    509.302    511.995    509.302
 69.570    595.000    573.714     21.286    509.407    570.906    509.407    512.222    509.407
 69.670    568.000    569.002     -1.002    509.513    566.058    509.513    512.461    509.513
 69.770    589.520    565.835     23.685    509.617    562.743    509.617    512.712    509.617
 69.870    573.000    563.720      9.280    509.722    560.466    509.722    512.978    509.722
 69.970    591.000    562.414     28.586    509.826    558.980    509.826    513.260    509.826
 70.070    564.000    561.804      2.196    509.929    558.171    509.929    513.561    509.929
 70.170    571.770    561.855      9.915    510.032    558.003    510.032    513.884    510.032
 70.270    546.250    562.599    -16.349    510.134    558.501    510.134    514.230    510.134
 70.370    540.278    564.149    -23.871    510.235    559.777    510.235    514.605    510.235
 70.470    581.323    566.762     14.560    510.337    562.083    510.337    515.013    510.337
 70.570    541.158    570.938    -29.780    510.437    565.911    510.437    515.458    510.437
 70.670    556.000    577.585    -21.585    510.537    572.165    510.537    515.949    510.537
 70.770    578.156    588.256    -10.100    510.637    582.387    510.637    516.493    510.637
 70.870    616.940    605.407     11.532    510.735    599.020    510.735    517.104    510.735
 70.970    630.635    632.631     -1.996    510.834    625.637    510.834    517.798    510.834
 71.070    669.778    674.669     -4.891    510.931    666.951    510.931    518.605    510.931
 71.170    756.410    737.065     19.345    511.028    728.461    511.028    519.568    511.028
 71.270    818.693    825.268     -6.575    511.124    815.544    511.124    520.760    511.124
 71.370    912.000    943.166    -31.166    511.220    931.970    511.220    522.297    511.220
 71.470   1110.780   1091.234     19.546    511.315   1078.032    511.315    524.364    511.315
 71.570   1303.649   1264.716     38.932    511.410   1248.704    511.410    527.237    511.410
 71.670   1420.018   1452.353    -32.334    511.503   1432.340    511.503    531.305    511.503
 71.770   1623.000   1636.064    -13.064    511.596   1610.349    511.596    537.086    511.596
 71.870   1887.000   1792.209     94.791    511.688   1758.467    511.688    545.207    511.688
 71.970   1961.699   1895.663     66.036    511.780   1850.892    511.780    556.349    511.780
 72.070   1943.000   1927.719     15.281    511.871   1868.283    511.871    571.140    511.871
 72.170   1933.000   1884.734     48.266    511.961   1806.568    511.961    590.001    511.961
 72.270   1782.000   1780.219      1.781    512.050   1679.220    512.050    612.963    512.050
 72.370   1756.000   1637.912    118.088    512.139   1510.521    512.139    639.476    512.139
 72.470   1484.000   1482.294      1.706    512.227   1326.246    512.227    668.244    512.227
 72.570   1401.000   1332.539     68.461    512.314   1147.743    512.314    697.095    512.314
 72.670   1266.000   1200.224     65.776    512.400    989.665    512.400    722.952    512.400
 72.770   1010.000   1089.377    -79.377    512.486    859.755    512.486    742.104    512.486
 72.870    957.000    998.297    -41.297    512.571    759.788    512.571    751.076    512.571
 72.970    878.000    922.606    -44.606    512.654    687.250    512.654    748.008    512.654
 73.070    803.000    858.113    -55.113    512.738    637.248    512.738    733.600    512.738
 73.170    759.000    802.109    -43.109    512.820    604.209    512.820    710.718    512.820
 73.270    642.000    753.222   -111.222    512.901    583.033    512.901    683.089    512.901
 73.370    626.000    710.850    -84.850    512.982    569.686    512.982    654.145    512.982
 73.470    643.000    674.754    -31.754    513.062    561.314    513.062    626.503    513.062
 73.570    626.000    644.816    -18.816    513.141    556.085    513.141    601.873    513.141
 73.670    607.688    620.861    -13.173    513.219    552.932    513.219    581.152    513.219
 73.770    561.000    602.547    -41.547    513.296    551.279    513.296    564.570    513.296
 73.870    640.000    589.327     50.673    513.372    550.833    513.372    551.875    513.372
 73.970    619.000    580.476     38.524    513.447    551.417    513.447    542.520    513.447
 74.070    605.000    575.161     29.839    513.522    552.867    513.522    535.834    513.522
 74.170    573.943    572.499      1.444    513.595    554.963    513.595    531.155    513.595
 74.270    605.000    571.600     33.400    513.668    557.387    513.668    527.910    513.668
 74.370    622.000    571.597     50.403    513.739    559.725    513.739    525.647    513.739
 74.470    577.061    571.675      5.385    513.810    561.490    513.810    524.036    513.810
 74.570    663.000    571.147     91.853    513.880    562.219    513.880    522.851    513.880
 74.670    590.292    569.575     20.717    513.948    561.620    513.948    521.947    513.948
 74.770    569.512    566.878      2.634    514.016    559.706    514.016    521.230    514.016
 74.870    624.000    563.317     60.683    514.083    556.794    514.083    520.644    514.083
 74.970    568.754    559.353      9.401    514.149    553.380    514.149    520.153    514.149
 75.070    607.000    555.509     51.491    514.213    550.012    514.213    519.737    514.213
 75.170    545.492    552.295     -6.803    514.277    547.212    514.277    519.379    514.277
 75.270    540.000    550.193    -10.193    514.340    545.476    514.340    519.070    514.340
 75.370    583.726    549.680     34.046    514.402    545.287    514.402    518.802    514.402
 75.470    550.000    551.249     -1.249    514.462    547.144    514.462    518.569    514.462
 75.570    544.000    555.418    -11.418    514.522    551.571    514.522    518.365    514.522
 75.670    533.000    562.706    -29.706    514.580    559.090    514.580    518.186    514.580
 75.770    602.890    573.547     29.342    514.638    570.138    514.638    518.030    514.638
 75.870    618.171    588.158     30.013    514.694    584.935    514.694    517.893    514.694
 75.970    606.026    606.371     -0.344    514.750    603.314    514.750    517.772    514.750
 76.070    616.000    627.474    -11.474    514.804    624.568    514.804    517.667    514.804
 76.170    597.000    650.108    -53.108    514.857    647.339    514.857    517.574    514.857
 76.270    705.000    672.238     32.762    514.909    669.595    514.909    517.492    514.909
 76.370    666.000    691.257    -25.257    514.960    688.731    514.960    517.421    514.960
 76.470    691.305    704.315    -13.010    515.010    701.900    515.010    517.358    515.010
 76.570    705.000    709.028     -4.028    515.059    706.719    515.059    517.303    515.059
 76.670    665.000    704.401    -39.401    515.106    702.194    515.106    517.255    515.106
 76.770    676.090    691.309    -15.219    515.153    689.199    515.153    517.213    515.153
 76.870    660.000    672.064    -12.064    515.198    670.045    515.198    517.176    515.198
 76.970    632.000    649.492    -17.492    515.242    647.559    515.242    517.144    515.242
 77.070    645.000    626.209     18.791    515.285    624.354    515.285    517.116    515.285
 77.170    607.000    604.259      2.741    515.327    602.477    515.327    517.093    515.327
 77.270    600.000    585.004     14.996    515.368    583.289    515.368    517.072    515.368
 77.370    575.000    569.130      5.870    515.407    567.475    515.407    517.054    515.407
 77.470    506.000    556.751    -50.751    515.445    555.153    515.445    517.039    515.445
 77.570    541.000    547.572     -6.572    515.482    546.025    515.482    517.026    515.482
 77.670    529.034    541.061    -12.027    515.518    539.562    515.518    517.016    515.518
 77.770    517.000    536.612    -19.612    515.553    535.156    515.553    517.007    515.553
 77.870    539.000    533.654      5.346    515.586    532.240    515.586    516.999    515.586
 77.970    492.370    531.719    -39.348    515.618    530.342    515.618    516.993    515.618
 78.070    489.000    530.453    -41.453    515.649    529.113    515.649    516.988    515.649
 78.170    519.000    529.615    -10.615    515.679    528.309    515.679    516.985    515.679
 78.270    488.380    529.048    -40.667    515.707    527.773    515.707    516.982    515.707
 78.370    481.979    528.640    -46.662    515.735    527.395    515.735    516.979    515.735
 78.470    497.000    528.356    -31.356    515.760    527.138    515.760    516.978    515.760
 78.570    512.000    528.203    -16.203    515.785    527.010    515.785    516.977    515.785
 78.670    549.000    528.157     20.843    515.808    526.987    515.808    516.977    515.808
 78.770    531.000    528.222      2.778    515.831    527.074    515.831    516.978    515.831
 78.870    554.000    528.416     25.584    515.851    527.287    515.851    516.979    515.851
 78.970    499.000    528.763    -29.763    515.871    527.651    515.871    516.982    515.871
 79.070    498.000    529.293    -31.293    515.889    528.195    515.889    516.986    515.889
 79.170    552.894    530.036     22.858    515.906    528.948    515.906    516.992    515.906
 79.270    536.000    531.022      4.978    515.921    529.940    515.921    517.001    515.921
 79.370    560.000    532.278     27.722    515.936    531.198    515.936    517.013    515.936
 79.470    544.000    533.832     10.168    515.948    532.747    515.948    517.030    515.948
 79.570    534.000    535.720     -1.720    515.960    534.622    515.960    517.053    515.960
 79.670    491.000    537.993    -46.993    515.970    536.875    515.970    517.083    515.970
 79.770    487.000    540.743    -53.743    515.979    539.596    515.979    517.121    515.979
 79.870    560.000    544.116     15.884    515.987    542.929    515.987    517.167    515.987
 79.970    550.864    548.341      2.523    515.993    547.106    515.993    517.222    515.993
 80.070    551.000    553.752     -2.752    515.998    552.461    515.998    517.283    515.998
 80.170    547.866    560.786    -12.920    516.001    559.434    516.001    517.349    516.001
 80.270    538.000    569.934    -31.934    516.003    568.519    516.003    517.417    516.003
 80.370    601.779    581.642     20.137    516.004    580.166    516.004    517.481    516.004
 80.470    578.000    596.192    -18.192    516.003    594.664    516.003    517.535    516.003
 80.570    588.000    613.593    -25.593    516.001    612.029    516.001    517.573    516.001
 80.670    631.000    633.496     -2.496    515.998    631.919    515.998    517.587    515.998
 80.770    660.000    655.151      4.849    515.993    653.588    515.993    517.574    515.993
 80.870    686.000    677.430      8.570    515.986    675.907    515.986    517.533    515.986
 80.970    690.000    698.949     -8.949    515.979    697.490    515.979    517.468    515.979
 81.070    740.000    718.268     21.732    515.970    716.888    515.970    517.386    515.970
 81.170    744.000    734.086      9.914    515.959    732.794    515.959    517.294    515.959
 81.270    723.000    745.358    -22.358    515.947    744.157    515.947    517.199    515.947
 81.370    728.000    751.380    -23.380    515.934    750.265    515.934    517.104    515.934
 81.470    745.173    751.865     -6.691    515.919    750.830    515.919    517.014    515.919
 81.570    727.658    746.959    -19.301    515.903    745.995    515.903    516.931    515.903
 81.670    784.000    737.187     46.813    515.885    736.283    515.885    516.855    515.885
 81.770    717.000    723.419     -6.419    515.866    722.564    515.866    516.787    515.866
 81.870    672.869    706.829    -33.960    515.845    706.014    515.845    516.726    515.845
 81.970    683.000    688.739     -5.739    515.823    687.955    515.823    516.672    515.823
 82.070    681.878    670.345     11.533    515.800    669.583    515.800    516.623    515.800
 82.170    674.000    652.501     21.499    515.775    651.756    515.775    516.578    515.775
 82.270    649.000    635.675     13.325    515.749    634.942    515.749    516.535    515.749
 82.370    629.000    620.057      8.943    515.721    619.332    515.721    516.495    515.721
 82.470    563.000    605.736    -42.736    515.692    605.016    515.692    516.456    515.692
 82.570    544.584    592.821    -48.237    515.661    592.103    515.661    516.417    515.661
 82.670    595.773    581.472     14.301    515.628    580.755    515.628    516.378    515.628
 82.770    535.527    571.863    -36.336    515.595    571.145    515.595    516.338    515.595
 82.870    544.021    564.146    -20.125    515.559    563.425    515.559    516.298    515.559
 82.970    558.000    558.433     -0.433    515.523    557.709    515.523    516.258    515.523
 83.070    569.000    554.786     14.214    515.485    554.058    515.485    516.216    515.485
 83.170    509.524    553.195    -43.671    515.445    552.463    515.445    516.173    515.445
 83.270    578.000    553.562     24.438    515.404    552.825    515.404    516.129    515.404
 83.370    576.622    555.676     20.946    515.361    554.934    515.361    516.084    515.361
 83.470    544.000    559.208    -15.208    515.317    558.460    515.317    516.038    515.317
 83.570    561.181    563.705     -2.524    515.271    562.953    515.271    515.991    515.271
 83.670    615.000    568.610     46.390    515.224    567.853    515.224    515.943    515.224
 83.770    530.000    573.280    -43.280    515.175    572.519    515.175    515.894    515.175
 83.870    565.000    577.042    -12.042    515.125    576.278    515.125    515.843    515.125
 83.970    529.911    579.280    -49.369    515.073    578.516    515.073    515.791    515.073
 84.070    561.136    579.564    -18.428    515.020    578.800    515.020    515.738    515.020
 84.170    580.000    577.762      2.238    514.965    577.001    514.965    515.683    514.965
 84.270    526.000    574.078    -48.078    514.909    573.320    514.909    515.628    514.909
 84.370    536.000    568.963    -32.963    514.851    568.209    514.851    515.571    514.851
 84.470    547.000    562.981    -15.981    514.792    562.232    514.792    515.513    514.792
 84.570    515.000    556.685    -41.685    514.731    555.939    514.731    515.453    514.731
 84.670    528.775    550.547    -21.772    514.669    549.804    514.669    515.393    514.669
 84.770    509.000    544.923    -35.923    514.605    544.182    514.605    515.331    514.605
 84.870    553.909    540.043     13.865    514.540    539.304    514.540    515.268    514.540
 84.970    505.000    536.017    -31.017    514.473    535.278    514.473    515.203    514.473
 85.070    579.429    532.852     46.578    514.404    532.112    514.404    515.138    514.404
 85.170    567.000    530.484     36.516    514.335    529.742    514.335    515.071    514.335
 85.270    513.000    528.809    -15.809    514.263    528.064    514.263    515.002    514.263
 85.370    505.000    527.709    -22.709    514.190    526.961    514.190    514.933    514.190
 85.470    536.058    527.079      8.979    514.115    526.328    514.115    514.862    514.115
 85.570    555.000    526.839     28.161    514.039    526.083    514.039    514.790    514.039
 85.670    540.459    526.943     13.516    513.962    526.183    513.962    514.717    513.962
 85.770    501.224    527.390    -26.165    513.883    526.623    513.883    514.643    513.883
 85.870    525.000    528.218     -3.218    513.802    527.445    513.802    514.567    513.802
 85.970    534.000    529.512      4.488    513.720    528.732    513.720    514.490    513.720
 86.070    583.000    531.398     51.602    513.636    530.610    513.636    514.412    513.636
 86.170    533.000    534.038     -1.038    513.551    533.241    513.551    514.333    513.551
 86.270    571.000    537.617     33.383    513.464    536.809    513.464    514.252    513.464
 86.370    553.778    542.324     11.454    513.376    541.502    513.376    514.170    513.376
 86.470    546.000    548.321     -2.321    513.286    547.485    513.286    514.087    513.286
 86.570    527.405    555.711    -28.306    513.194    554.859    513.194    514.003    513.194
 86.670    560.000    564.494     -4.494    513.102    563.624    513.102    513.918    513.102
 86.770    580.362    574.527      5.835    513.007    573.637    513.007    513.832    513.007
 86.870    599.193    585.494     13.699    512.911    584.584    512.911    513.744    512.911
 86.970    570.573    596.894    -26.320    512.814    595.962    512.814    513.656    512.814
 87.070    599.000    608.036     -9.036    512.715    607.085    512.715    513.566    512.715
 87.170    568.006    618.081    -50.075    512.614    617.111    512.614    513.475    512.614
 87.270    671.000    626.101     44.899    512.512    625.114    512.512    513.384    512.512
 87.370    620.000    631.262    -11.262    512.409    630.262    512.409    513.291    512.409
 87.470    631.000    632.984     -1.984    512.303    631.975    512.303    513.197    512.303
 87.570    681.000    631.109     49.891    512.197    630.096    512.197    513.103    512.197
 87.670    654.000    625.973     28.027    512.089    624.957    512.089    513.007    512.089
 87.770    614.844    618.285     -3.441    511.979    617.269    511.979    512.911    511.979
 87.870    614.000    608.962      5.038    511.868    607.945    511.868    512.813    511.868
 87.970    551.520    598.967    -47.448    511.755    597.950    511.755    512.715    511.755
 88.070    587.000    589.214     -2.214    511.641    588.194    511.641    512.616    511.641
 88.170    534.604    580.489    -45.885    511.526    579.465    511.526    512.517    511.526
 88.270    628.000    573.413     54.587    511.408    572.384    511.408    512.416    511.408
 88.370    589.678    568.416     21.261    511.290    567.380    511.290    512.314    511.290
 88.470    565.000    565.729     -0.729    511.170    564.683    511.170    512.213    511.170
 88.570    556.243    565.383     -9.140    511.048    564.324    511.048    512.111    511.048
 88.670    586.000    567.226     18.774    510.925    566.154    510.925    512.009    510.925
 88.770    570.000    570.941     -0.941    510.800    569.855    510.800    511.907    510.800
 88.870    572.000    576.064     -4.064    510.674    574.962    510.674    511.804    510.674
 88.970    591.842    582.011      9.831    510.546    580.892    510.546    511.701    510.546
 89.070    625.000    588.107     36.893    510.417    586.969    510.417    511.599    510.417
 89.170    620.000    593.623     26.377    510.287    592.464    510.287    511.496    510.287
 89.270    569.773    597.841    -28.068    510.155    596.658    510.155    511.394    510.155
 89.370    560.000    600.145    -40.145    510.021    598.935    510.021    511.292    510.021
 89.470    653.000    600.141     52.859    509.886    598.900    509.886    511.190    509.886
 89.570    578.000    597.745    -19.745    509.750    596.468    509.750    511.090    509.750
 89.670    596.850    593.194      3.656    509.612    591.876    509.612    510.991    509.612
 89.770    561.000    586.960    -25.960    509.473    585.597    509.473    510.892    509.473
 89.870    606.081    579.627     26.454    509.332    578.215    509.332    510.796    509.332
 89.970    529.256    571.784    -42.528    509.190    570.318    509.190    510.701    509.190
 90.070    529.493    563.955    -34.461    509.046    562.431    509.046    510.608    509.046
 90.170    574.000    556.560     17.440    508.901    554.975    508.901    510.518    508.901
 90.270    546.000    549.905     -3.905    508.755    548.254    508.755    510.431    508.755
 90.370    533.142    544.173    -11.031    508.607    542.452    508.607    510.348    508.607
 90.470    577.441    539.443     37.998    508.458    537.646    508.458    510.269    508.458
 90.570    538.915    535.702      3.213    508.307    533.824    508.307    510.196    508.307
 90.670    500.000    532.878    -32.878    508.155    530.910    508.155    510.130    508.155
 90.770    502.433    530.861    -28.428    508.002    528.794    508.002    510.073    508.002
 90.870    548.000    529.532     18.468    507.847    527.354    507.847    510.027    507.847
 90.970    550.806    528.780     22.026    507.690    526.475    507.690    509.997    507.690
 91.070    521.000    528.521     -7.521    507.533    526.067    507.533    509.986    507.533
 91.170    531.238    528.697      2.541    507.374    526.067    507.374    510.003    507.374
 91.270    555.000    529.264     25.736    507.213    526.420    507.213    510.056    507.213
 91.370    501.000    530.325    -29.325    507.052    527.217    507.052    510.157    507.052
 91.470    548.452    531.952     16.500    506.888    528.513    506.888    510.323    506.888
 91.570    503.017    534.257    -31.240    506.724    530.401    506.724    510.574    506.724
 91.670    513.000    537.416    -24.416    506.558    533.033    506.558    510.934    506.558
 91.770    570.000    541.650     28.350    506.391    536.599    506.391    511.432    506.391
 91.870    501.000    547.201    -46.201    506.223    541.310    506.223    512.101    506.223
 91.970    602.629    554.329     48.301    506.053    547.389    506.053    512.975    506.053
 92.070    546.000    563.282    -17.282    505.882    555.051    505.882    514.091    505.882
 92.170    544.000    574.274    -30.274    505.709    564.476    505.709    515.479    505.709
 92.270    636.000    587.449     48.551    505.536    575.783    505.536    517.168    505.536
 92.370    645.000    602.853     42.147    505.361    589.001    505.361    519.173    505.361
 92.470    597.000    620.403    -23.403    505.185    604.045    505.185    521.495    505.185
 92.570    613.271    639.864    -26.592    505.007    620.700    505.007    524.116    505.007
 92.670    635.813    660.833    -25.020    504.828    638.606    504.828    526.993    504.828
 92.770    705.734    682.741     22.993    504.648    657.258    504.648    530.063    504.648
 92.870    785.000    704.867     80.133    504.467    676.033    504.467    533.227    504.467
 92.970    739.644    726.385     13.259    504.284    694.237    504.284    536.354    504.284
 93.070    756.994    746.474     10.520    504.101    711.210    504.101    539.283    504.101
 93.170    711.497    764.452    -52.955    503.916    726.463    503.916    541.822    503.916
 93.270    810.000    779.895     30.105    503.729    739.775    503.729    543.767    503.729
 93.370    829.000    792.667     36.333    503.542    751.199    503.542    544.929    503.542
 93.470    789.000    802.899    -13.899    503.354    761.000    503.354    545.174    503.354
 93.570    874.000    810.912     63.088    503.164    769.542    503.164    544.457    503.164
 93.670    831.000    817.154     13.846    502.973    777.216    502.973    542.837    502.973
 93.770    888.000    822.181     65.819    502.781    784.431    502.781    540.458    502.781
 93.870    854.000    826.649     27.351    502.588    791.653    502.588    537.515    502.588
 93.970    861.000    831.296     29.704    502.393    799.412    502.393    534.210    502.393
 94.070    790.104    836.831    -46.727    502.198    808.232    502.198    530.731    502.198
 94.170    835.698    843.769     -8.071    502.001    818.468    502.001    527.238    502.001
 94.270    870.000    852.259     17.741    501.803    830.145    501.803    523.855    501.803
 94.370    857.566    861.971     -4.404    501.604    842.840    501.604    520.675    501.604
 94.470    918.112    872.075     46.037    501.404    855.661    501.404    517.762    501.404
 94.570    927.000    881.309     45.691    501.203    867.307    501.203    515.153    501.203
 94.670    960.000    888.112     71.888    501.001    876.204    501.001    512.864    501.001
 94.770    901.000    890.861     10.139    500.798    880.730    500.798    510.890    500.798
 94.870    931.000    888.170     42.830    500.594    879.519    500.594    509.214    500.594
 94.970    940.000    879.217     60.783    500.389    871.774    500.389    507.809    500.389
 95.070    912.843    863.965     48.877    500.182    857.493    500.182    506.642    500.182
 95.170    823.000    843.186    -20.186    499.975    837.479    499.975    505.677    499.975
 95.270    845.406    818.283     27.123    499.767    813.171    499.767    504.879    499.767
 95.370    810.893    791.038     19.855    499.558    786.384    499.558    504.217    499.558
 95.470    770.000    763.382      6.618    499.347    759.073    499.347    503.663    499.347
 95.570    747.000    737.212      9.788    499.136    733.162    499.136    503.193    499.136
 95.670    749.000    714.355     34.645    498.924    710.497    498.924    502.788    498.924
 95.770    712.000    696.425     15.575    498.711    692.708    498.711    502.431    498.711
 95.870    659.546    684.838    -25.292    498.497    681.219    498.497    502.113    498.497
 95.970    715.000    680.803     34.197    498.282    677.252    498.282    501.824    498.282
 96.070    705.000    685.327     19.673    498.066    681.819    498.066    501.557    498.066
 96.170    729.510    699.216     30.293    497.850    695.729    497.850    501.309    497.850
 96.270    760.614    723.056     37.558    497.632    719.575    497.632    501.076    497.632
 96.370    759.207    757.177      2.031    497.414    753.685    497.414    500.856    497.414
 96.470    800.000    801.573     -1.573    497.195    798.059    497.195    500.647    497.195
 96.570    890.858    855.817     35.041    496.975    852.269    496.975    500.449    496.975
 96.670    909.000    918.953     -9.953    496.754    915.360    496.754    500.261    496.754
 96.770   1028.000    989.409     38.591    496.532    985.762    496.532    500.083    496.532
 96.870   1000.793   1064.934    -64.141    496.310   1061.226    496.310    499.914    496.310
 96.970   1199.229   1142.591     56.638    496.086   1138.813    496.086    499.755    496.086
 97.070   1252.866   1218.796     34.070    495.862   1214.942    495.862    499.605    495.862
 97.170   1245.000   1289.429    -44.429    495.638   1285.493    495.638    499.466    495.638
 97.270   1412.160   1350.087     62.074    495.412   1346.062    495.412    499.338    495.412
 97.370   1426.480   1396.502     29.978    495.186   1392.381    495.186    499.221    495.186
 97.470   1405.000   1425.136    -20.136    494.959   1420.911    494.959    499.116    494.959
 97.570   1422.641   1433.821    -11.180    494.732   1429.481    494.732    499.025    494.732
 97.670   1482.095   1422.200     59.895    494.504   1417.730    494.504    498.948    494.504
 97.770   1340.713   1391.741    -51.029    494.275   1387.124    494.275    498.888    494.275
 97.870   1317.000   1345.358    -28.358    494.045   1340.571    494.045    498.846    494.045
 97.970   1268.831   1286.834    -18.003    493.815   1281.852    493.815    498.827    493.815
 98.070   1160.000   1220.301    -60.301    493.585   1215.093    493.585    498.833    493.585
 98.170   1140.000   1149.860     -9.860    493.354   1144.390    493.354    498.871    493.354
 98.270   1151.000   1079.339     71.661    493.122   1073.563    493.122    498.948    493.122
 98.370    964.141   1012.144    -48.004    492.889   1006.008    492.889    499.075    492.889
 98.470    922.000    951.183    -29.183    492.657    944.619    492.657    499.266    492.657
 98.570    955.222    898.842     56.381    492.423    891.765    492.423    499.539    492.423
 98.670    853.000    857.008     -4.008    492.189    849.309    492.189    499.920    492.189
 98.770    812.137    827.120    -14.983    491.955    818.657    491.955    500.441    491.955
 98.870    805.556    810.238     -4.682    491.720    800.829    491.720    501.142    491.720
 98.970    797.254    807.119     -9.865    491.485    796.530    491.485    502.077    491.485
 99.070    783.000    818.279    -35.279    491.250    806.216    491.250    503.306    491.250
 99.170    821.000    844.026    -23.026    491.013    830.119    491.013    504.905    491.013
 99.270    859.598    884.443    -24.846    490.777    868.240    490.777    506.958    490.777
 99.370    922.384    939.396    -17.012    490.540    920.349    490.540    509.560    490.540
 99.470   1022.000   1008.401     13.599    490.303    985.863    490.303    512.810    490.303
 99.570   1080.000   1090.547    -10.547    490.066   1063.771    490.066    516.809    490.066
 99.670   1133.000   1184.415    -51.415    489.828   1152.560    489.828    521.653    489.828
 99.770   1300.000   1287.980     12.020    489.590   1250.124    489.590    527.422    489.590
 99.870   1393.000   1398.551     -5.551    489.352   1353.713    489.352    534.175    489.352
 99.970   1573.826   1512.757     61.070    489.113   1459.934    489.113    541.935    489.113
100.070   1694.000   1626.619     67.381    488.874   1564.829    488.874    550.682    488.874
100.170   1710.000   1735.754    -25.754    488.635   1664.085    488.635    560.343    488.635
100.270   1851.000   1835.695     15.305    488.396   1753.369    488.396    570.784    488.396
100.370   1966.190   1922.297     43.893    488.157   1828.741    488.157    581.802    488.157
100.470   2021.000   1992.081     28.919    487.917   1886.994    487.917    593.119    487.917
100.570   2102.000   2042.388     59.612    487.678   1925.823    487.678    604.381    487.678
100.670   2170.000   2071.363     98.637    487.438   1943.804    487.438    615.157    487.438
100.770   2136.000   2077.909     58.091    487.198   1940.337    487.198    624.948    487.198
100.870   2104.000   2061.770     42.230    486.958   1915.709    486.958    633.211    486.958
100.970   2029.000   2023.775      5.225    486.719   1871.288    486.719    639.406    486.719
101.070   1956.000   1966.079    -10.079    486.479   1809.698    486.479    643.065    486.479
101.170   1909.000   1892.188     16.812    486.239   1734.753    486.239    643.878    486.239
101.270   1848.624   1806.651     41.973    485.999   1651.090    485.999    641.757    485.999
101.370   1751.000   1714.527     36.473    485.759   1563.614    485.759    636.859    485.759
101.470   1558.000   1620.802    -62.802    485.519   1476.948    485.519    629.546    485.519
101.570   1521.000   1529.909     -8.909    485.280   1395.031    485.280    620.317    485.280
101.670   1439.000   1445.420     -6.420    485.040   1320.885    485.040    609.718    485.040
101.770   1346.000   1369.880    -23.880    484.801   1256.522    484.801    598.286    484.801
101.870   1332.977   1304.757     28.219    484.562   1202.930    484.562    586.502    484.562
101.970   1284.000   1250.484     33.516    484.323   1160.133    484.323    574.774    484.323
102.070   1215.000   1206.537      8.463    484.084   1127.276    484.084    563.435    484.084
102.170   1126.844   1171.579    -44.734    483.845   1102.767    483.845    552.740    483.845
102.270   1093.000   1143.628    -50.628    483.607   1084.442    483.607    542.871    483.607
102.370   1129.000   1120.283      8.717    483.369   1069.782    483.369    533.945    483.369
102.470   1101.000   1098.989      2.011    483.131   1056.177    483.131    526.018    483.131
102.570   1120.000   1077.352     42.648    482.894   1041.225    482.894    519.095    482.894
102.670   1022.000   1053.447    -31.447    482.657   1023.037    482.657    513.143    482.657
102.770   1054.352   1026.048     28.303    482.420   1000.450    482.420    508.096    482.420
102.870    966.000    994.711    -28.711    482.184    973.105    482.184    503.867    482.184
102.970    931.000    959.685    -28.685    481.948    941.351    481.948    500.360    481.948
103.070    911.936    921.727     -9.791    481.713    906.043    481.713    497.472    481.713
103.170    824.593    881.884    -57.291    481.478    868.328    481.478    495.106    481.478
103.270    880.000    841.310     38.690    481.244    829.452    481.244    493.168    481.244
103.370    803.000    801.138      1.862    481.010    790.632    481.010    491.578    481.010
103.470    788.000    762.395     25.605    480.777    752.963    480.777    490.265    480.777
103.570    753.000    725.940     27.060    480.544    717.365    480.544    489.168    480.544
103.670    652.000    692.434    -40.434    480.312    684.548    480.312    488.241    480.312
103.770    692.000    662.326     29.674    480.081    654.999    480.081    487.444    480.081
103.870    682.000    635.853     46.147    479.850    628.986    479.850    486.748    479.850
103.970    618.000    613.057      4.943    479.620    606.573    479.620    486.129    479.620
104.070    571.096    593.822    -22.726    479.391    587.663    479.391    485.570    479.391
104.170    541.957    577.909    -35.952    479.162    572.029    479.162    485.058    479.162
104.270    619.000    564.992     54.008    478.934    559.354    478.934    484.584    478.934
104.370    593.000    554.695     38.305    478.707    549.271    478.707    484.140    478.707
104.470    509.000    546.654    -37.654    478.481    541.419    478.481    483.722    478.481
104.570    552.000    540.502     11.498    478.256    535.436    478.256    483.326    478.256
104.670    563.000    535.911     27.089    478.032    530.997    478.032    482.948    478.032
104.770    580.000    532.601     47.399    477.808    527.823    477.808    482.587    477.808
104.870    606.000    530.348     75.652    477.586    525.692    477.586    482.241    477.586
104.970    561.225    528.981     32.245    477.364    524.435    477.364    481.908    477.364
105.070    530.000    528.383      1.617    477.144    523.935    477.144    481.588    477.144
105.170    511.947    528.486    -16.539    476.925    524.127    476.925    481.278    476.925
105.270    542.953    529.265     13.687    476.706    524.990    476.706    480.975    476.706
105.370    492.994    530.748    -37.753    476.489    526.543    476.489    480.686    476.489
105.470    505.000    532.981    -27.981    476.273    528.837    476.273    480.406    476.273
105.570    554.954    536.043     18.911    476.058    531.952    476.058    480.136    476.058
105.670    564.700    540.029     24.672    475.844    535.984    475.844    479.875    475.844
105.770    513.935    545.038    -31.103    475.632    541.032    475.632    479.621    475.632
105.870    592.954    551.160     41.794    475.421    547.186    475.421    479.375    475.421
105.970    533.621    558.460    -24.840    475.211    554.512    475.211    479.136    475.211
106.070    536.000    566.964    -30.964    475.002    563.036    475.002    478.904    475.002
106.170    555.812    576.639    -20.827    474.795    572.735    474.795    478.669    474.795
106.270    549.000    587.418    -38.418    474.589    583.523    474.589    478.450    474.589
106.370    602.000    599.141      2.859    474.384    595.249    474.384    478.239    474.384
106.470    557.000    611.587    -54.587    474.181    607.693    474.181    478.035    474.181
106.570    608.000    624.470    -16.470    473.980    620.570    473.980    477.837    473.980
106.670    610.397    637.445    -27.048    473.780    633.534    473.780    477.645    473.780
106.770    608.801    650.114    -41.313    473.581    646.189    473.581    477.460    473.581
106.870    617.000    662.053    -45.053    473.385    658.109    473.385    477.281    473.385
106.970    659.000    672.833    -13.833    473.189    668.866    473.189    477.108    473.189
107.070    639.000    682.057    -43.057    472.996    678.064    472.996    476.941    472.996
107.170    661.000    689.412    -28.412    472.804    685.389    472.804    476.781    472.804
107.270    673.212    694.719    -21.508    472.613    690.663    472.613    476.627    472.613
107.370    725.982    697.973     28.008    472.425    693.879    472.425    476.480    472.425
107.470    676.000    699.350    -23.350    472.238    695.213    472.238    476.339    472.238
107.570    618.000    699.178    -81.178    472.053    694.995    472.053    476.205    472.053
107.670    746.486    697.886     48.599    471.870    693.652    471.870    476.078    471.870
107.770    664.789    695.938    -31.148    471.689    691.647    471.689    475.958    471.689
107.870    667.297    693.769    -26.472    471.510    689.416    471.510    475.845    471.510
107.970    714.662    691.747     22.915    471.333    687.328    471.333    475.739    471.333
108.070    708.000    690.140     17.860    471.158    685.648    471.158    475.641    471.158
108.170    710.593    689.098     21.495    470.984    684.527    470.984    475.550    470.984
108.270    653.258    688.644    -35.386    470.813    683.988    470.813    475.468    470.813
108.370    677.000    688.677    -11.677    470.644    683.930    470.644    475.393    470.644
108.470    612.000    688.977    -76.977    470.477    684.132    470.477    475.328    470.477
108.570    741.685    689.227     52.458    470.313    684.276    470.313    475.271    470.313
108.670    681.000    689.042     -8.042    470.150    683.979    470.150    475.224    470.150
108.770    716.107    688.013     28.094    469.990    682.831    469.990    475.187    469.990
108.870    738.638    685.765     52.873    469.832    680.454    469.832    475.160    469.832
108.970    659.074    682.008    -22.934    469.677    676.560    469.677    475.143    469.677
109.070    687.000    676.588     10.412    469.523    670.993    469.523    475.138    469.523
109.170    651.000    669.502    -18.502    469.373    663.751    469.373    475.144    469.373
109.270    683.000    660.891     22.109    469.224    654.973    469.224    475.164    469.224
109.370    573.000    651.008    -78.008    469.078    644.912    469.078    475.196    469.078
109.470    590.000    640.172    -50.172    468.935    633.885    468.935    475.242    468.935
109.570    595.000    628.733    -33.733    468.794    622.244    468.794    475.303    468.794
109.670    632.000    617.041     14.959    468.656    610.336    468.656    475.380    468.656
109.770    603.000    605.422     -2.422    468.520    598.486    468.520    475.473    468.520
109.870    563.899    594.148    -30.249    468.388    586.965    468.388    475.585    468.388
109.970    599.000    583.495     15.505    468.257    576.049    468.257    475.717    468.257
110.070    579.000    573.682      5.318    468.130    565.954    468.130    475.869    468.130
110.170    613.000    564.837     48.163    468.006    556.806    468.006    476.046    468.006
110.270    581.000    557.054     23.946    467.884    548.696    467.884    476.248    467.884
110.370    592.000    550.379     41.621    467.765    541.669    467.765    476.480    467.765
110.470    561.000    544.818     16.182    467.649    535.727    467.649    476.744    467.649
110.570    494.126    540.341    -46.215    467.536    530.832    467.536    477.046    467.536
110.670    517.000    536.890    -19.890    467.426    526.924    467.426    477.393    467.426
110.770    527.000    534.390     -7.390    467.319    523.917    467.319    477.791    467.319
110.870    511.000    532.754    -21.754    467.216    521.717    467.216    478.251    467.216
110.970    584.000    531.896     52.104    467.115    520.222    467.115    478.785    467.115
111.070    526.221    531.728     -5.507    467.017    519.331    467.017    479.410    467.017
111.170    543.000    532.177     10.823    466.923    518.950    466.923    480.145    466.923
111.270    563.000    533.177     29.823    466.832    518.988    466.832    481.015    466.832
111.370    512.811    534.680    -21.869    466.744    519.368    466.744    482.050    466.744
111.470    561.435    536.656     24.779    466.660    520.020    466.660    483.288    466.660
111.570    497.136    539.090    -41.954    466.579    520.887    466.579    484.774    466.579
111.670    562.000    541.990     20.010    466.502    521.922    466.502    486.561    466.502
111.770    566.000    545.381     20.619    466.428    523.088    466.428    488.712    466.428
111.870    523.000    549.312    -26.312    466.357    524.361    466.357    491.299    466.357
111.970    537.683    553.849    -16.166    466.290    525.726    466.290    494.403    466.290
112.070    550.000    559.079     -9.079    466.227    527.179    466.227    498.117    466.227
112.170    576.000    565.109     10.891    466.167    528.727    466.167    502.539    466.167
112.270    540.000    572.059    -32.059    466.112    530.386    466.112    507.774    466.112
112.370    594.000    580.061     13.939    466.059    532.178    466.059    513.931    466.059
112.470    571.000    589.256    -18.256    466.011    534.136    466.011    521.119    466.011
112.570    521.000    599.789    -78.789    465.967    536.301    465.967    529.443    465.967
112.670    633.000    611.806     21.194    465.926    538.723    465.926    538.996    465.926
112.770    588.000    625.450    -37.450    465.889    541.468    465.889    549.859    465.889
112.870    630.000    640.859    -10.859    465.857    544.617    465.857    562.086    465.857
112.970    618.628    658.169    -39.541    465.828    548.277    465.828    575.706    465.828
113.070    673.000    677.511     -4.511    465.803    552.588    465.803    590.711    465.803
113.170    700.183    699.019      1.164    465.783    557.735    465.783    607.051    465.783
113.270    710.683    722.837    -12.154    465.767    563.957    465.767    624.629    465.767
113.370    724.000    749.131    -25.131    465.755    571.572    465.755    643.294    465.755
113.470    758.000    778.104    -20.104    465.747    580.991    465.747    662.838    465.747
113.570    799.426    810.019    -10.592    465.744    592.743    465.744    682.994    465.744
113.670    885.000    845.217     39.783    465.744    607.500    465.744    703.432    465.744
113.770    853.420    884.150    -30.730    465.750    626.106    465.750    723.758    465.750
113.870    942.543    927.404     15.140    465.760    649.603    465.760    743.517    465.760
113.970   1003.000    975.732     27.268    465.774    679.259    465.774    762.195    465.774
114.070   1083.996   1030.089     53.907    465.793    716.583    465.793    779.235    465.793
114.170   1035.427   1091.659    -56.232    465.816    763.343    465.816    794.055    465.816
114.270   1155.000   1161.898     -6.898    465.845    821.563    465.845    806.084    465.845
114.370   1231.000   1242.556    -11.556    465.878    893.508    465.878    814.808    465.878
114.470   1383.624   1335.695     47.929    465.915    981.645    465.915    819.822    465.915
114.570   1512.000   1443.679     68.321    465.958   1088.581    465.958    820.882    465.958
114.670   1612.000   1569.116     42.884    466.005   1216.977    466.005    817.934    466.005
114.770   1796.000   1714.747     81.253    466.058   1369.424    466.058    811.130    466.058
114.870   1849.438   1883.282    -33.843    466.115   1548.303    466.115    800.798    466.115
114.970   2070.277   2077.183     -6.906    466.177   1755.612    466.177    787.403    466.177
115.070   2365.000   2298.430     66.570    466.245   1992.780    466.245    771.495    466.245
115.170   2552.000   2548.271      3.729    466.317   2260.477    466.317    753.655    466.317
115.270   2911.733   2826.993     84.740    466.395   2558.416    466.395    734.458    466.395
115.370   3149.825   3133.723     16.102    466.478   2885.189    466.478    714.442    466.478
115.470   3360.000   3466.266   -106.266    466.566   3238.117    466.566    694.091    466.566
115.570   3821.000   3821.005     -0.005    466.660   3613.158    466.660    673.832    466.660
115.670   4079.217   4192.848   -113.631    466.759   4004.862    466.759    654.028    466.759
115.770   4518.000   4575.249    -57.249    466.863   4406.386    466.863    634.977    466.863
115.870   4856.000   4960.289   -104.289    466.973   4809.576    466.973    616.916    466.973
115.970   5144.000   5338.835   -194.835    467.089   5205.121    467.089    600.026    467.089
116.070   5593.000   5700.765   -107.765    467.210   5582.777    467.210    584.429    467.210
116.170   5939.000   6035.287    -96.287    467.337   5931.682    467.337    570.199    467.337
116.270   6398.533   6331.364     67.170    467.470   6240.769    467.470    557.365    467.470
116.370   6586.000   6578.262      7.738    467.608   6499.317    467.608    545.917    467.608
116.470   6798.374   6766.242     32.132    467.752   6697.627    467.752    535.810    467.752
116.570   6898.985   6887.333     11.653    467.902   6827.794    467.902    526.978    467.902
116.670   7030.636   6936.095     94.541    468.059   6884.462    468.059    519.333    468.059
116.770   6917.843   6910.213      7.630    468.221   6865.411    468.221    512.774    468.221
116.870   6859.000   6810.742     48.258    468.389   6771.797    468.389    507.196    468.389
116.970   6676.000   6641.980     34.020    468.563   6608.024    468.563    502.488    468.563
117.070   6487.488   6410.991     76.498    468.744   6381.259    468.744    498.543    468.744
117.170   6010.000   6126.790   -116.790    468.930   6100.616    468.930    495.258    468.930
117.270   5775.000   5799.636    -24.636    469.123   5776.446    469.123    492.540    469.123
117.370   5173.000   5440.309   -267.309    469.323   5419.615    469.323    490.300    469.323
117.470   5082.235   5059.525     22.709    469.529   5040.917    469.529    488.462    469.529
117.570   4524.000   4667.492   -143.492    469.741   4650.626    469.741    486.959    469.741
117.670   4347.000   4273.567     73.433    469.960   4258.160    469.960    485.733    469.960
117.770   3967.000   3886.016     80.984    470.185   3871.833    470.185    484.734    470.185
117.870   3737.000   3511.850    225.150    470.417   3498.702    470.417    483.923    470.417
117.970   3314.000   3156.737    157.263    470.656   3144.468    470.656    483.264    470.656
118.070   2947.000   2824.978    122.022    470.901   2813.463    470.901    482.731    470.901
118.170   2489.950   2519.553    -29.604    471.154   2508.691    471.154    482.301    471.154
118.270   2231.000   2242.213    -11.213    471.413   2231.922    471.413    481.957    471.413
118.370   1983.000   1993.615    -10.615    471.679   1983.830    471.679    481.684    471.679
118.470   1730.000   1773.483    -43.483    471.953   1764.150    471.953    481.473    471.953
118.570   1559.000   1580.779    -21.779    472.233   1571.854    472.233    481.313    472.233
118.670   1357.000   1413.880    -56.880    472.520   1405.328    472.520    481.198    472.520
118.770   1273.538   1270.752      2.786    472.815   1262.544    472.815    481.124    472.815
118.870   1170.505   1149.110     21.395    473.117   1141.220    473.117    481.085    473.117
118.970   1065.000   1046.553     18.447    473.426   1038.960    473.426    481.079    473.426
119.070    912.000    960.689    -48.689    473.743    953.373    473.743    481.102    473.743
119.170    900.682    889.220     11.462    474.067    882.164    474.067    481.154    474.067
119.270    772.324    830.011    -57.687    474.399    823.199    474.399    481.232    474.399
119.370    789.143    781.133      8.010    474.738    774.549    474.738    481.335    474.738
119.470    775.000    740.879     34.121    475.085    734.509    475.085    481.463    475.085
119.570    662.000    707.775    -45.775    475.439    701.605    475.439    481.614    475.439
119.670    649.000    680.566    -31.566    475.802    674.581    475.802    481.788    475.802
119.770    662.000    658.203      3.797    476.172    652.390    476.172    481.985    476.172
119.870    578.000    639.821    -61.821    476.550    634.166    476.550    482.205    476.550
119.970    576.980    624.715    -47.735    476.936    619.203    476.936    482.448    476.936
120.070    597.000    612.317    -15.317    477.330    606.933    477.330    482.713    477.330
120.170    557.296    602.173    -44.876    477.732    596.902    477.732    483.003    477.732
120.270    556.000    593.922    -37.922    478.143    588.749    478.143    483.316    478.143
120.370    634.301    587.282     47.019    478.561    582.190    478.561    483.655    478.561
120.470    600.000    582.030     17.970    478.988    577.002    478.988    484.018    478.988
120.570    590.000    577.992     12.008    479.424    573.009    479.424    484.409    479.424
120.670    591.000    575.033     15.967    479.867    570.077    479.867    484.826    479.867
120.770    582.000    573.046      8.954    480.320    568.097    480.320    485.272    480.320
120.870    539.000    571.949    -32.949    480.780    566.987    480.780    485.747    480.780
120.970    538.000    571.673    -33.673    481.250    566.677    481.250    486.252    481.250
121.070    536.858    572.163    -35.305    481.728    567.110    481.728    486.787    481.728
121.170    599.060    573.370     25.690    482.215    568.238    482.215    487.355    482.215
121.270    576.854    575.245      1.609    482.711    570.011    482.711    487.954    482.711
121.370    610.085    577.743     32.342    483.215    572.384    483.215    488.585    483.215
121.470    577.000    580.811     -3.811    483.729    575.305    483.729    489.247    483.729
121.570    540.000    584.395    -44.395    484.252    578.720    484.252    489.941    484.252
121.670    559.000    588.431    -29.431    484.784    582.566    484.784    490.665    484.784
121.770    620.000    592.848     27.152    485.325    586.773    485.325    491.418    485.325
121.870    590.000    597.565     -7.565    485.875    591.264    485.875    492.198    485.875
121.970    621.000    602.492     18.508    486.435    595.950    486.435    493.001    486.435
122.070    571.087    607.533    -36.446    487.004    600.737    487.004    493.826    487.004
122.170    679.000    612.580     66.420    487.582    605.524    487.582    494.668    487.582
122.270    610.000    617.523     -7.523    488.170    610.202    488.170    495.524    488.170
122.370    693.000    622.245     70.755    488.768    614.660    488.768    496.388    488.768
122.470    582.767    626.631    -43.863    489.375    618.789    489.375    497.254    489.375
122.570    591.140    630.567    -39.427    489.993    622.481    489.993    498.118    489.993
122.670    657.000    633.949     23.051    490.620    625.639    490.620    498.971    490.620
122.770    610.000    636.693    -26.693    491.257    628.183    491.257    499.809    491.257
122.870    655.000    638.729     16.271    491.903    630.052    491.903    500.625    491.903
122.970    594.062    640.016    -45.954    492.560    631.209    492.560    501.413    492.560
123.070    652.000    640.538     11.462    493.228    631.645    493.228    502.166    493.228
123.170    675.777    640.309     35.468    493.905    631.378    493.905    502.881    493.905
123.270    666.000    639.364     26.636    494.593    630.448    494.593    503.554    494.593
123.370    657.000    637.763     19.237    495.291    628.913    495.291    504.184    495.291
123.470    654.000    635.576     18.424    495.999    626.845    495.999    504.772    495.999
123.570    623.000    632.887     -9.887    496.718    624.323    496.718    505.321    496.718
123.670    601.000    629.782    -28.782    497.447    621.432    497.447    505.835    497.447
123.770    630.000    626.352      3.648    498.188    618.255    498.188    506.319    498.188
123.870    617.000    622.681     -5.681    498.939    614.871    498.939    506.780    498.939
123.970    626.000    618.852      7.148    499.700    611.357    499.700    507.225    499.700
124.070    613.224    614.938     -1.714    500.473    607.778    500.473    507.659    500.473
124.170    608.366    611.004     -2.638    501.257    604.194    501.257    508.090    501.257
124.270    616.000    607.102      8.898    502.051    600.651    502.051    508.523    502.051
124.370    616.000    603.275     12.725    502.857    597.186    502.857    508.964    502.857
124.470    576.477    599.554    -23.077    503.674    593.826    503.674    509.417    503.674
124.570    519.000    595.960    -76.960    504.503    590.588    504.503    509.887    504.503
124.670    627.000    592.505     34.495    505.342    587.479    505.342    510.378    505.342
124.770    565.991    589.191    -23.201    506.193    584.500    506.193    510.893    506.193
124.870    586.000    586.020     -0.020    507.056    581.648    507.056    511.435    507.056
124.970    602.000    582.985     19.015    507.930    578.916    507.930    512.004    507.930
