neutron_powder_diffraction_0247
R_wp: 4.167
Temperature (K): 964.950
Counts: 83803.00
Wavelength (Ã…): 2.52098
COMMENTS
Test file for demonstrating the .xyy file format in Reel1.0
END OF HEADER
   tth       Y_obs     Y_calc      Y_res    Background    Phase_1_Nuc    Phase_1_Mag    Phase_2_Nuc    Phase_2_Mag
  9.970    602.000    560.884     41.116    560.263    560.851    560.263    560.295    560.263
 10.070    595.000    561.186     33.814    560.513    561.153    560.513    560.545    560.513
 10.170    610.000    561.492     48.508    560.756    561.456    560.756    560.790    560.756
 10.270    597.000    561.807     35.193    560.991    561.770    560.991    561.026    560.991
 10.370    587.000    562.124     24.876    561.218    562.087    561.218    561.255    561.218
 10.470    520.643    562.438    -41.795    561.439    562.401    561.439    561.475    561.439
 10.570    578.000    562.762     15.238    561.652    562.724    561.652    561.688    561.652
 10.670    569.000    563.099      5.901    561.857    563.061    561.857    561.894    561.857
 10.770    560.915    563.459     -2.544    562.056    563.418    562.056    562.097    562.056
 10.870    552.777    563.853    -11.076    562.247    563.802    562.247    562.298    562.247
 10.970    578.000    564.277     13.723    562.432    564.224    562.432    562.484    562.432
 11.070    583.000    564.754     18.246    562.609    564.701    562.609    562.661    562.609
 11.170    578.435    565.308     13.127    562.780    565.254    562.780    562.832    562.780
 11.270    578.294    565.972     12.322    562.943    565.918    562.943    562.996    562.943
 11.370    608.000    566.805     41.195    563.100    566.750    563.100    563.153    563.100
 11.470    598.442    567.925     30.517    563.250    567.869    563.250    563.303    563.250
 11.570    588.000    569.650     18.350    563.393    569.593    563.393    563.447    563.393
 11.670    572.000    572.908     -0.908    563.530    572.848    563.530    563.584    563.530
 11.770    570.000    579.995     -9.995    563.660    579.930    563.660    563.716    563.660
 11.870    645.000    595.023     49.977    563.784    594.944    563.784    563.845    563.784
 11.970    611.278    622.045    -10.767    563.901    621.951    563.901    563.963    563.901
 12.070    619.000    659.398    -40.398    564.012    659.282    564.012    564.074    564.012
 12.170    665.840    693.112    -27.272    564.116    692.977    564.116    564.179    564.116
 12.270    716.000    701.012     14.988    564.214    700.872    564.214    564.277    564.214
 12.370    655.381    676.030    -20.650    564.306    675.904    564.306    564.369    564.306
 12.470    585.900    637.434    -51.534    564.392    637.329    564.392    564.455    564.392
 12.570    589.000    605.188    -16.188    564.471    605.102    564.471    564.535    564.471
 12.670    540.618    585.631    -45.013    564.545    585.555    564.545    564.609    564.545
 12.770    587.000    576.092     10.908    564.613    576.021    564.613    564.677    564.613
 12.870    548.000    571.908    -23.908    564.674    571.839    564.674    564.739    564.674
 12.970    521.000    569.958    -48.958    564.730    569.890    564.730    564.795    564.730
 13.070    580.000    568.861     11.139    564.780    568.794    564.780    564.846    564.780
 13.170    523.000    568.135    -45.135    564.824    568.068    564.824    564.890    564.824
 13.270    612.132    567.614     44.518    564.863    567.546    564.863    564.929    564.863
 13.370    564.000    567.223     -3.223    564.896    567.155    564.896    564.962    564.896
 13.470    605.000    566.924     38.076    564.923    566.854    564.923    564.992    564.923
 13.570    608.266    566.689     41.577    564.945    566.617    564.945    565.016    564.945
 13.670    610.000    566.498     43.502    564.961    566.426    564.961    565.033    564.961
 13.770    544.000    566.341    -22.341    564.972    566.267    564.972    565.045    564.972
 13.870    545.826    566.208    -20.382    564.977    566.133    564.977    565.051    564.977
 13.970    551.000    566.092    -15.092    564.977    566.017    564.977    565.051    564.977
 14.070    540.000    565.990    -25.990    564.972    565.915    564.972    565.047    564.972
 14.170    535.000    565.897    -30.897    564.962    565.821    564.962    565.037    564.962
 14.270    565.000    565.811     -0.811    564.946    565.735    564.946    565.022    564.946
 14.370    584.381    565.730     18.651    564.926    565.653    564.926    565.002    564.926
 14.470    592.872    565.652     27.220    564.900    565.575    564.900    564.977    564.900
 14.570    525.286    565.575    -40.290    564.869    565.498    564.869    564.947    564.869
 14.670    570.000    565.500      4.500    564.834    565.422    564.834    564.911    564.834
 14.770    527.000    565.424    -38.424    564.793    565.346    564.793    564.871    564.793
 14.870    551.574    565.348    -13.774    564.748    565.269    564.748    564.826    564.748
 14.970    560.000    565.271     -5.271    564.698    565.192    564.698    564.777    564.698
 15.070    562.000    565.195     -3.195    564.643    565.116    564.643    564.722    564.643
 15.170    598.160    565.114     33.046    564.583    565.034    564.583    564.663    564.583
 15.270    529.000    565.031    -36.031    564.519    564.950    564.519    564.599    564.519
 15.370    602.000    564.945     37.055    564.450    564.864    564.450    564.531    564.450
 15.470    579.847    564.856     14.991    564.377    564.775    564.377    564.458    564.377
 15.570    546.000    564.764    -18.764    564.299    564.682    564.299    564.381    564.299
 15.670    546.070    564.670    -18.599    564.217    564.587    564.217    564.299    564.217
 15.770    559.000    564.572     -5.572    564.130    564.489    564.130    564.213    564.130
 15.870    564.000    564.471     -0.471    564.039    564.388    564.039    564.122    564.039
 15.970    534.666    564.367    -29.701    563.944    564.283    563.944    564.027    563.944
 16.070    607.524    564.260     43.264    563.844    564.175    563.844    563.929    563.844
 16.170    576.069    564.150     11.919    563.740    564.063    563.740    563.827    563.740
 16.270    569.217    564.036      5.181    563.633    563.949    563.633    563.720    563.633
 16.370    535.000    563.921    -28.921    563.521    563.833    563.521    563.608    563.521
 16.470    533.000    563.800    -30.800    563.405    563.712    563.405    563.493    563.405
 16.570    546.000    563.676    -17.676    563.285    563.587    563.285    563.373    563.285
 16.670    589.000    563.548     25.452    563.161    563.459    563.161    563.250    563.161
 16.770    565.242    563.417      1.825    563.033    563.327    563.033    563.123    563.033
 16.870    572.000    563.282      8.718    562.901    563.192    562.901    562.992    562.901
 16.970    566.000    563.144      2.856    562.766    563.053    562.766    562.857    562.766
 17.070    579.752    563.003     16.749    562.626    562.911    562.626    562.718    562.626
 17.170    547.000    562.858    -15.858    562.483    562.766    562.483    562.575    562.483
 17.270    525.000    562.711    -37.711    562.337    562.618    562.337    562.429    562.337
 17.370    557.048    562.559     -5.511    562.186    562.466    562.186    562.280    562.186
 17.470    558.000    562.405     -4.405    562.032    562.311    562.032    562.126    562.032
 17.570    576.000    562.248     13.752    561.875    562.153    561.875    561.970    561.875
 17.670    583.750    562.088     21.663    561.714    561.992    561.714    561.809    561.714
 17.770    586.000    561.926     24.074    561.550    561.830    561.550    561.646    561.550
 17.870    524.000    561.759    -37.759    561.382    561.662    561.382    561.479    561.382
 17.970    594.856    561.589     33.267    561.211    561.492    561.211    561.308    561.211
 18.070    537.000    561.416    -24.416    561.036    561.318    561.036    561.135    561.036
 18.170    486.000    561.240    -75.240    560.859    561.141    560.859    560.958    560.859
 18.270    588.000    561.061     26.939    560.678    560.961    560.678    560.778    560.678
 18.370    591.626    560.884     30.741    560.494    560.779    560.494    560.599    560.494
 18.470    523.000    560.702    -37.702    560.307    560.593    560.307    560.415    560.307
 18.570    528.674    560.514    -31.840    560.116    560.405    560.116    560.226    560.116
 18.670    550.000    560.324    -10.324    559.923    560.214    559.923    560.033    559.923
 18.770    576.000    560.131     15.869    559.726    560.020    559.726    559.838    559.726
 18.870    576.000    559.935     16.065    559.527    559.823    559.527    559.639    559.527
 18.970    542.546    559.737    -17.191    559.325    559.624    559.325    559.438    559.325
 19.070    536.000    559.536    -23.536    559.120    559.422    559.120    559.234    559.120
 19.170    576.000    559.332     16.668    558.912    559.217    558.912    559.026    558.912
 19.270    552.000    559.126     -7.126    558.701    559.010    558.701    558.817    558.701
 19.370    561.000    558.919      2.081    558.487    558.802    558.487    558.604    558.487
 19.470    539.000    558.709    -19.709    558.271    558.591    558.271    558.389    558.271
 19.570    531.000    558.496    -27.496    558.052    558.378    558.052    558.171    558.052
 19.670    552.664    558.281     -5.617    557.831    558.161    557.831    557.950    557.831
 19.770    576.000    558.063     17.937    557.606    557.943    557.606    557.727    557.606
 19.870    575.000    557.843     17.157    557.380    557.722    557.380    557.501    557.380
 19.970    561.000    557.621      3.379    557.150    557.498    557.150    557.273    557.150
 20.070    540.863    557.397    -16.534    556.919    557.273    556.919    557.042    556.919
 20.170    571.000    557.171     13.829    556.685    557.046    556.685    556.809    556.685
 20.270    533.452    556.944    -23.492    556.448    556.818    556.448    556.574    556.448
 20.370    531.697    556.732    -25.035    556.209    556.605    556.209    556.336    556.209
 20.470    548.000    556.505     -8.505    555.968    556.377    555.968    556.096    555.968
 20.570    518.000    556.272    -38.272    555.724    556.143    555.724    555.854    555.724
 20.670    535.678    556.037    -20.360    555.479    555.907    555.479    555.609    555.479
 20.770    602.000    555.801     46.199    555.231    555.669    555.231    555.363    555.231
 20.870    595.623    555.563     40.060    554.981    555.429    554.981    555.114    554.981
 20.970    549.097    555.323     -6.226    554.728    555.188    554.728    554.863    554.728
 21.070    560.903    555.082      5.820    554.474    554.946    554.474    554.610    554.474
 21.170    598.000    554.840     43.160    554.218    554.703    554.218    554.355    554.218
 21.270    541.000    554.597    -13.597    553.959    554.458    553.959    554.098    553.959
 21.370    535.238    554.353    -19.115    553.699    554.213    553.699    553.839    553.699
 21.470    555.000    554.108      0.892    553.437    553.967    553.437    553.578    553.437
 21.570    601.824    553.863     47.961    553.172    553.720    553.172    553.316    553.172
 21.670    563.000    553.617      9.383    552.906    553.472    552.906    553.051    552.906
 21.770    576.000    553.371     22.629    552.638    553.224    552.638    552.785    552.638
 21.870    598.415    553.125     45.291    552.369    552.976    552.369    552.517    552.369
 21.970    538.000    552.878    -14.878    552.097    552.728    552.097    552.247    552.097
 22.070    521.000    552.633    -31.633    551.824    552.481    551.824    551.976    551.824
 22.170    526.000    552.388    -26.388    551.549    552.234    551.549    551.703    551.549
 22.270    589.955    552.146     37.809    551.272    551.990    551.272    551.428    551.272
 22.370    567.368    551.929     15.438    550.994    551.771    550.994    551.152    550.994
 22.470    575.651    551.767     23.883    550.714    551.607    550.714    550.875    550.714
 22.570    541.000    551.544    -10.544    550.433    551.380    550.433    550.598    550.433
 22.670    532.000    551.353    -19.353    550.150    551.185    550.150    550.318    550.150
 22.770    595.000    551.131     43.869    549.866    550.961    549.866    550.036    549.866
 22.870    570.000    550.912     19.088    549.580    550.739    549.580    549.753    549.580
 22.970    570.000    550.711     19.289    549.293    550.535    549.293    549.468    549.293
 23.070    583.000    550.553     32.447    549.004    550.375    549.004    549.182    549.004
 23.170    581.236    550.363     30.873    548.714    550.182    548.714    548.895    548.714
 23.270    566.000    550.182     15.818    548.423    549.998    548.423    548.606    548.423
 23.370    576.000    550.019     25.981    548.130    549.833    548.130    548.317    548.130
 23.470    537.000    549.881    -12.881    547.836    549.692    547.836    548.026    547.836
 23.570    551.000    549.774      1.226    547.541    549.582    547.541    547.734    547.541
 23.670    533.060    549.711    -16.651    547.245    549.515    547.245    547.441    547.245
 23.770    560.000    549.706     10.294    546.947    549.507    546.947    547.147    546.947
 23.870    540.000    549.785     -9.785    546.649    549.583    546.649    546.852    546.649
 23.970    516.453    549.991    -33.538    546.349    549.785    546.349    546.556    546.349
 24.070    580.000    550.410     29.590    546.048    550.200    546.048    546.260    546.048
 24.170    551.000    551.287     -0.287    545.746    551.075    545.746    545.962    545.746
 24.270    510.213    553.302    -43.089    545.444    553.086    545.444    545.664    545.444
 24.370    575.000    558.024     16.976    545.140    557.807    545.140    545.365    545.140
 24.470    539.000    568.058    -29.058    544.835    567.844    544.835    545.065    544.835
 24.570    621.052    585.713     35.339    544.529    585.506    544.529    544.764    544.529
 24.670    573.000    609.535    -36.535    544.223    609.340    544.223    544.463    544.223
 24.770    647.000    630.611     16.389    543.915    630.427    543.915    544.161    543.915
 24.870    658.409    635.316     23.093    543.607    635.129    543.607    543.859    543.607
 24.970    620.810    619.319      1.490    543.298    619.114    543.298    543.557    543.298
 25.070    578.097    594.301    -16.204    542.988    594.072    542.988    543.254    542.988
 25.170    641.000    572.757     68.243    542.678    572.505    542.678    542.950    542.678
 25.270    517.029    559.082    -42.053    542.367    558.813    542.367    542.647    542.367
 25.370    594.000    551.986     42.014    542.055    551.704    542.055    542.343    542.055
 25.470    504.792    548.630    -43.837    541.742    548.336    541.742    542.039    541.742
 25.570    530.000    546.924    -16.924    541.429    546.620    541.429    541.735    541.429
 25.670    589.000    545.891     43.109    541.115    545.577    541.115    541.431    541.115
 25.770    582.721    545.156     37.565    540.801    544.830    540.801    541.127    540.801
 25.870    495.805    544.556    -48.750    540.486    544.218    540.486    540.824    540.486
 25.970    543.000    544.059     -1.059    540.170    543.710    540.170    540.521    540.170
 26.070    485.000    543.642    -58.642    539.854    543.279    539.854    540.218    539.854
 26.170    532.000    543.288    -11.288    539.538    542.911    539.538    539.916    539.538
 26.270    506.447    542.992    -36.545    539.221    542.599    539.221    539.615    539.221
 26.370    536.319    542.743     -6.424    538.904    542.333    538.904    539.314    538.904
 26.470    513.710    542.544    -28.835    538.586    542.115    538.586    539.015    538.586
 26.570    523.000    542.391    -19.391    538.268    541.941    538.268    538.717    538.268
 26.670    562.542    542.288     20.254    537.950    541.816    537.950    538.421    537.950
 26.770    535.000    542.243     -7.243    537.631    541.748    537.631    538.127    537.631
 26.870    512.415    542.272    -29.856    537.312    541.749    537.312    537.835    537.312
 26.970    591.144    542.417     48.727    536.993    541.865    536.993    537.545    536.993
 27.070    509.336    542.649    -33.313    536.674    542.064    536.674    537.258    536.674
 27.170    553.000    543.006      9.994    536.354    542.384    536.354    536.975    536.354
 27.270    575.891    543.547     32.343    536.034    542.884    536.034    536.697    536.034
 27.370    544.000    544.348     -0.348    535.714    543.639    535.714    536.423    535.714
 27.470    560.000    545.542     14.458    535.394    544.780    535.394    536.155    535.394
 27.570    535.065    547.436    -12.371    535.074    546.614    535.074    535.894    535.074
 27.670    583.000    551.097     31.903    534.754    550.206    534.754    535.642    534.754
 27.770    598.000    560.287     37.713    534.434    559.315    534.434    535.400    534.434
 27.870    620.000    585.114     34.886    534.113    584.042    534.113    535.170    534.113
 27.970    641.000    642.973     -1.973    533.793    641.775    533.793    534.955    533.793
 28.070    748.000    745.784      2.216    533.472    744.432    533.472    534.759    533.472
 28.170    873.000    871.941      1.059    533.152    870.414    533.152    534.586    533.152
 28.270    958.000    953.476      4.524    532.832    951.772    532.832    534.443    532.832
 28.370    951.000    929.732     21.268    532.512    927.845    532.512    534.337    532.512
 28.470    834.813    828.073      6.740    532.192    825.956    532.192    534.282    532.192
 28.570    755.186    729.850     25.336    531.872    727.416    531.872    534.296    531.872
 28.670    716.000    692.649     23.351    531.552    689.780    531.552    534.409    531.552
 28.770    708.000    724.474    -16.474    531.232    721.008    531.232    534.678    531.232
 28.870    775.000    792.594    -17.594    530.913    788.281    530.913    535.201    530.913
 28.970    786.000    838.921    -52.921    530.593    833.356    530.593    536.141    530.593
 29.070    760.231    818.612    -58.381    530.274    811.140    530.274    537.748    530.274
 29.170    797.017    746.223     50.793    529.955    735.857    529.955    540.334    529.955
 29.270    670.000    668.340      1.660    529.637    653.781    529.637    544.209    529.637
 29.370    628.945    615.204     13.741    529.319    595.016    529.319    549.514    529.319
 29.470    555.195    590.077    -34.882    529.001    563.141    529.001    555.938    529.001
 29.570    591.000    582.368      8.632    528.683    548.787    528.683    562.264    528.683
 29.670    561.895    580.459    -18.564    528.366    542.618    528.366    566.206    528.366
 29.770    597.687    577.196     20.491    528.049    539.572    528.049    565.672    528.049
 29.870    519.915    570.767    -50.852    527.733    537.707    527.733    560.791    527.733
 29.970    547.451    562.755    -15.304    527.417    536.412    527.417    553.758    527.417
 30.070    586.000    555.169     30.831    527.101    535.495    527.101    546.774    527.101
 30.170    588.531    549.079     39.451    526.786    534.905    526.786    540.958    526.786
 30.270    582.000    544.809     37.191    526.471    534.707    526.471    536.572    526.471
 30.370    580.763    542.514     38.249    526.157    535.219    526.157    533.450    526.157
 30.470    576.000    542.810     33.190    525.844    537.369    525.844    531.279    525.844
 30.570    507.594    547.286    -39.692    525.531    543.055    525.531    529.751    525.531
 30.670    580.000    558.169     21.831    525.218    554.743    525.218    528.624    525.218
 30.770    544.631    576.189    -31.558    524.906    573.320    524.906    527.741    524.906
 30.870    551.129    597.165    -46.035    524.595    594.703    524.595    527.008    524.595
 30.970    609.000    610.595     -1.595    524.284    608.451    524.284    526.372    524.284
 31.070    600.000    606.769     -6.769    523.974    604.889    523.974    525.804    523.974
 31.170    541.320    588.249    -46.929    523.664    586.594    523.664    525.285    523.664
 31.270    561.000    566.126     -5.126    523.355    564.657    523.355    524.803    523.355
 31.370    568.000    548.793     19.207    523.047    547.478    523.047    524.352    523.047
 31.470    515.427    538.349    -22.922    522.740    537.159    522.740    523.924    522.740
 31.570    560.000    533.079     26.921    522.433    531.994    522.433    523.514    522.433
 31.670    568.000    530.592     37.408    522.127    529.596    522.127    523.121    522.127
 31.770    544.000    529.313     14.687    521.822    528.392    521.822    522.740    521.822
 31.870    573.970    528.524     45.446    521.517    527.669    521.517    522.370    521.517
 31.970    507.000    527.968    -20.968    521.213    527.170    521.213    522.010    521.213
 32.070    559.951    527.557     32.394    520.910    526.809    520.910    521.657    520.910
 32.170    562.000    527.262     34.738    520.608    526.558    520.608    521.311    520.608
 32.270    566.000    527.072     38.928    520.307    526.406    520.307    520.971    520.307
 32.370    561.000    526.983     34.017    520.006    526.352    520.006    520.636    520.006
 32.470    483.052    527.001    -43.949    519.707    526.401    519.707    520.306    519.707
 32.570    528.000    527.140      0.860    519.408    526.567    519.408    519.980    519.408
 32.670    510.070    527.421    -17.351    519.110    526.873    519.110    519.657    519.110
 32.770    546.000    527.873     18.127    518.813    527.347    518.813    519.338    518.813
 32.870    522.000    528.541     -6.541    518.517    528.034    518.517    519.022    518.517
 32.970    558.224    529.493     28.731    518.222    529.004    518.222    518.709    518.222
 33.070    542.221    530.833     11.388    517.928    530.360    517.928    518.398    517.928
 33.170    574.236    532.737     41.499    517.634    532.279    517.634    518.090    517.634
 33.270    532.928    535.587     -2.659    517.342    535.142    517.342    517.784    517.342
 33.370    578.000    540.397     37.603    517.051    539.963    517.051    517.481    517.051
 33.470    535.000    549.942    -14.942    516.761    549.517    516.761    517.179    516.761
 33.570    556.850    570.725    -13.875    516.471    570.305    516.471    516.880    516.471
 33.670    572.000    614.340    -42.340    516.183    613.920    516.183    516.582    516.183
 33.770    698.000    694.139      3.861    515.896    693.711    515.896    516.287    515.896
 33.870    791.000    813.496    -22.496    515.610    813.056    515.610    515.993    515.610
 33.970    960.000    948.962     11.038    515.325    948.516    515.325    515.701    515.325
 34.070   1121.000   1043.166     77.834    515.041   1042.732    515.041    515.410    515.041
 34.170   1102.270   1038.320     63.950    514.758   1037.915    514.758    515.121    514.758
 34.270    967.303    937.836     29.467    514.476    937.462    514.476    514.834    514.476
 34.370    758.000    801.598    -43.598    514.196    801.244    514.196    514.549    514.196
 34.470    627.000    684.474    -57.474    513.916    684.129    513.916    514.264    513.916
 34.570    601.000    607.263     -6.263    513.638    606.921    513.638    513.982    513.638
 34.670    600.184    565.266     34.918    513.361    564.926    513.361    513.701    513.361
 34.770    564.000    545.033     18.967    513.085    544.696    513.085    513.422    513.085
 34.870    562.676    535.373     27.303    512.810    535.039    512.810    513.144    512.810
 34.970    505.000    530.148    -25.148    512.536    529.816    512.536    512.867    512.536
 35.070    520.000    526.769     -6.769    512.264    526.440    512.264    512.592    512.264
 35.170    534.000    524.291      9.709    511.993    523.964    511.993    512.319    511.993
 35.270    566.713    522.354     44.360    511.723    522.029    511.723    512.047    511.723
 35.370    504.000    520.788    -16.788    511.454    520.465    511.454    511.776    511.454
 35.470    504.941    519.492    -14.550    511.187    519.171    511.187    511.507    511.187
 35.570    525.000    518.397      6.603    510.921    518.078    510.921    511.239    510.921
 35.670    480.000    517.458    -37.458    510.656    517.140    510.656    510.973    510.656
 35.770    503.000    516.639    -13.639    510.392    516.323    510.392    510.708    510.392
 35.870    528.000    515.916     12.084    510.130    515.601    510.130    510.445    510.130
 35.970    483.000    515.271    -32.271    509.869    514.956    509.869    510.184    509.869
 36.070    515.661    514.689      0.971    509.609    514.375    509.609    509.923    509.609
 36.170    456.000    514.161    -58.161    509.351    513.847    509.351    509.664    509.351
 36.270    546.000    513.678     32.322    509.093    513.365    509.093    509.407    509.093
 36.370    471.000    513.236    -42.236    508.838    512.922    508.838    509.151    508.838
 36.470    562.000    512.830     49.170    508.583    512.516    508.583    508.897    508.583
 36.570    525.000    512.458     12.542    508.330    512.144    508.330    508.644    508.330
 36.670    488.000    512.120    -24.120    508.079    511.806    508.079    508.393    508.079
 36.770    534.411    511.819     22.592    507.828    511.505    507.828    508.143    507.828
 36.870    510.000    511.564     -1.564    507.580    511.250    507.580    507.895    507.580
 36.970    547.000    511.383     35.617    507.332    511.068    507.332    507.648    507.332
 37.070    474.000    511.348    -37.348    507.086    511.031    507.086    507.402    507.086
 37.170    462.000    511.619    -49.619    506.841    511.302    506.841    507.159    506.841
 37.270    528.000    512.485     15.515    506.598    512.167    506.598    506.916    506.598
 37.370    490.000    514.299    -24.299    506.356    513.981    506.356    506.676    506.356
 37.470    579.000    517.257     61.743    506.116    516.938    506.116    506.436    506.116
 37.570    498.000    521.025    -23.025    505.877    520.706    505.877    506.199    505.877
 37.670    509.242    524.445    -15.203    505.640    524.126    505.640    505.963    505.640
 37.770    512.000    525.791    -13.791    505.404    525.472    505.404    505.728    505.404
 37.870    559.358    524.203     35.155    505.169    523.885    505.169    505.495    505.169
 37.970    476.000    520.734    -44.734    504.936    520.416    504.936    505.264    504.936
 38.070    562.288    516.922     45.365    504.705    516.604    504.705    505.034    504.705
 38.170    514.000    513.613      0.387    504.475    513.292    504.475    504.806    504.475
 38.270    486.000    511.083    -25.083    504.246    510.758    504.246    504.579    504.246
 38.370    516.000    509.308      6.692    504.019    508.979    504.019    504.354    504.019
 38.470    492.000    508.120    -16.120    503.794    507.786    503.794    504.131    503.794
 38.570    469.406    507.329    -37.923    503.570    506.992    503.570    503.909    503.570
 38.670    481.391    506.784    -25.393    503.347    506.443    503.347    503.689    503.347
 38.770    466.820    506.380    -39.560    503.126    506.036    503.126    503.471    503.126
 38.870    551.000    506.051     44.949    502.907    505.705    502.907    503.254    502.907
 38.970    505.000    505.764     -0.764    502.689    505.415    502.689    503.038    502.689
 39.070    551.176    505.501     45.675    502.473    505.149    502.473    502.825    502.473
 39.170    499.000    505.255     -6.255    502.258    504.900    502.258    502.613    502.258
 39.270    519.797    505.022     14.775    502.045    504.664    502.045    502.403    502.045
 39.370    468.000    504.800    -36.800    501.833    504.439    501.833    502.194    501.833
 39.470    472.000    504.587    -32.587    501.623    504.223    501.623    501.987    501.623
 39.570    533.583    504.383     29.200    501.415    504.016    501.415    501.782    501.415
 39.670    505.000    504.187      0.813    501.208    503.816    501.208    501.579    501.208
 39.770    513.000    503.999      9.001    501.002    503.625    501.002    501.377    501.002
 39.870    506.000    503.818      2.182    500.799    503.440    500.799    501.177    500.799
 39.970    457.000    503.645    -46.645    500.597    503.264    500.597    500.978    500.597
 40.070    464.655    503.480    -38.824    500.396    503.094    500.396    500.782    500.396
 40.170    526.007    503.322     22.685    500.197    502.933    500.197    500.587    500.197
 40.270    516.000    503.173     12.827    500.000    502.780    500.000    500.394    500.000
 40.370    515.000    503.033     11.967    499.804    502.635    499.804    500.202    499.804
 40.470    506.606    502.903      3.703    499.610    502.501    499.610    500.012    499.610
 40.570    477.000    502.784    -25.784    499.418    502.378    499.418    499.825    499.418
 40.670    463.000    502.677    -39.677    499.227    502.266    499.227    499.638    499.227
 40.770    492.000    502.585    -10.585    499.038    502.169    499.038    499.454    499.038
 40.870    477.912    502.509    -24.597    498.850    502.088    498.850    499.272    498.850
 40.970    478.000    502.452    -24.452    498.664    502.026    498.664    499.091    498.664
 41.070    502.000    502.418     -0.418    498.480    501.987    498.480    498.912    498.480
 41.170    504.000    502.412      1.588    498.298    501.976    498.298    498.735    498.298
 41.270    448.000    502.441    -54.441    498.117    501.999    498.117    498.559    498.117
 41.370    464.000    502.512    -38.512    497.937    502.065    497.937    498.386    497.937
 41.470    539.658    502.640     37.018    497.760    502.186    497.760    498.214    497.760
 41.570    484.000    502.840    -18.840    497.584    502.381    497.584    498.045    497.584
 41.670    502.766    503.144     -0.378    497.410    502.678    497.410    497.877    497.410
 41.770    508.850    503.609      5.241    497.237    503.137    497.237    497.711    497.237
 41.870    522.000    504.373     17.627    497.066    503.894    497.066    497.547    497.066
 41.970    492.000    505.774    -13.774    496.897    505.289    496.897    497.385    496.897
 42.070    550.569    508.562     42.007    496.729    508.070    496.729    497.224    496.729
 42.170    467.547    514.141    -46.594    496.563    513.644    496.563    497.066    496.563
 42.270    512.992    524.544    -11.552    496.399    524.043    496.399    496.910    496.399
 42.370    513.000    541.688    -28.688    496.236    541.187    496.236    496.755    496.236
 42.470    541.013    565.743    -24.729    496.075    565.245    496.075    496.603    496.075
 42.570    586.000    593.150     -7.150    495.916    592.658    495.916    496.452    495.916
 42.670    615.456    615.614     -0.158    495.758    615.127    495.758    496.304    495.758
 42.770    591.000    622.674    -31.674    495.602    622.185    495.602    496.157    495.602
 42.870    581.000    610.028    -29.028    495.448    609.526    495.448    496.013    495.448
 42.970    567.000    584.640    -17.640    495.296    584.115    495.296    495.871    495.296
 43.070    529.000    557.210    -28.210    495.145    556.659    495.145    495.730    495.145
 43.170    514.000    534.747    -20.747    494.996    534.172    494.996    495.592    494.996
 43.270    514.000    519.515     -5.515    494.848    518.919    494.848    495.456    494.848
 43.370    484.115    510.591    -26.476    494.703    509.978    494.703    495.323    494.703
 43.470    506.000    505.858      0.142    494.559    505.230    494.559    495.191    494.559
 43.570    524.367    503.412     20.954    494.416    502.770    494.416    495.062    494.416
 43.670    484.976    502.058    -17.081    494.275    501.401    494.275    494.934    494.275
 43.770    458.308    501.198    -42.891    494.136    500.527    494.136    494.810    494.136
 43.870    534.468    500.580     33.888    493.999    499.894    493.999    494.687    493.999
 43.970    491.255    500.101     -8.845    493.864    499.398    493.864    494.567    493.864
 44.070    458.046    499.715    -41.669    493.730    498.996    493.730    494.449    493.730
 44.170    490.000    499.398     -9.398    493.597    498.662    493.597    494.334    493.597
 44.270    499.000    499.136     -0.136    493.467    498.382    493.467    494.221    493.467
 44.370    502.000    498.916      3.084    493.338    498.143    493.338    494.111    493.338
 44.470    528.000    498.732     29.268    493.211    497.940    493.211    494.004    493.211
 44.570    526.190    498.578     27.613    493.086    497.764    493.086    493.899    493.086
 44.670    498.000    498.449     -0.449    492.962    497.614    492.962    493.797    492.962
 44.770    482.000    498.343    -16.343    492.840    497.485    492.840    493.698    492.840
 44.870    511.000    498.257     12.743    492.719    497.374    492.719    493.602    492.719
 44.970    492.000    498.190     -6.190    492.601    497.282    492.601    493.509    492.601
 45.070    493.000    498.140     -5.140    492.484    497.205    492.484    493.419    492.484
 45.170    516.000    498.108     17.892    492.368    497.143    492.368    493.333    492.368
 45.270    456.947    498.091    -41.145    492.255    497.097    492.255    493.250    492.255
 45.370    528.255    498.092     30.163    492.143    497.064    492.143    493.170    492.143
 45.470    541.087    498.109     42.978    492.032    497.047    492.032    493.095    492.032
 45.570    536.316    498.144     38.172    491.924    497.044    491.924    493.023    491.924
 45.670    516.030    498.196     17.833    491.817    497.058    491.817    492.956    491.817
 45.770    536.035    498.268     37.766    491.712    497.087    491.712    492.893    491.712
 45.870    512.875    498.361     14.514    491.608    497.135    491.608    492.834    491.608
 45.970    457.538    498.477    -40.938    491.506    497.201    491.506    492.781    491.506
 46.070    468.000    498.617    -30.617    491.406    497.289    491.406    492.734    491.406
 46.170    513.000    498.786     14.214    491.308    497.401    491.308    492.692    491.308
 46.270    527.000    498.987     28.013    491.211    497.541    491.211    492.656    491.211
 46.370    540.000    499.225     40.775    491.116    497.712    491.116    492.628    491.116
 46.470    540.442    499.505     40.936    491.022    497.920    491.022    492.606    491.022
 46.570    543.585    499.838     43.747    490.930    498.174    490.930    492.593    490.930
 46.670    535.000    500.233     34.767    490.840    498.483    490.840    492.589    490.840
 46.770    481.575    500.710    -19.135    490.751    498.865    490.751    492.596    490.751
 46.870    475.000    501.302    -26.302    490.664    499.352    490.664    492.613    490.664
 46.970    519.000    502.082     16.918    490.579    500.016    490.579    492.643    490.579
 47.070    544.790    503.212     41.578    490.496    501.017    490.496    492.687    490.496
 47.170    505.000    505.033     -0.033    490.414    502.695    490.414    492.748    490.414
 47.270    469.000    508.169    -39.169    490.333    505.669    490.333    492.826    490.333
 47.370    512.000    513.560     -1.560    490.255    510.877    490.255    492.927    490.255
 47.470    548.683    522.244     26.440    490.178    519.353    490.178    493.051    490.178
 47.570    538.000    534.842      3.158    490.102    531.712    490.102    493.205    490.102
 47.670    566.000    550.722     15.278    490.028    547.320    490.028    493.393    490.028
 47.770    560.000    567.296     -7.296    489.956    563.581    489.956    493.622    489.956
 47.870    600.000    579.970     20.030    489.886    575.900    489.886    493.900    489.886
 47.970    576.409    583.866     -7.458    489.817    579.390    489.817    494.237    489.817
 48.070    601.000    577.518     23.482    489.750    572.570    489.750    494.648    489.750
 48.170    563.000    564.454     -1.454    489.684    558.945    489.684    495.153    489.684
 48.270    543.287    549.970     -6.683    489.620    543.778    489.620    495.784    489.620
 48.370    534.299    537.923     -3.623    489.557    530.872    489.557    496.590    489.557
 48.470    499.535    530.046    -30.511    489.496    521.873    489.496    497.657    489.496
 48.570    559.631    526.471     33.160    489.437    516.769    489.437    499.132    489.437
 48.670    512.300    526.584    -14.285    489.379    514.701    489.379    501.258    489.379
 48.770    488.302    529.780    -41.478    489.323    514.689    489.323    504.410    489.323
 48.870    499.656    535.876    -36.219    489.269    516.027    489.269    509.114    489.269
 48.970    534.000    545.169    -11.169    489.216    518.365    489.216    516.015    489.216
 49.070    543.000    558.266    -15.266    489.164    521.666    489.164    525.760    489.164
 49.170    571.129    575.890     -4.761    489.115    526.220    489.115    538.779    489.115
 49.270    571.903    598.870    -26.967    489.066    532.946    489.066    554.983    489.066
 49.370    649.000    628.724     20.276    489.020    544.376    489.020    573.358    489.020
 49.470    700.000    669.393     30.607    488.974    566.868    488.974    591.485    488.974
 49.570    750.518    730.602     19.916    488.931    614.216    488.931    605.293    488.931
 49.670    833.000    832.291      0.709    488.889    710.939    488.889    610.198    488.889
 49.770   1074.000   1005.719     68.281    488.848    890.319    488.848    604.174    488.848
 49.870   1272.000   1281.814     -9.814    488.809   1180.885    488.809    589.621    488.809
 49.970   1730.000   1663.282     66.718    488.772   1580.679    488.772    571.218    488.772
 50.070   2153.229   2095.621     57.608    488.736   2031.281    488.736    552.907    488.736
 50.170   2403.294   2460.227    -56.933    488.701   2411.855    488.701    536.943    488.701
 50.270   2585.000   2611.606    -26.606    488.668   2576.027    488.668    524.216    488.668
 50.370   2507.000   2472.860     34.140    488.637   2446.850    488.637    514.742    488.637
 50.470   2079.000   2107.137    -28.137    488.607   2087.880    488.607    508.051    488.607
 50.570   1639.000   1657.515    -18.515    488.579   1642.821    488.579    503.487    488.579
 50.670   1254.799   1250.309      4.490    488.552   1238.638    488.552    500.414    488.552
 50.770    978.735    951.556     27.179    488.526    941.905    488.526    498.321    488.526
 50.870    807.151    768.426     38.724    488.502    760.181    488.502    496.845    488.502
 50.970    695.911    673.405     22.506    488.480    666.193    488.480    495.758    488.480
 51.070    612.000    630.485    -18.485    488.459    624.072    488.459    494.920    488.459
 51.170    633.000    610.665     22.335    488.439    604.893    488.439    494.251    488.439
 51.270    549.000    596.758    -47.758    488.421    591.510    488.421    493.703    488.421
 51.370    615.000    582.275     32.725    488.404    577.460    488.404    493.247    488.404
 51.470    578.048    567.122     10.926    488.389    562.669    488.389    492.864    488.389
 51.570    596.425    553.156     43.269    488.375    549.008    488.375    492.540    488.375
 51.670    589.552    541.850     47.702    488.363    537.960    488.363    492.264    488.363
 51.770    572.764    533.712     39.052    488.352    530.042    488.352    492.029    488.352
 51.870    542.000    528.461     13.539    488.342    524.980    488.342    491.828    488.342
 51.970    554.000    525.441     28.559    488.334    522.123    488.334    491.656    488.334
 52.070    543.000    523.986     19.014    488.328    520.807    488.328    491.509    488.328
 52.170    522.567    523.624     -1.058    488.322    520.564    488.322    491.385    488.322
 52.270    499.248    524.126    -24.878    488.318    521.167    488.318    491.279    488.318
 52.370    530.000    525.490      4.510    488.316    522.617    488.316    491.190    488.316
 52.470    593.000    527.993     65.007    488.314    525.192    488.314    491.117    488.314
 52.570    579.204    532.379     46.825    488.315    529.637    488.315    491.057    488.315
 52.670    578.000    540.275     37.725    488.316    537.582    488.316    491.009    488.316
 52.770    513.854    554.797    -40.944    488.319    552.143    488.319    490.973    488.319
 52.870    548.109    581.065    -32.956    488.323    578.440    488.323    490.947    488.323
 52.970    656.000    625.997     30.003    488.329    623.391    488.329    490.931    488.329
 53.070    759.000    696.572     62.428    488.335    693.978    488.335    490.924    488.335
 53.170    808.000    796.244     11.756    488.344    793.653    488.344    490.925    488.344
 53.270    942.000    920.284     21.716    488.353    917.692    488.353    490.935    488.353
 53.370   1046.183   1051.849     -5.666    488.364   1049.253    488.364    490.953    488.364
 53.470   1185.335   1160.964     24.371    488.376   1158.361    488.376    490.979    488.376
 53.570   1172.112   1211.740    -39.628    488.389   1209.128    488.389    491.012    488.389
 53.670   1120.000   1183.619    -63.619    488.404   1180.993    488.404    491.053    488.404
 53.770   1115.293   1088.906     26.387    488.420   1086.255    488.420    491.102    488.420
 53.870    998.462    961.314     37.149    488.437    958.626    488.437    491.157    488.437
 53.970    808.000    833.531    -25.531    488.455    830.794    488.455    491.221    488.455
 54.070    699.000    726.347    -27.347    488.475    723.553    488.475    491.292    488.475
 54.170    631.000    647.777    -16.777    488.496    644.917    488.496    491.371    488.496
 54.270    592.000    596.351     -4.351    488.518    593.421    488.518    491.458    488.518
 54.370    561.000    565.754     -4.754    488.542    562.748    488.542    491.554    488.542
 54.470    568.000    548.840     19.160    488.566    545.752    488.566    491.658    488.566
 54.570    583.169    539.906     43.263    488.592    536.729    488.592    491.771    488.592
 54.670    553.082    535.278     17.804    488.619    532.004    488.619    491.894    488.619
 54.770    544.405    532.938     11.467    488.647    529.559    488.647    492.028    488.647
 54.870    535.000    531.907      3.093    488.677    528.413    488.677    492.172    488.677
 54.970    520.971    531.756    -10.785    488.707    528.136    488.707    492.328    488.707
 55.070    546.000    532.311     13.689    488.739    528.554    488.739    492.496    488.739
 55.170    478.000    533.515    -55.515    488.772    529.609    488.772    492.678    488.772
 55.270    560.109    535.376     24.733    488.806    531.308    488.806    492.875    488.806
 55.370    548.488    537.948     10.540    488.841    533.701    488.841    493.088    488.841
 55.470    499.813    541.336    -41.523    488.878    536.895    488.878    493.318    488.878
 55.570    539.366    545.737     -6.371    488.915    541.085    488.915    493.567    488.915
 55.670    517.222    551.539    -34.317    488.954    546.654    488.954    493.838    488.954
 55.770    550.000    559.567     -9.567    488.993    554.427    488.993    494.131    488.993
 55.870    526.000    571.635    -45.635    489.034    566.213    489.034    494.451    489.034
 55.970    639.000    591.557     47.443    489.076    585.824    489.076    494.801    489.076
 56.070    666.658    626.671     39.987    489.119    620.592    489.119    495.182    489.119
 56.170    670.000    689.410    -19.410    489.163    682.943    489.163    495.601    489.163
 56.270    752.295    797.663    -45.368    489.208    790.761    489.208    496.062    489.208
 56.370    907.000    971.959    -64.959    489.254    964.572    489.254    496.570    489.254
 56.470   1199.000   1227.946    -28.946    489.301   1220.025    489.301    497.132    489.301
 56.570   1551.000   1564.900    -13.900    489.349   1556.398    489.349    497.757    489.349
 56.670   1930.069   1954.115    -24.046    489.399   1944.985    489.399    498.455    489.399
 56.770   2367.000   2332.692     34.308    489.449   2322.887    489.449    499.237    489.449
 56.870   2492.000   2609.535   -117.535    489.500   2598.989    489.500    500.117    489.500
 56.970   2763.000   2695.458     67.542    489.552   2684.063    489.552    501.115    489.552
 57.070   2475.000   2557.816    -82.816    489.606   2545.404    489.606    502.251    489.606
 57.170   2291.686   2247.952     43.733    489.660   2234.309    489.660    503.555    489.660
 57.270   1932.000   1861.221     70.779    489.715   1846.101    489.715    505.064    489.715
 57.370   1556.000   1483.875     72.125    489.771   1466.995    489.771    506.835    489.771
 57.470   1176.000   1170.180      5.820    489.828   1151.191    489.828    508.949    489.828
 57.570    962.000    940.914     21.086    489.886    919.346    489.886    511.540    489.886
 57.670    774.068    791.671    -17.603    489.945    766.842    489.945    514.825    489.945
 57.770    753.138    705.135     48.003    490.005    676.007    490.005    519.160    490.005
 57.870    702.000    662.127     39.873    490.066    627.093    490.066    525.113    490.066
 57.970    637.975    648.236    -10.261    490.127    604.835    490.127    533.531    490.127
 58.070    622.000    655.931    -33.931    490.190    600.518    490.190    545.598    490.190
 58.170    655.000    683.675    -28.675    490.253    611.112    490.253    562.803    490.253
 58.270    727.000    733.672     -6.672    490.318    637.168    490.318    586.798    490.318
 58.370    828.748    809.203     19.545    490.383    680.462    490.383    619.090    490.383
 58.470    936.000    911.932     24.068    490.449    741.759    490.449    660.576    490.449
 58.570   1054.000   1039.539     14.461    490.516    819.040    490.516    710.960    490.516
 58.670   1151.000   1183.964    -32.964    490.584    906.425    490.584    768.064    490.584
 58.770   1381.000   1331.095     49.905    490.652    994.632    490.652    827.061    490.652
 58.870   1362.000   1463.100   -101.100    490.721   1073.930    490.721    879.851    490.721
 58.970   1561.948   1561.767      0.181    490.792   1136.799    490.792    915.736    490.792
 59.070   1594.637   1610.704    -16.067    490.862   1176.487    490.862    925.077    490.862
 59.170   1603.000   1600.023      2.977    490.934   1186.029    490.934    904.946    490.934
 59.270   1485.224   1533.933    -48.709    491.007   1163.647    491.007    861.322    491.007
 59.370   1467.327   1432.137     35.190    491.080   1118.254    491.080    804.992    491.080
 59.470   1278.431   1320.633    -42.202    491.154   1065.797    491.154    746.001    491.154
 59.570   1258.000   1222.244     35.756    491.228   1022.271    491.228    691.182    491.228
 59.670   1150.655   1154.404     -3.750    491.304   1001.414    491.304    644.232    491.304
 59.770   1150.000   1130.517     19.483    491.380   1015.282    491.380    606.503    491.380
 59.870   1135.702   1158.668    -22.965    491.457   1072.211    491.457    577.745    491.457
 59.970   1258.000   1236.877     21.123    491.534   1171.433    491.534    556.757    491.534
 60.070   1421.000   1349.116     71.884    491.613   1298.542    491.613    541.922    491.613
 60.170   1495.000   1465.100     29.900    491.692   1424.887    491.692    531.620    491.692
 60.270   1476.026   1545.360    -69.334    491.771   1512.390    491.771    524.469    491.771
 60.370   1611.000   1554.368     56.632    491.851   1526.569    491.851    519.419    491.851
 60.470   1492.000   1479.439     12.561    491.932   1455.457    491.932    515.739    491.932
 60.570   1383.000   1338.484     44.516    492.014   1317.418    492.014    512.959    492.014
 60.670   1225.000   1166.391     58.609    492.096   1147.622    492.096    510.790    492.096
 60.770    986.521    996.739    -10.217    492.179    979.811    492.179    509.063    492.179
 60.870    882.000    852.457     29.543    492.262    837.015    492.262    507.681    492.262
 60.970    779.000    743.978     35.022    492.346    729.720    492.346    506.589    492.346
 61.070    698.636    671.574     27.062    492.431    658.232    492.431    505.760    492.431
 61.170    661.598    629.902     31.697    492.516    617.224    492.516    505.178    492.516
 61.270    633.000    612.727     20.273    492.601    600.473    492.601    504.835    492.601
 61.370    610.630    616.303     -5.673    492.688    604.244    492.688    504.717    492.688
 61.470    705.000    640.789     64.211    492.774    628.717    492.774    504.801    492.774
 61.570    672.927    689.763    -16.836    492.862    677.512    492.862    505.046    492.862
 61.670    735.000    768.039    -33.039    492.949    755.512    492.949    505.382    492.949
 61.770    872.000    878.164     -6.164    493.038    865.374    493.038    505.702    493.038
 61.870   1001.000   1016.442    -15.442    493.126   1003.544    493.126    505.869    493.126
 61.970   1171.895   1169.802      2.093    493.216   1157.092    493.216    505.750    493.216
 62.070   1220.000   1314.854    -94.854    493.306   1302.695    493.306    505.285    493.306
 62.170   1458.084   1420.530     37.555    493.396   1409.238    493.396    504.525    493.396
 62.270   1463.822   1457.215      6.608    493.486   1446.984    493.486    503.590    493.486
 62.370   1342.000   1412.556    -70.556    493.577   1403.439    493.577    502.608    493.577
 62.470   1246.000   1300.406    -54.406    493.669   1292.352    493.669    501.674    493.669
 62.570   1133.482   1151.048    -17.566    493.761   1143.945    493.761    500.842    493.761
 62.670   1002.000    995.344      6.656    493.853    989.052    493.853    500.140    493.853
 62.770    833.000    855.964    -22.964    493.946    850.340    493.946    499.572    493.946
 62.870    703.000    745.041    -42.041    494.039    739.955    494.039    499.129    494.039
 62.970    710.881    665.239     45.642    494.133    660.580    494.133    498.793    494.133
 63.070    623.000    612.758     10.242    494.227    608.440    494.227    498.544    494.227
 63.170    600.876    580.900     19.976    494.321    576.857    494.321    498.361    494.321
 63.270    580.000    562.914     17.086    494.415    559.097    494.415    498.228    494.415
 63.370    590.000    553.564     36.436    494.510    549.937    494.510    498.131    494.510
 63.470    551.000    549.565      1.435    494.606    546.102    494.606    498.061    494.606
 63.570    579.000    549.421     29.579    494.701    546.102    494.701    498.012    494.701
 63.670    598.000    553.089     44.911    494.797    549.897    494.797    497.978    494.797
 63.770    513.795    561.707    -47.911    494.893    558.626    494.893    497.957    494.893
 63.870    604.792    577.348     27.443    494.989    574.367    494.989    497.946    494.989
 63.970    632.000    602.662     29.338    495.086    599.766    495.086    497.945    495.086
 64.070    586.984    640.202    -53.218    495.183    637.381    495.183    497.953    495.183
 64.170    707.000    691.426     15.574    495.280    688.669    495.280    497.967    495.280
 64.270    791.000    755.499     35.501    495.377    752.797    495.377    497.989    495.377
 64.370    851.000    828.218     22.782    495.475    825.566    495.475    498.016    495.475
 64.470    931.000    901.439     29.561    495.573    898.836    495.573    498.049    495.573
 64.570    966.000    963.618      2.382    495.671    961.069    495.671    498.088    495.671
 64.670    976.000   1002.598    -26.598    495.769   1000.108    495.769    498.131    495.769
 64.770   1001.000   1010.624     -9.624    495.867   1008.200    495.867    498.178    495.867
 64.870    987.000    987.852     -0.852    495.966    985.498    495.966    498.230    495.966
 64.970    980.000    941.253     38.747    496.065    938.969    496.065    498.285    496.065
 65.070    881.000    881.244     -0.244    496.163    879.027    496.163    498.344    496.163
 65.170    830.000    818.281     11.719    496.262    816.124    496.262    498.407    496.262
 65.270    728.520    760.113    -31.593    496.361    758.008    496.361    498.472    496.361
 65.370    725.000    710.606     14.394    496.461    708.544    496.461    498.541    496.461
 65.470    610.000    670.315    -60.315    496.560    668.286    496.560    498.613    496.560
 65.570    629.000    638.098     -9.098    496.659    636.096    496.659    498.687    496.659
 65.670    659.586    612.563     47.023    496.759    610.580    496.759    498.764    496.759
 65.770    591.000    592.576     -1.576    496.858    590.608    496.858    498.844    496.858
 65.870    540.000    577.235    -37.235    496.958    575.279    496.958    498.926    496.958
 65.970    523.910    565.806    -41.896    497.057    563.860    497.057    499.010    497.057
 66.070    564.000    557.679      6.321    497.157    555.742    497.157    499.097    497.157
 66.170    564.000    552.327     11.673    497.257    550.398    497.257    499.186    497.257
 66.270    584.000    549.276     34.724    497.356    547.355    497.356    499.276    497.356
 66.370    537.490    548.113    -10.623    497.456    546.199    497.456    499.369    497.456
 66.470    541.049    548.517     -7.468    497.556    546.608    497.556    499.464    497.556
 66.570    530.000    550.316    -20.316    497.655    548.409    497.655    499.562    497.655
 66.670    565.000    553.561     11.439    497.755    551.653    497.755    499.662    497.755
 66.770    544.000    558.658    -14.658    497.854    556.748    497.854    499.764    497.854
 66.870    572.000    566.597      5.403    497.954    564.683    497.954    499.868    497.954
 66.970    575.000    579.329     -4.329    498.053    577.407    498.053    499.975    498.053
 67.070    621.670    600.280     21.390    498.153    598.347    498.153    500.084    498.153
 67.170    649.072    634.905     14.168    498.252    632.957    498.252    500.195    498.252
 67.270    685.000    690.981     -5.981    498.351    689.015    498.351    500.308    498.351
 67.370    766.000    778.225    -12.225    498.450    776.236    498.450    500.424    498.450
 67.470    932.744    906.749     25.995    498.549    904.736    498.549    500.542    498.549
 67.570   1092.000   1084.172      7.828    498.648   1082.134    498.648    500.662    498.648
 67.670   1319.000   1311.691      7.309    498.746   1309.631    498.746    500.786    498.746
 67.770   1664.000   1580.104     83.896    498.845   1578.030    498.845    500.912    498.845
 67.870   1868.509   1867.060      1.449    498.943   1864.983    498.943    501.041    498.943
 67.970   2063.000   2136.665    -73.665    499.041   2134.599    499.041    501.173    499.041
 68.070   2364.378   2343.131     21.248    499.139   2341.088    499.139    501.309    499.139
 68.170   2470.000   2441.860     28.140    499.237   2439.846    499.237    501.448    499.237
 68.270   2343.000   2408.207    -65.207    499.334   2406.209    499.334    501.591    499.334
 68.370   2319.000   2251.201     67.799    499.431   2249.193    499.431    501.738    499.431
 68.470   1983.073   2007.927    -24.854    499.529   2005.873    499.529    501.889    499.529
 68.570   1817.000   1725.222     91.778    499.625   1723.089    499.625    502.044    499.625
 68.670   1439.000   1444.586     -5.586    499.722   1442.349    499.722    502.205    499.722
 68.770   1261.000   1195.258     65.742    499.818   1192.903    499.818    502.371    499.818
 68.870    954.000    992.798    -38.798    499.914    990.318    499.914    502.543    499.914
 68.970    714.000    840.778   -126.778    500.010    838.173    500.010    502.722    500.010
 69.070    712.848    734.313    -21.465    500.105    731.583    500.105    502.907    500.105
 69.170    643.000    664.142    -21.142    500.200    661.289    500.200    503.101    500.200
 69.270    588.412    620.112    -31.699    500.295    617.134    500.295    503.303    500.295
 69.370    633.000    593.383     39.617    500.390    590.278    500.390    503.514    500.390
 69.470    643.000    577.338     65.662    500.484    574.099    500.484    503.736    500.484
 69.570    541.344    567.569    -26.225    500.578    564.185    500.578    503.969    500.578
 69.670    604.044    561.404     42.639    500.671    557.865    500.671    504.216    500.671
 69.770    576.000    557.350     18.650    500.764    553.641    500.764    504.477    500.764
 69.870    571.000    554.620     16.380    500.857    550.726    500.857    504.754    500.857
 69.970    576.000    552.819     23.181    500.949    548.720    500.949    505.050    500.949
 70.070    603.000    551.754     51.246    501.041    547.430    501.041    505.366    501.041
 70.170    548.000    551.338     -3.338    501.132    546.764    501.132    505.707    501.132
 70.270    592.000    551.551     40.449    501.223    546.699    501.223    506.074    501.223
 70.370    543.772    552.430     -8.658    501.314    547.270    501.314    506.472    501.314
 70.470    573.000    554.097     18.903    501.404    548.593    501.404    506.906    501.404
 70.570    600.000    556.815     43.185    501.494    550.925    501.494    507.380    501.494
 70.670    568.000    561.105      6.895    501.583    554.779    501.583    507.903    501.583
 70.770    573.000    567.908      5.092    501.672    561.088    501.672    508.483    501.672
 70.870    567.000    578.834    -11.834    501.760    571.450    501.760    509.131    501.760
 70.970    537.000    596.447    -59.447    501.848    588.413    501.848    509.863    501.848
 71.070    573.000    624.489    -51.489    501.935    615.693    501.935    510.701    501.935
 71.170    625.000    667.900    -42.900    502.022    658.194    502.022    511.683    502.022
 71.270    733.000    732.431      0.569    502.108    721.610    502.108    512.864    502.108
 71.370    788.000    823.677    -35.677    502.193    811.443    502.193    514.336    502.193
 71.470    930.311    945.504    -15.192    502.278    931.414    502.278    516.245    502.278
 71.570   1072.388   1098.100    -25.712    502.363   1081.489    502.363    518.816    502.363
 71.670   1222.639   1276.101    -53.462    502.447   1255.975    502.447    522.381    502.447
 71.770   1468.900   1467.330      1.570    502.530   1442.235    502.530    527.407    502.530
 71.870   1672.000   1652.630     19.370    502.613   1620.513    502.613    534.496    502.613
 71.970   1891.000   1807.457     83.543    502.695   1765.548    502.695    544.372    502.695
 72.070   1986.000   1906.568     79.432    502.777   1851.327    502.777    557.808    502.777
 72.170   1972.000   1932.454     39.546    502.858   1859.636    502.858    575.502    502.858
 72.270   1924.000   1883.610     40.390    502.938   1788.510    502.938    597.908    502.938
 72.370   1705.000   1775.428    -70.428    503.018   1653.331    503.018    625.026    503.018
 72.470   1650.000   1632.530     17.470    503.097   1479.374    503.097    656.197    503.097
 72.570   1507.000   1479.392     27.608    503.175   1292.622    503.175    689.914    503.175
 72.670   1258.000   1334.593    -76.593    503.253   1114.160    503.253    723.669    503.253
 72.770   1185.624   1208.677    -23.053    503.330    958.081    503.330    753.917    503.330
 72.870   1090.000   1104.364    -14.364    503.406    831.388    503.406    776.375    503.406
 72.970    982.210   1018.655    -36.446    503.482    735.108    503.482    787.023    503.482
 73.070    981.043    946.244     34.799    503.557    666.116    503.557    783.680    503.557
 73.170    932.803    882.606     50.197    503.631    619.138    503.631    767.094    503.631
 73.270    788.000    825.277    -37.277    503.705    588.445    503.705    740.533    503.705
 73.370    666.000    773.474   -107.474    503.777    568.957    503.777    708.290    503.777
 73.470    704.000    727.258    -23.258    503.849    556.753    503.849    674.352    503.849
 73.570    632.000    686.970    -54.970    503.921    549.120    503.921    641.770    503.921
 73.670    616.524    652.925    -36.400    503.991    544.357    503.991    612.560    503.991
 73.770    635.755    625.235     10.520    504.061    541.495    504.061    587.804    504.061
 73.870    588.000    603.717    -15.717    504.130    540.030    504.130    567.823    504.130
 73.970    557.150    587.880    -30.731    504.198    539.712    504.198    552.375    504.198
 74.070    610.608    576.986     33.622    504.265    540.396    504.265    540.868    504.265
 74.170    569.000    570.139     -1.139    504.332    541.938    504.332    532.551    504.332
 74.270    599.000    566.367     32.633    504.397    544.125    504.397    526.664    504.397
 74.370    530.830    564.690    -33.860    504.462    546.647    504.462    522.536    504.462
 74.470    614.000    564.154     49.846    504.526    549.087    504.526    519.629    504.526
 74.570    596.861    563.870     32.991    504.590    550.955    504.590    517.546    504.590
 74.670    563.919    563.089      0.830    504.652    551.778    504.652    516.006    504.652
 74.770    626.000    561.323     64.677    504.713    551.254    504.713    514.826    504.713
 74.870    646.000    558.459     87.541    504.774    549.386    504.774    513.889    504.774
 74.970    593.000    554.736     38.264    504.834    546.487    504.834    513.120    504.834
 75.070    673.000    550.609    122.391    504.892    543.058    504.892    512.475    504.892
 75.170    521.826    546.600    -24.775    504.950    539.651    504.950    511.925    504.950
 75.270    579.484    543.219     36.265    505.007    536.795    505.007    511.450    505.007
 75.370    543.435    540.949      2.485    505.063    534.988    505.063    511.037    505.063
 75.470    534.693    540.266     -5.574    505.119    534.716    505.119    510.676    505.119
 75.570    513.000    541.664    -28.664    505.173    536.479    505.173    510.359    505.173
 75.670    529.000    545.668    -16.668    505.226    540.810    505.226    510.079    505.226
 75.770    516.283    552.811    -36.528    505.278    548.246    505.278    509.833    505.278
 75.870    603.251    563.550     39.702    505.330    559.248    505.330    509.614    505.330
 75.970    561.000    578.125    -17.125    505.380    574.059    505.380    509.420    505.380
 76.070    576.107    596.389    -20.282    505.430    592.536    505.430    509.248    505.430
 76.170    618.000    617.634      0.366    505.478    613.974    505.478    509.094    505.478
 76.270    628.689    640.484    -11.795    505.526    636.999    505.526    508.958    505.526
 76.370    666.000    662.864      3.136    505.572    659.539    505.572    508.835    505.572
 76.470    713.970    682.112     31.858    505.617    678.936    505.617    508.726    505.617
 76.570    730.000    695.322     34.678    505.662    692.287    505.662    508.628    505.662
 76.670    737.000    700.064     36.936    505.705    697.162    505.705    508.541    505.705
 76.770    716.951    695.328     21.623    505.748    692.553    505.748    508.462    505.748
 76.870    696.869    682.012     14.857    505.789    679.357    505.789    508.392    505.789
 76.970    655.837    662.475     -6.638    505.829    659.933    505.829    508.329    505.829
 77.070    662.000    639.602     22.398    505.869    637.166    505.869    508.272    505.869
 77.170    555.000    616.060    -61.060    505.907    613.722    505.907    508.221    505.907
 77.270    585.741    593.934     -8.193    505.944    591.685    505.944    508.175    505.944
 77.370    556.000    574.597    -18.597    505.980    572.431    505.980    508.134    505.980
 77.470    549.000    558.730     -9.730    506.015    556.641    506.015    508.097    506.015
 77.570    504.000    546.427    -42.427    506.049    544.407    506.049    508.063    506.049
 77.670    555.789    537.359     18.430    506.081    535.404    506.081    508.033    506.081
 77.770    508.024    530.970    -22.946    506.113    529.075    506.113    508.006    506.113
 77.870    536.233    526.629      9.604    506.143    524.789    506.143    507.981    506.143
 77.970    513.000    523.724    -10.724    506.173    521.936    506.173    507.959    506.173
 78.070    520.000    521.851     -1.851    506.201    520.112    506.201    507.939    506.201
 78.170    500.000    520.633    -20.633    506.228    518.939    506.228    507.921    506.228
 78.270    543.000    519.823     23.177    506.254    518.172    506.254    507.905    506.254
 78.370    474.201    519.274    -45.073    506.279    517.662    506.279    507.890    506.279
 78.470    557.000    518.894     38.106    506.303    517.319    506.303    507.877    506.303
 78.570    540.000    518.634     21.366    506.325    517.094    506.325    507.864    506.325
 78.670    557.239    518.473     38.766    506.346    516.965    506.346    507.854    506.346
 78.770    514.000    518.406     -4.406    506.367    516.927    506.367    507.844    506.367
 78.870    501.291    518.439    -17.148    506.386    516.988    506.386    507.836    506.386
 78.970    543.965    518.591     25.373    506.403    517.165    506.403    507.829    506.403
 79.070    524.186    518.887      5.300    506.420    517.481    506.420    507.824    506.420
 79.170    477.000    519.356    -42.356    506.435    517.969    506.435    507.821    506.435
 79.270    508.153    520.033    -11.880    506.450    518.660    506.450    507.821    506.450
 79.370    564.075    520.954     43.121    506.463    519.590    506.463    507.825    506.463
 79.470    524.000    522.154      1.846    506.474    520.793    506.474    507.833    506.474
 79.570    547.528    523.670     23.858    506.485    522.305    506.485    507.846    506.485
 79.670    506.000    525.544    -19.544    506.494    524.166    506.494    507.867    506.494
 79.770    524.000    527.839     -3.839    506.502    526.440    506.502    507.896    506.502
 79.870    552.000    530.654     21.346    506.509    529.223    506.509    507.935    506.509
 79.970    527.000    534.141     -7.141    506.514    532.668    506.514    507.983    506.514
 80.070    524.000    538.530    -14.530    506.519    537.003    506.519    508.040    506.519
 80.170    542.000    544.146     -2.146    506.522    542.557    506.522    508.106    506.522
 80.270    553.000    551.416      1.584    506.524    549.757    506.524    508.179    506.524
 80.370    594.780    560.821     33.959    506.524    559.090    506.524    508.254    506.524
 80.470    575.000    572.802      2.198    506.523    571.000    506.523    508.326    506.523
 80.570    582.000    587.628     -5.628    506.521    585.765    506.521    508.388    506.521
 80.670    569.000    605.285    -36.285    506.518    603.378    506.518    508.433    506.518
 80.770    617.000    625.383     -8.383    506.513    623.457    506.513    508.453    506.513
 80.870    607.000    647.120    -40.120    506.507    645.205    506.507    508.442    506.507
 80.970    665.000    669.318     -4.318    506.500    667.445    506.500    508.399    506.500
 81.070    692.192    690.568      1.623    506.491    688.764    506.491    508.328    506.491
 81.170    702.000    709.445     -7.445    506.481    707.730    506.481    508.236    506.481
 81.270    736.333    724.707     11.627    506.470    723.091    506.470    508.132    506.470
 81.370    747.000    735.398     11.602    506.458    733.886    506.458    508.022    506.458
 81.470    780.000    740.922     39.078    506.444    739.511    506.444    507.913    506.444
 81.570    742.000    741.102      0.898    506.429    739.785    506.429    507.808    506.429
 81.670    781.625    736.153     45.472    506.412    734.920    506.412    507.711    506.412
 81.770    724.716    726.597     -1.882    506.394    725.437    506.394    507.622    506.394
 81.870    728.000    713.226     14.774    506.375    712.126    506.375    507.543    506.375
 81.970    739.207    697.099     42.108    506.354    696.048    506.354    507.473    506.354
 82.070    673.597    679.428     -5.831    506.333    678.416    506.333    507.410    506.333
 82.170    617.891    661.337    -43.446    506.309    660.355    506.309    507.355    506.309
 82.270    613.836    643.647    -29.810    506.285    642.687    506.285    507.304    506.285
 82.370    663.000    626.821     36.179    506.259    625.877    506.259    507.258    506.259
 82.470    607.000    611.072     -4.072    506.231    610.140    506.231    507.214    506.231
 82.570    557.000    596.529    -39.529    506.202    595.604    506.202    507.172    506.202
 82.670    520.000    583.349    -63.349    506.172    582.429    506.172    507.132    506.172
 82.770    531.986    571.734    -39.748    506.141    570.816    506.141    507.091    506.141
 82.870    545.000    561.891    -16.891    506.108    560.974    506.108    507.051    506.108
 82.970    563.138    553.994      9.144    506.074    553.075    506.074    507.011    506.074
 83.070    553.000    548.165      4.835    506.038    547.244    506.038    506.970    506.038
 83.170    573.169    544.471     28.698    506.001    543.547    506.001    506.929    506.001
 83.270    563.212    542.899     20.314    505.962    541.971    505.962    506.886    505.962
 83.370    561.000    543.338     17.662    505.923    542.407    505.923    506.843    505.923
 83.470    544.000    545.568     -1.568    505.881    544.631    505.881    506.799    505.881
 83.570    557.000    549.240      7.760    505.839    548.299    505.839    506.754    505.839
 83.670    547.000    553.885     -6.885    505.795    552.939    505.795    506.708    505.795
 83.770    503.000    558.923    -55.923    505.749    557.972    505.749    506.661    505.749
 83.870    546.000    563.693    -17.693    505.702    562.739    505.702    506.613    505.702
 83.970    529.000    567.508    -38.508    505.654    566.551    505.654    506.564    505.654
 84.070    569.000    569.743     -0.743    505.604    568.785    505.604    506.514    505.604
 84.170    559.000    569.971    -10.971    505.553    569.014    505.553    506.463    505.553
 84.270    559.000    568.072     -9.072    505.500    567.118    505.500    506.411    505.500
 84.370    531.000    564.269    -33.269    505.446    563.318    505.446    506.358    505.446
 84.470    526.000    559.032    -33.032    505.391    558.085    505.391    506.304    505.391
 84.570    593.190    552.940     40.250    505.334    551.997    505.334    506.248    505.334
 84.670    535.000    546.558    -11.558    505.276    545.618    505.276    506.192    505.276
 84.770    513.000    540.367    -27.367    505.216    539.429    505.216    506.134    505.216
 84.870    543.000    534.724      8.276    505.155    533.789    505.155    506.076    505.155
 84.970    500.000    529.858    -29.858    505.092    528.923    505.092    506.016    505.092
 85.070    543.653    525.868     17.786    505.028    524.932    505.028    505.955    505.028
 85.170    517.000    522.752     -5.752    504.963    521.815    504.963    505.893    504.963
 85.270    545.917    520.438     25.479    504.896    519.498    504.896    505.830    504.896
 85.370    556.722    518.810     37.911    504.827    517.868    504.827    505.766    504.827
 85.470    529.000    517.746     11.254    504.757    516.799    504.757    505.700    504.757
 85.570    495.000    517.133    -22.133    504.686    516.182    504.686    505.634    504.686
 85.670    525.000    516.887      8.113    504.614    515.930    504.614    505.566    504.614
 85.770    552.969    516.957     36.012    504.539    515.994    504.539    505.498    504.539
 85.870    501.000    517.334    -16.334    504.464    516.364    504.464    505.428    504.464
 85.970    500.000    518.052    -18.052    504.387    517.074    504.387    505.357    504.387
 86.070    550.823    519.186     31.637    504.308    518.200    504.308    505.285    504.308
 86.170    523.000    520.856      2.144    504.228    519.861    504.228    505.213    504.228
 86.270    521.000    523.222     -2.222    504.147    522.216    504.147    505.139    504.147
 86.370    493.000    526.472    -33.472    504.064    525.454    504.064    505.064    504.064
 86.470    499.174    530.810    -31.636    503.980    529.777    503.980    504.988    503.980
 86.570    576.000    536.422     39.578    503.894    535.374    503.894    504.911    503.894
 86.670    511.590    543.449    -31.859    503.807    542.383    503.807    504.833    503.807
 86.770    543.000    551.935     -8.935    503.718    550.849    503.718    504.754    503.718
 86.870    590.000    561.774     28.226    503.628    560.666    503.628    504.674    503.628
 86.970    542.000    572.732    -30.732    503.537    571.601    503.537    504.593    503.537
 87.070    556.307    584.342    -28.035    503.444    583.187    503.444    504.511    503.444
 87.170    639.693    595.944     43.749    503.350    594.766    503.350    504.429    503.350
 87.270    669.000    606.707     62.293    503.254    605.507    503.254    504.345    503.254
 87.370    691.000    615.689     75.311    503.157    614.469    503.157    504.261    503.157
 87.470    595.000    621.961    -26.961    503.058    620.724    503.058    504.176    503.058
 87.570    658.000    624.807     33.193    502.958    623.557    502.958    504.090    502.958
 87.670    618.000    623.929     -5.929    502.856    622.671    502.856    504.003    502.856
 87.770    635.000    619.548     15.452    502.753    618.283    502.753    503.916    502.753
 87.870    584.704    612.318    -27.614    502.649    611.049    502.649    503.828    502.649
 87.970    611.000    603.151      7.849    502.543    601.879    502.543    503.740    502.543
 88.070    635.000    593.041     41.959    502.435    591.764    502.435    503.650    502.435
 88.170    558.000    582.947    -24.947    502.327    581.665    502.327    503.561    502.327
 88.270    589.983    573.723     16.259    502.216    572.434    502.216    503.471    502.216
 88.370    542.000    566.060    -24.060    502.105    564.761    502.105    503.380    502.105
 88.470    570.000    560.454      9.546    501.992    559.142    501.992    503.290    501.992
 88.570    556.000    557.190     -1.190    501.877    555.865    501.877    503.199    501.877
 88.670    548.000    556.347     -8.347    501.762    555.005    501.762    503.108    501.762
 88.770    515.001    557.803    -42.802    501.644    556.443    501.644    503.016    501.644
 88.870    513.561    561.259    -47.698    501.526    559.879    501.526    502.925    501.526
 88.970    570.000    566.256      3.744    501.405    564.854    501.405    502.834    501.405
 89.070    594.317    572.206     22.110    501.284    570.781    501.284    502.744    501.284
 89.170    613.000    578.419     34.581    501.161    576.969    501.161    502.653    501.161
 89.270    616.000    584.145     31.855    501.037    582.669    501.037    502.562    501.037
 89.370    626.000    588.638     37.362    500.911    587.132    500.911    502.473    500.911
 89.470    594.000    591.243      2.757    500.784    589.702    500.784    502.385    500.784
 89.570    542.519    591.519    -49.000    500.655    589.939    500.655    502.298    500.655
 89.670    614.000    589.341     24.659    500.525    587.717    500.525    502.212    500.525
 89.770    558.000    584.917    -26.917    500.394    583.244    500.394    502.129    500.394
 89.870    624.049    578.713     45.336    500.261    576.986    500.261    502.047    500.261
 89.970    522.460    571.326    -48.866    500.127    569.539    500.127    501.967    500.127
 90.070    545.000    563.365    -18.365    499.992    561.513    499.992    501.890    499.992
 90.170    556.000    555.378      0.622    499.855    553.457    499.855    501.815    499.855
 90.270    563.000    547.812     15.188    499.717    545.816    499.717    501.745    499.717
 90.370    509.000    540.989    -31.989    499.578    538.914    499.578    501.678    499.578
 90.470    534.075    535.108     -1.033    499.437    532.948    499.437    501.617    499.437
 90.570    521.875    530.255     -8.379    499.295    528.003    499.295    501.561    499.295
 90.670    546.524    526.419     20.105    499.151    524.069    499.151    501.512    499.151
 90.770    508.459    523.526    -15.067    499.006    521.067    499.006    501.472    499.006
 90.870    490.527    521.450    -30.923    498.860    518.872    498.860    501.443    498.860
 90.970    492.000    520.038    -28.038    498.712    517.326    498.712    501.427    498.712
 91.070    473.000    519.256    -46.256    498.563    516.391    498.563    501.430    498.563
 91.170    480.000    518.965    -38.965    498.413    515.924    498.413    501.455    498.413
 91.270    524.000    519.110      4.890    498.262    515.859    498.262    501.512    498.262
 91.370    495.000    519.672    -24.672    498.109    516.170    498.109    501.610    498.109
 91.470    538.674    520.678     17.996    497.955    516.868    497.955    501.762    497.955
 91.570    485.000    522.203    -37.203    497.799    518.011    497.799    501.988    497.799
 91.670    517.000    524.372     -7.372    497.643    519.702    497.643    502.307    497.643
 91.770    530.672    527.355      3.317    497.485    522.084    497.485    502.748    497.485
 91.870    519.589    531.366    -11.776    497.325    525.340    497.325    503.341    497.325
 91.970    522.423    536.653    -14.230    497.165    529.681    497.165    504.124    497.165
 92.070    534.000    543.480     -9.480    497.003    535.333    497.003    505.135    497.003
 92.170    558.000    552.112      5.888    496.840    542.517    496.840    506.413    496.840
 92.270    560.000    562.777     -2.777    496.676    551.429    496.676    507.998    496.676
 92.370    565.334    575.646    -10.312    496.510    562.203    496.510    509.921    496.510
 92.470    588.000    590.793     -2.793    496.343    574.893    496.343    512.205    496.343
 92.570    601.036    608.167     -7.132    496.175    589.442    496.175    514.855    496.175
 92.670    629.000    627.563      1.437    496.006    605.656    496.006    517.860    496.006
 92.770    655.794    648.631      7.163    495.836    623.223    495.836    521.183    495.836
 92.870    702.505    670.832     31.673    495.664    641.670    495.664    524.758    495.664
 92.970    727.088    693.473     33.615    495.491    660.403    495.491    528.487    495.491
 93.070    732.000    715.748     16.252    495.317    678.751    495.317    532.237    495.317
 93.170    742.000    736.828      5.172    495.142    696.054    495.142    535.835    495.142
 93.270    764.000    755.990      8.010    494.966    711.798    494.966    539.074    494.966
 93.370    804.000    772.746     31.254    494.788    725.727    494.788    541.724    494.788
 93.470    817.077    786.911     30.166    494.609    737.882    494.609    543.555    494.609
 93.570    783.000    798.573    -15.573    494.429    748.539    494.429    544.383    494.429
 93.670    822.000    808.022     13.978    494.248    758.085    494.248    544.106    494.248
 93.770    858.000    815.665     42.335    494.066    766.916    494.066    542.738    494.066
 93.870    844.000    821.992     22.008    493.883    775.402    493.883    540.398    493.883
 93.970    840.000    827.584     12.416    493.699    783.918    493.699    537.292    493.699
 94.070    829.000    833.092     -4.092    493.513    792.888    493.513    533.649    493.513
 94.170    869.777    839.191     30.587    493.327    802.756    493.327    529.694    493.327
 94.270    893.000    846.419     46.581    493.139    813.864    493.139    525.630    493.139
 94.370    848.000    854.996     -6.996    492.950    826.267    492.950    521.618    492.950
 94.470    904.000    864.678     39.322    492.761    839.596    492.761    517.785    492.761
 94.570    867.440    874.711     -7.271    492.570    853.006    492.570    514.223    492.570
 94.670    823.116    883.880    -60.764    492.378    865.222    492.378    510.989    492.378
 94.770    890.000    890.640     -0.640    492.185    874.669    492.185    508.116    492.185
 94.870    917.000    893.344     23.656    491.991    879.691    491.991    505.612    491.991
 94.970    903.369    890.541     12.828    491.796    878.850    491.796    503.465    491.796
 95.070    860.000    881.317    -21.317    491.600    871.252    491.600    501.652    491.600
 95.170    894.000    865.534     28.466    491.403    856.794    491.403    500.139    491.403
 95.270    916.000    843.926     72.074    491.205    836.247    491.205    498.888    491.205
 95.370    880.000    817.861     62.139    491.007    811.019    491.007    497.858    491.007
 95.470    745.881    789.135    -43.253    490.807    782.943    490.807    497.011    490.807
 95.570    789.000    759.719     29.281    490.606    754.027    490.606    496.312    490.606
 95.670    785.840    731.574     54.266    490.404    726.260    490.404    495.732    490.404
 95.770    691.000    706.539    -15.539    490.202    701.509    490.202    495.243    490.202
 95.870    764.000    686.267     77.733    489.998    681.446    489.998    494.826    489.998
 95.970    681.000    672.195      8.805    489.794    667.526    489.794    494.464    489.794
 96.070    697.301    665.546     31.755    489.589    660.984    489.589    494.144    489.589
 96.170    690.000    667.341     22.659    489.382    662.851    489.382    493.858    489.382
 96.270    643.612    678.414    -34.802    489.175    673.967    489.175    493.599    489.175
 96.370    716.000    699.408     16.592    488.968    694.979    488.968    493.360    488.968
 96.470    757.000    730.749     26.251    488.759    726.320    488.759    493.140    488.759
 96.570    766.000    772.581     -6.581    488.549    768.134    488.549    492.936    488.549
 96.670    880.000    824.659     55.341    488.339    820.180    488.339    492.747    488.339
 96.770    939.854    886.248     53.606    488.128    881.723    488.128    492.570    488.128
 96.870    972.000    956.006     15.994    487.916    951.422    487.916    492.406    487.916
 96.970   1059.000   1031.907     27.093    487.704   1027.253    487.704    492.255    487.704
 97.070   1112.000   1111.199      0.801    487.490   1106.465    487.490    492.115    487.490
 97.170   1157.000   1190.427    -33.427    487.276   1185.604    487.276    491.989    487.276
 97.270   1306.000   1265.525     40.475    487.061   1260.604    487.061    491.875    487.061
 97.370   1336.000   1332.018      3.982    486.846   1326.990    486.846    491.775    486.846
 97.470   1475.000   1385.384     89.616    486.629   1380.238    486.629    491.689    486.629
 97.570   1332.000   1421.606    -89.606    486.412   1416.332    486.412    491.617    486.412
 97.670   1424.000   1437.854    -13.854    486.195   1432.438    486.195    491.563    486.195
 97.770   1525.000   1433.056     91.944    485.977   1427.481    485.977    491.526    485.977
 97.870   1392.000   1408.097    -16.097    485.758   1402.341    485.758    491.508    485.758
 97.970   1359.000   1365.547     -6.547    485.538   1359.585    485.538    491.513    485.538
 98.070   1329.756   1309.103     20.653    485.318   1302.906    485.318    491.544    485.318
 98.170   1198.000   1242.994    -44.994    485.098   1236.527    485.098    491.605    485.098
 98.270   1175.989   1171.530      4.460    484.876   1164.752    484.876    491.702    484.876
 98.370   1149.000   1098.790     50.210    484.655   1091.652    484.655    491.844    484.655
 98.470   1008.000   1028.438    -20.438    484.432   1020.880    484.432    492.041    484.432
 98.570    963.002    963.610     -0.608    484.209    955.558    484.209    492.309    484.209
 98.670    919.739    906.886     12.853    483.986    898.246    483.986    492.666    483.986
 98.770    843.256    860.305    -17.048    483.762    850.958    483.762    493.141    483.762
 98.870    872.417    825.411     47.006    483.538    815.205    483.538    493.767    483.538
 98.970    805.000    803.395      1.605    483.313    792.134    483.313    494.587    483.313
 99.070    793.000    795.066     -2.066    483.088    782.501    483.088    495.657    483.088
 99.170    781.000    800.996    -19.996    482.862    786.810    482.862    497.043    482.862
 99.270    772.637    821.549    -48.912    482.636    805.346    482.636    498.825    482.636
 99.370    826.504    856.891    -30.387    482.410    838.184    482.410    501.096    482.410
 99.470    843.000    906.963    -63.963    482.183    885.160    482.183    503.959    482.183
 99.570    965.585    971.416     -5.831    481.956    945.814    481.956    507.528    481.956
 99.670   1110.918   1049.520     61.398    481.729   1019.301    481.729    511.916    481.729
 99.770   1150.910   1140.071     10.838    481.501   1104.305    481.501    517.239    481.501
 99.870   1200.000   1241.297    -41.297    481.273   1198.950    481.273    523.597    481.273
 99.970   1379.000   1350.779     28.221    481.044   1300.740    481.044    531.071    481.044
100.070   1525.557   1465.425     60.132    480.816   1406.532    480.816    539.710    480.816
100.170   1507.672   1581.500    -73.828    480.587   1512.587    480.587    549.519    480.587
100.270   1648.908   1694.778    -45.870    480.358   1614.728    480.358    560.448    480.358
100.370   1873.000   1800.834     72.166    480.129   1708.644    480.129    572.383    480.129
100.470   1863.000   1895.444    -32.444    479.899   1790.297    479.899    585.136    479.899
100.570   2111.000   1974.973    136.027    479.670   1856.318    479.670    598.438    479.670
100.670   2062.000   2036.584     25.416    479.440   1904.227    479.440    611.935    479.440
100.770   2206.000   2078.223    127.777    479.210   1932.411    479.210    625.180    479.210
100.870   2185.000   2098.486     86.514    478.980   1940.001    478.980    637.641    478.980
100.970   2175.447   2096.587     78.860    478.750   1926.812    478.750    648.715    478.750
101.070   2053.000   2072.537    -19.537    478.520   1893.495    478.520    657.762    478.520
101.170   1965.384   2027.463    -62.079    478.290   1841.783    478.290    664.175    478.290
101.270   1983.000   1963.841     19.159    478.060   1774.641    478.060    667.465    478.060
101.370   1933.900   1885.443     48.457    477.830   1696.122    477.830    667.351    477.830
101.470   1820.000   1796.960     23.040    477.600   1610.926    477.600    663.826    477.600
101.570   1678.000   1703.435    -25.435    477.370   1523.833    477.370    657.153    477.370
101.670   1601.000   1609.702     -8.702    477.140   1439.198    477.140    647.811    477.140
101.770   1445.000   1519.945    -74.945    476.910   1360.603    476.910    636.403    476.910
101.870   1389.062   1437.428    -48.366    476.680   1290.674    476.680    623.570    476.680
101.970   1392.336   1364.359     27.978    476.450   1231.013    476.450    609.917    476.450
102.070   1276.000   1301.864    -25.864    476.221   1182.209    476.221    595.983    476.221
102.170   1227.000   1250.040    -23.040    475.992   1143.908    475.992    582.219    475.992
102.270   1189.927   1208.055    -18.127    475.763   1114.918    475.763    568.985    475.763
102.370   1143.000   1174.304    -31.304    475.534   1093.360    475.534    556.556    475.534
102.470   1123.000   1146.603    -23.603    475.305   1076.858    475.305    545.124    475.305
102.570   1134.000   1122.441     11.559    475.077   1062.781    475.077    534.808    475.077
102.670   1133.000   1099.279     33.721    474.849   1048.538    474.849    525.661    474.849
102.770   1036.957   1074.882    -37.925    474.621   1031.894    474.621    517.681    474.621
102.870   1009.000   1047.611    -38.611    474.394   1011.257    474.394    510.822    474.394
102.970   1008.053   1016.597     -8.544    474.167    985.835    474.167    505.004    474.167
103.070    925.000    981.742    -56.742    473.940    955.630    473.940    500.127    473.940
103.170    919.214    943.569    -24.356    473.714    921.279    473.714    496.079    473.714
103.270    910.000    903.013      6.987    473.488    883.831    473.488    492.743    473.488
103.370    849.000    861.209    -12.209    473.263    844.534    473.263    490.008    473.263
103.470    773.000    819.335    -46.335    473.038    804.671    473.038    487.768    473.038
103.570    747.226    778.499    -31.273    472.814    765.443    472.814    485.930    472.814
103.670    688.334    739.673    -51.339    472.590    727.904    472.590    484.413    472.590
103.770    714.000    703.636     10.364    472.367    692.900    472.367    483.151    472.367
103.870    702.000    670.948     31.052    472.144    661.047    472.144    482.087    472.144
103.970    656.000    641.945     14.055    471.923    632.726    471.923    481.177    471.923
104.070    646.000    616.770     29.230    471.701    608.114    471.701    480.387    471.701
104.170    627.418    595.361     32.057    471.481    587.177    471.481    479.689    471.481
104.270    616.438    577.517     38.921    471.261    569.734    471.261    479.063    471.261
104.370    552.000    562.930    -10.930    471.042    555.492    471.042    478.495    471.042
104.470    564.000    551.231     12.769    470.823    544.094    470.823    477.972    470.823
104.570    507.031    542.026    -34.995    470.605    535.154    470.605    477.486    470.605
104.670    484.691    534.927    -50.236    470.389    528.290    470.389    477.032    470.389
104.770    534.000    529.576      4.424    470.173    523.148    470.173    476.604    470.173
104.870    546.727    525.660     21.067    469.958    519.420    469.958    476.199    469.958
104.970    542.000    522.921     19.079    469.743    516.849    469.743    475.815    469.743
105.070    519.000    521.155     -2.155    469.530    515.236    469.530    475.448    469.530
105.170    529.440    520.218      9.221    469.318    514.435    469.318    475.098    469.318
105.270    470.906    520.017    -49.111    469.106    514.356    469.106    474.764    469.106
105.370    523.366    520.507      2.859    468.896    514.955    468.896    474.443    468.896
105.470    535.000    521.687     13.313    468.686    516.231    468.686    474.135    468.686
105.570    521.000    523.590     -2.590    468.478    518.220    468.478    473.839    468.478
105.670    557.000    526.282     30.718    468.271    520.988    468.271    473.554    468.271
105.770    541.000    529.851     11.149    468.065    524.622    468.065    473.280    468.065
105.870    555.266    534.397     20.869    467.860    529.225    467.860    473.017    467.860
105.970    573.000    540.019     32.981    467.656    534.894    467.656    472.763    467.656
106.070    579.000    546.800     32.200    467.454    541.714    467.454    472.518    467.454
106.170    522.306    554.790    -32.484    467.252    549.735    467.252    472.283    467.252
106.270    552.204    563.994    -11.790    467.052    558.965    467.052    472.054    467.052
106.370    596.000    574.358     21.642    466.853    569.350    466.853    471.830    466.853
106.470    615.367    585.771     29.596    466.656    580.773    466.656    471.619    466.656
106.570    598.000    598.038     -0.038    466.460    593.043    466.460    471.417    466.460
106.670    647.949    610.897     37.052    466.265    605.898    466.265    471.222    466.265
106.770    614.000    624.018    -10.018    466.072    619.010    466.072    471.035    466.072
106.870    683.572    637.014     46.558    465.881    631.992    465.881    470.856    465.881
106.970    643.669    649.458     -5.790    465.690    644.416    465.690    470.684    465.690
107.070    634.175    660.903    -26.728    465.502    655.836    465.502    470.519    465.502
107.170    709.735    670.917     38.817    465.314    665.820    465.314    470.362    465.314
107.270    644.000    679.127    -35.127    465.129    673.998    465.129    470.210    465.129
107.370    728.000    685.271     42.729    464.945    680.112    464.945    470.058    464.945
107.470    681.264    689.269     -8.005    464.763    684.066    464.763    469.922    464.763
107.570    655.661    691.203    -35.543    464.582    685.950    464.582    469.796    464.582
107.670    692.000    691.342      0.658    464.403    686.033    464.403    469.677    464.403
107.770    666.745    690.092    -23.348    464.226    684.722    464.226    469.567    464.226
107.870    673.000    687.936    -14.936    464.051    682.498    464.051    469.464    464.051
107.970    660.127    685.366    -25.239    463.877    679.853    463.877    469.370    463.877
108.070    668.000    682.829    -14.829    463.705    677.234    463.705    469.284    463.705
108.170    631.000    680.688    -49.688    463.536    675.005    463.536    469.207    463.536
108.270    666.000    679.193    -13.193    463.368    673.414    463.368    469.139    463.368
108.370    696.000    678.465     17.535    463.202    672.583    463.202    469.080    463.202
108.470    701.796    678.493     23.302    463.038    672.500    463.038    469.031    463.038
108.570    664.000    679.133    -15.133    462.876    673.020    462.876    468.992    462.876
108.670    637.000    680.118    -43.118    462.717    673.878    462.717    468.963    462.717
108.770    673.000    681.086     -8.086    462.559    674.710    462.559    468.945    462.559
108.870    702.000    681.608     20.392    462.403    675.086    462.403    468.938    462.403
108.970    689.000    681.237      7.763    462.250    674.558    462.250    468.944    462.250
109.070    733.512    679.563     53.949    462.099    672.719    462.099    468.961    462.099
109.170    674.000    676.277     -2.277    461.950    669.255    461.950    468.991    461.950
109.270    711.860    671.210     40.651    461.803    663.998    461.803    469.036    461.803
109.370    683.000    664.353     18.647    461.659    656.940    461.659    469.094    461.659
109.470    681.000    655.825     25.175    461.517    648.197    461.517    469.168    461.517
109.570    592.928    645.944    -53.015    461.378    638.086    461.378    469.257    461.378
109.670    628.000    635.041     -7.041    461.241    626.939    461.241    469.364    461.241
109.770    672.138    623.474     48.664    461.106    615.112    461.106    469.489    461.106
109.870    566.000    611.614    -45.614    460.974    602.974    460.974    469.633    460.974
109.970    564.740    599.809    -35.069    460.844    590.873    460.844    469.799    460.844
110.070    617.000    588.373     28.627    460.717    579.120    460.717    469.986    460.717
110.170    578.000    577.570      0.430    460.593    567.979    460.593    470.198    460.593
110.270    604.000    567.613     36.387    460.471    557.659    460.471    470.437    460.471
110.370    564.000    558.657      5.343    460.352    548.315    460.352    470.705    460.352
110.470    586.000    550.805     35.195    460.236    540.043    460.236    471.006    460.236
110.570    581.000    544.105     36.895    460.123    532.891    460.123    471.343    460.123
110.670    538.000    538.562     -0.562    460.012    526.857    460.012    471.722    460.012
110.770    530.000    534.144     -4.144    459.904    521.903    459.904    472.149    459.904
110.870    517.000    530.791    -13.791    459.800    517.960    459.800    472.631    459.800
110.970    500.304    528.423    -28.119    459.698    514.940    459.698    473.180    459.698
111.070    511.000    526.952    -15.952    459.599    512.742    459.599    473.808    459.599
111.170    511.000    526.288    -15.288    459.503    511.259    459.503    474.530    459.503
111.270    531.000    526.345      4.655    459.410    510.386    459.410    475.366    459.410
111.370    564.909    527.048     37.861    459.320    510.022    459.320    476.342    459.320
111.470    535.000    528.335      6.665    459.234    510.075    459.234    477.488    459.234
111.570    559.000    530.162     28.838    459.151    510.465    459.151    478.842    459.151
111.670    517.000    532.505    -15.505    459.071    511.119    459.071    480.451    459.071
111.770    528.000    535.359     -7.359    458.994    511.978    458.994    482.367    458.994
111.870    510.000    538.740    -28.740    458.920    512.996    458.920    484.657    458.920
111.970    562.932    542.689     20.243    458.850    514.136    458.850    487.395    458.850
112.070    524.920    547.267    -22.346    458.783    515.373    458.783    490.669    458.783
112.170    579.000    552.557     26.443    458.720    516.694    458.720    494.575    458.720
112.270    539.000    558.667    -19.667    458.660    518.097    458.660    499.221    458.660
112.370    595.000    565.720     29.280    458.604    519.591    458.604    504.723    458.604
112.470    533.508    573.857    -40.349    458.552    521.193    458.552    511.206    458.552
112.570    546.000    583.230    -37.230    458.503    522.928    458.503    518.796    458.503
112.670    642.978    594.001     48.977    458.457    524.830    458.457    527.618    458.457
112.770    566.755    606.331    -39.576    458.416    526.942    458.416    537.794    458.416
112.870    641.000    620.383     20.617    458.378    529.318    458.378    549.432    458.378
112.970    613.000    636.316    -23.316    458.344    532.027    458.344    562.622    458.344
113.070    701.831    654.280     47.551    458.313    535.155    458.313    577.427    458.313
113.170    717.000    674.422     42.578    458.287    538.817    458.287    593.879    458.287
113.270    669.000    696.879    -27.879    458.265    543.164    458.265    611.966    458.265
113.370    756.000    721.793     34.207    458.246    548.394    458.246    631.630    458.246
113.470    721.000    749.311    -28.311    458.232    554.769    458.232    652.756    458.232
113.570    777.397    779.604     -2.207    458.222    562.634    458.222    675.172    458.222
113.670    863.000    812.879     50.121    458.216    572.436    458.216    698.636    458.216
113.770    822.999    849.406    -26.407    458.214    584.753    458.214    722.839    458.214
113.870    902.000    889.539     12.461    458.216    600.322    458.216    747.400    458.216
113.970    965.000    933.743     31.257    458.223    620.065    458.223    771.862    458.223
114.070    966.795    982.630    -15.834    458.234    645.122    458.234    795.694    458.234
114.170   1067.434   1036.984     30.450    458.249    676.877    458.249    818.298    458.249
114.270   1106.000   1097.801      8.199    458.269    716.978    458.269    839.020    458.269
114.370   1142.000   1166.318    -24.318    458.293    767.350    458.293    857.173    458.293
114.470   1182.000   1244.053    -62.053    458.322    830.192    458.322    872.075    458.322
114.570   1363.000   1332.836     30.164    458.355    907.956    458.355    883.104    458.355
114.670   1408.875   1434.823    -25.948    458.393   1003.299    458.393    889.757    458.393
114.770   1565.000   1552.487     12.513    458.435   1119.017    458.435    891.715    458.435
114.870   1697.339   1688.560      8.779    458.482   1257.935    458.482    888.880    458.482
114.970   1911.000   1845.909     65.091    458.534   1422.778    458.534    881.397    458.534
115.070   2103.000   2027.355     75.645    458.591   1616.008    458.591    869.626    458.591
115.170   2305.000   2235.438     69.562    458.653   1839.632    458.653    854.099    458.653
115.270   2608.000   2472.148    135.852    458.720   2095.004    458.720    835.454    458.720
115.370   2862.000   2738.655    123.345    458.791   2382.607    458.791    814.380    458.791
115.470   2954.000   3035.056    -81.056    458.868   2701.858    458.868    791.559    458.868
115.570   3411.000   3360.158     50.842    458.949   3050.920    458.949    767.637    458.949
115.670   3636.444   3711.321    -74.877    459.036   3426.569    459.036    743.199    459.036
115.770   3990.000   4084.350    -94.350    459.128   3824.096    459.128    718.761    459.128
115.870   4289.000   4473.467   -184.467    459.225   4237.287    459.225    694.765    459.225
115.970   4672.000   4871.354   -199.354    459.328   4658.457    459.328    671.577    459.328
116.070   5178.000   5269.270    -91.270    459.435   5078.572    459.435    649.493    459.435
116.170   5682.258   5657.248     25.010    459.549   5487.440    459.549    628.739    459.549
116.270   5975.000   6024.378    -49.378    459.667   5873.989    459.667    609.478    459.667
116.370   6486.824   6359.180    127.644    459.791   6226.640    459.791    591.811    459.791
116.470   6690.000   6650.100     39.900    459.921   6533.788    459.921    575.788    459.921
116.570   6812.000   6886.162    -74.162    460.056   6784.454    460.056    561.409    460.056
116.670   7135.000   7057.722     77.278    460.197   6969.029    460.197    548.638    460.197
116.770   7107.030   7157.226    -50.196    460.344   7080.025    460.344    537.404    460.344
116.870   7319.000   7180.014    138.986    460.496   7112.871    460.496    527.614    460.496
116.970   7194.000   7124.822     69.178    460.654   7066.408    460.654    519.155    460.654
117.070   6962.000   6993.914    -31.914    460.819   6943.019    460.819    511.907    460.819
117.170   6852.000   6792.805     59.195    460.989   6748.339    460.989    505.742    460.989
117.270   6548.000   6529.644     18.356    461.165   6490.642    461.165    500.535    461.165
117.370   6257.725   6214.433     43.292    461.347   6180.050    461.347    496.162    461.347
117.470   5806.000   5858.224    -52.224    461.535   5827.728    461.535    492.510    461.535
117.570   5299.000   5472.417   -173.417    461.729   5445.183    461.729    489.472    461.729
117.670   4990.000   5068.192    -78.192    461.930   5043.690    461.930    486.954    461.930
117.770   4589.000   4656.064    -67.064    462.136   4633.850    462.136    484.871    462.136
117.870   4302.000   4245.556     56.444    462.349   4225.261    462.349    483.150    462.349
117.970   3729.429   3844.955   -115.526    462.569   3826.275    462.569    481.729    462.569
118.070   3649.000   3461.161    187.839    462.795   3443.846    462.795    480.556    462.795
118.170   3216.000   3099.609    116.391    463.027   3083.457    463.027    479.585    463.027
118.270   2831.403   2764.270     67.132    463.266   2749.118    463.266    478.781    463.266
118.370   2555.904   2457.724     98.179    463.512   2443.438    463.512    478.115    463.512
118.470   2198.000   2181.280     16.720    463.764   2167.753    463.764    477.563    463.764
118.570   1990.227   1935.142     55.084    464.023   1922.288    464.023    477.106    464.023
118.670   1703.000   1718.596    -15.596    464.289   1706.344    464.289    476.728    464.289
118.770   1497.000   1530.202    -33.202    464.562   1518.496    464.562    476.418    464.562
118.870   1273.000   1367.992    -94.992    464.841   1356.784    464.841    476.167    464.841
118.970   1181.367   1229.642    -48.275    465.128   1218.893    465.128    475.967    465.128
119.070   1158.396   1112.642     45.754    465.422   1102.318    465.422    475.812    465.422
119.170    986.493   1014.427    -27.934    465.722   1004.499    465.722    475.698    465.722
119.270    877.000    932.498    -55.498    466.030    922.940    466.030    475.622    466.030
119.370    863.207    864.498     -1.290    466.345    855.285    466.345    475.579    466.345
119.470    827.560    808.272     19.287    466.668    799.384    466.668    475.569    466.668
119.570    704.250    761.902    -57.652    466.997    753.318    466.997    475.589    466.997
119.670    711.000    723.714    -12.714    467.334    715.414    467.334    475.638    467.334
119.770    692.000    692.280     -0.280    467.679    684.244    467.679    475.715    467.679
119.870    658.900    666.397     -7.498    468.031    658.609    468.031    475.819    468.031
119.970    602.000    645.074    -43.074    468.391    637.513    468.391    475.951    468.391
120.070    590.000    627.496    -37.496    468.758    620.145    468.758    476.108    468.758
120.170    579.000    613.008    -34.008    469.133    605.849    469.133    476.293    469.133
120.270    598.000    601.084     -3.084    469.516    594.098    469.516    476.504    469.516
120.370    574.000    591.307    -17.307    469.907    584.473    469.907    476.742    469.907
120.470    610.420    583.344     27.076    470.306    576.644    470.306    477.007    470.306
120.570    572.746    576.937     -4.191    470.712    570.351    470.712    477.301    470.712
120.670    599.000    571.881     27.119    471.127    565.387    471.127    477.624    471.127
120.770    547.342    568.017    -20.675    471.550    561.594    471.550    477.977    471.550
120.870    554.000    565.220    -11.220    471.981    558.844    471.981    478.361    471.981
120.970    524.311    563.391    -39.079    472.420    557.039    472.420    478.778    472.420
121.070    528.055    562.452    -34.397    472.868    556.100    472.868    479.227    472.868
121.170    544.712    562.341    -17.630    473.324    555.963    473.324    479.710    473.324
121.270    524.591    563.003    -38.412    473.788    556.572    473.788    480.228    473.788
121.370    522.000    564.390    -42.390    474.261    557.880    474.261    480.781    474.261
121.470    579.000    566.456     12.544    474.742    559.839    474.742    481.371    474.742
121.570    555.000    569.153    -14.153    475.232    562.401    475.232    481.997    475.232
121.670    559.213    572.430    -13.218    475.731    565.517    475.731    482.659    475.731
121.770    611.363    576.229     35.133    476.239    569.128    476.239    483.357    476.239
121.870    557.000    580.484    -23.484    476.755    573.170    476.755    484.089    476.755
121.970    557.000    585.120    -28.120    477.280    577.568    477.280    484.854    477.280
122.070    592.000    590.052      1.948    477.815    582.241    477.815    485.650    477.815
122.170    604.000    595.186      8.814    478.358    587.097    478.358    486.474    478.358
122.270    618.424    600.417     18.008    478.910    592.034    478.910    487.323    478.910
122.370    594.086    605.633    -11.547    479.472    596.946    479.472    488.192    479.472
122.470    626.000    610.715     15.285    480.043    601.716    480.043    489.078    480.043
122.570    595.000    615.540    -20.540    480.623    606.227    480.623    489.974    480.623
122.670    598.505    619.984    -21.478    481.213    610.363    481.213    490.875    481.213
122.770    619.000    623.927     -4.927    481.812    614.009    481.812    491.774    481.812
122.870    625.000    627.260     -2.260    482.421    617.063    482.421    492.664    482.421
122.970    635.000    629.887      5.113    483.039    619.437    483.039    493.537    483.039
123.070    589.347    631.737    -42.390    483.667    621.068    483.667    494.385    483.667
123.170    608.000    632.761    -24.761    484.305    621.915    484.305    495.200    484.305
123.270    675.000    632.942     42.058    484.952    621.969    484.952    495.976    484.952
123.370    652.000    632.291     19.709    485.610    621.244    485.610    496.706    485.610
123.470    616.000    630.841    -14.841    486.277    619.783    486.277    497.385    486.277
123.570    596.281    628.654    -32.373    486.955    617.645    486.955    498.012    486.955
123.670    599.706    625.803    -26.097    487.642    614.906    487.642    498.587    487.642
123.770    631.127    622.375      8.752    488.340    611.648    488.340    499.111    488.340
123.870    587.264    618.460    -31.196    489.048    607.962    489.048    499.588    489.048
123.970    582.680    614.156    -31.476    489.767    603.938    489.767    500.024    489.767
124.070    629.000    609.558     19.442    490.496    599.664    490.496    500.426    490.496
124.170    620.000    604.758     15.242    491.235    595.226    491.235    500.801    491.235
124.270    606.000    599.843      6.157    491.985    590.702    491.985    501.156    491.985
124.370    617.000    594.892     22.108    492.746    586.164    492.746    501.501    492.746
124.470    598.000    589.974      8.026    493.517    581.674    493.517    501.841    493.517
124.570    616.000    585.149     30.851    494.299    577.285    494.299    502.184    494.299
124.670    584.000    580.465      3.535    495.092    573.039    495.092    502.535    495.092
124.770    639.000    575.957     63.043    495.896    568.967    495.896    502.901    495.896
124.870    551.205    571.662    -20.457    496.711    565.099    496.711    503.287    496.711
124.970    591.000    567.598     23.402    497.537    561.451    497.537    503.695    497.537
