neutron_powder_diffraction_0104
R_wp: 3.888
Temperature (K): 909.435
Counts: 83604.00
Wavelength (Ã…): 2.52098
COMMENTS
Test file for demonstrating the .xyy file format in Reel1.0
END OF HEADER
   tth       Y_obs     Y_calc      Y_res    Background    Phase_1_Nuc    Phase_1_Mag    Phase_2_Nuc    Phase_2_Mag
  9.970    583.000    550.487     32.513    549.315    550.336    549.315    549.466    549.315
 10.070    597.898    551.034     46.864    549.774    550.882    549.774    549.926    549.774
 10.170    544.000    551.583     -7.583    550.223    551.430    550.223    550.375    550.223
 10.270    560.518    552.136      8.382    550.662    551.983    550.662    550.815    550.662
 10.370    510.036    552.698    -42.662    551.090    552.543    551.090    551.244    551.090
 10.470    628.000    553.272     74.728    551.509    553.117    551.509    551.663    551.509
 10.570    542.000    553.867    -11.867    551.918    553.711    551.918    552.072    551.918
 10.670    512.393    554.484    -42.091    552.316    554.328    552.316    552.472    552.316
 10.770    548.000    555.133     -7.133    552.706    554.976    552.706    552.861    552.706
 10.870    540.940    555.829    -14.889    553.085    555.671    553.085    553.241    553.085
 10.970    561.000    556.587      4.413    553.455    556.429    553.455    553.612    553.455
 11.070    584.000    557.433     26.567    553.815    557.274    553.815    553.973    553.815
 11.170    626.000    558.402     67.598    554.166    558.241    554.166    554.324    554.166
 11.270    589.000    559.547     29.453    554.507    559.385    554.507    554.666    554.507
 11.370    599.000    560.967     38.033    554.839    560.804    554.839    554.999    554.839
 11.470    561.000    562.869     -1.869    555.162    562.704    555.162    555.322    555.162
 11.570    587.000    565.735     21.265    555.476    565.568    555.476    555.637    555.476
 11.670    552.827    570.632    -17.806    555.780    570.462    555.780    555.942    555.780
 11.770    622.000    579.521     42.479    556.076    579.346    556.076    556.239    556.076
 11.870    591.329    595.053     -3.724    556.363    594.868    556.363    556.526    556.363
 11.970    625.000    619.101      5.899    556.640    618.902    556.640    556.805    556.640
 12.070    646.000    649.725     -3.725    556.910    649.507    556.910    557.075    556.910
 12.170    682.000    677.484      4.516    557.170    677.249    557.170    557.336    557.170
 12.270    706.344    686.612     19.732    557.422    686.372    557.422    557.588    557.422
 12.370    654.000    669.924    -15.924    557.665    669.693    557.665    557.832    557.665
 12.470    613.423    639.692    -26.269    557.900    639.477    557.900    558.068    557.900
 12.570    576.923    611.053    -34.130    558.127    610.855    558.127    558.295    558.127
 12.670    600.000    590.525      9.475    558.345    590.337    558.345    558.514    558.345
 12.770    544.000    578.188    -34.188    558.555    578.006    558.555    558.725    558.555
 12.870    551.000    571.564    -20.564    558.757    571.386    558.757    558.928    558.757
 12.970    552.000    568.120    -16.120    558.950    567.943    558.950    559.122    558.950
 13.070    539.000    566.216    -27.216    559.136    566.040    559.136    559.309    559.136
 13.170    535.000    565.042    -30.042    559.314    564.866    559.314    559.487    559.314
 13.270    603.000    564.250     38.750    559.484    564.074    559.484    559.658    559.484
 13.370    538.000    563.690    -25.690    559.646    563.513    559.646    559.821    559.646
 13.470    544.000    563.284    -19.284    559.800    563.107    559.800    559.976    559.800
 13.570    571.000    562.988      8.012    559.947    562.810    559.947    560.124    559.947
 13.670    556.992    562.772     -5.780    560.086    562.593    560.086    560.264    560.086
 13.770    591.742    562.615     29.128    560.218    562.435    560.218    560.396    560.218
 13.870    577.000    562.502     14.498    560.342    562.321    560.342    560.521    560.342
 13.970    558.000    562.420     -4.420    560.459    562.239    560.459    560.639    560.459
 14.070    538.823    562.362    -23.539    560.568    562.180    560.568    560.749    560.568
 14.170    587.000    562.322     24.678    560.670    562.139    560.670    560.852    560.670
 14.270    547.000    562.296    -15.296    560.766    562.112    560.766    560.948    560.766
 14.370    556.709    562.279     -5.570    560.854    562.095    560.854    561.037    560.854
 14.470    544.326    562.270    -17.944    560.935    562.084    560.935    561.119    560.935
 14.570    546.000    562.265    -16.265    561.009    562.079    561.009    561.194    561.009
 14.670    599.584    562.263     37.320    561.076    562.076    561.076    561.262    561.076
 14.770    564.000    562.263      1.737    561.136    562.075    561.136    561.324    561.136
 14.870    562.000    562.263     -0.263    561.189    562.074    561.189    561.378    561.189
 14.970    583.085    562.262     20.822    561.236    562.073    561.236    561.426    561.236
 15.070    544.496    562.261    -17.765    561.277    562.070    561.277    561.467    561.277
 15.170    520.392    562.258    -41.866    561.310    562.066    561.310    561.502    561.310
 15.270    539.880    562.263    -22.383    561.337    562.070    561.337    561.530    561.337
 15.370    544.028    562.270    -18.243    561.358    562.077    561.358    561.552    561.358
 15.470    550.000    562.260    -12.260    561.373    562.065    561.373    561.567    561.373
 15.570    534.000    562.248    -28.248    561.381    562.052    561.381    561.576    561.381
 15.670    566.000    562.230      3.770    561.382    562.033    561.382    561.579    561.382
 15.770    540.000    562.207    -22.207    561.378    562.008    561.378    561.576    561.378
 15.870    545.000    562.179    -17.179    561.368    561.980    561.368    561.567    561.368
 15.970    564.000    562.147      1.853    561.351    561.947    561.351    561.552    561.351
 16.070    608.000    562.111     45.889    561.329    561.909    561.329    561.530    561.329
 16.170    543.000    562.070    -19.070    561.300    561.867    561.300    561.503    561.300
 16.270    575.000    562.026     12.974    561.266    561.822    561.266    561.470    561.266
 16.370    555.000    561.993     -6.993    561.226    561.787    561.226    561.431    561.226
 16.470    514.000    562.044    -48.044    561.181    561.837    561.181    561.387    561.181
 16.570    565.000    561.995      3.005    561.129    561.788    561.129    561.337    561.129
 16.670    533.000    561.932    -28.932    561.072    561.723    561.072    561.281    561.072
 16.770    546.000    561.864    -15.864    561.010    561.654    561.010    561.219    561.010
 16.870    533.000    561.791    -28.791    560.942    561.580    560.942    561.153    560.942
 16.970    551.000    561.714    -10.714    560.868    561.501    560.868    561.081    560.868
 17.070    567.000    561.631      5.369    560.789    561.418    560.789    561.003    560.789
 17.170    557.000    561.545     -4.545    560.705    561.330    560.705    560.920    560.705
 17.270    540.000    561.453    -21.453    560.616    561.237    560.616    560.832    560.616
 17.370    536.000    561.358    -25.358    560.521    561.140    560.521    560.739    560.521
 17.470    554.488    561.258     -6.769    560.422    561.038    560.422    560.641    560.422
 17.570    526.076    561.159    -35.082    560.317    560.938    560.317    560.538    560.317
 17.670    550.000    561.050    -11.050    560.207    560.828    560.207    560.429    560.207
 17.770    523.526    560.937    -37.411    560.093    560.713    560.093    560.316    560.093
 17.870    559.000    560.818     -1.818    559.973    560.593    559.973    560.198    559.973
 17.970    550.000    560.696    -10.696    559.849    560.469    559.849    560.075    559.849
 18.070    548.267    560.569    -12.302    559.720    560.341    559.720    559.948    559.720
 18.170    502.000    560.438    -58.438    559.586    560.208    559.586    559.815    559.586
 18.270    528.000    560.302    -32.302    559.447    560.071    559.447    559.678    559.447
 18.370    548.415    560.163    -11.748    559.304    559.930    559.304    559.537    559.304
 18.470    537.000    560.019    -23.019    559.156    559.785    559.156    559.391    559.156
 18.570    563.000    559.872      3.128    559.004    559.635    559.004    559.240    559.004
 18.670    599.955    559.720     40.236    558.847    559.482    558.847    559.085    558.847
 18.770    603.432    559.565     43.867    558.686    559.325    558.686    558.926    558.686
 18.870    562.339    559.407      2.932    558.521    559.166    558.521    558.763    558.521
 18.970    598.925    559.251     39.674    558.351    559.008    558.351    558.595    558.351
 19.070    525.000    559.134    -34.134    558.178    558.889    558.178    558.423    558.178
 19.170    537.058    558.988    -21.930    558.000    558.741    558.000    558.247    558.000
 19.270    505.000    558.816    -53.816    557.818    558.567    557.818    558.067    557.818
 19.370    529.000    558.638    -29.638    557.631    558.387    557.631    557.882    557.631
 19.470    568.000    558.457      9.543    557.441    558.204    557.441    557.694    557.441
 19.570    587.362    558.273     29.089    557.247    558.018    557.247    557.502    557.247
 19.670    548.000    558.085    -10.085    557.049    557.828    557.049    557.306    557.049
 19.770    577.829    557.894     19.935    556.847    557.635    556.847    557.107    556.847
 19.870    560.000    557.700      2.300    556.642    557.438    556.642    556.903    556.642
 19.970    545.000    557.505    -12.505    556.432    557.241    556.432    556.696    556.432
 20.070    525.000    557.317    -32.317    556.219    557.051    556.219    556.485    556.219
 20.170    598.283    557.128     41.156    556.002    556.859    556.002    556.271    556.002
 20.270    549.000    556.923     -7.923    555.782    556.652    555.782    556.053    555.782
 20.370    534.294    556.715    -22.421    555.558    556.442    555.558    555.831    555.558
 20.470    583.742    556.512     27.230    555.331    556.237    555.331    555.607    555.331
 20.570    555.000    556.305     -1.305    555.100    556.027    555.100    555.378    555.100
 20.670    513.000    556.125    -43.125    554.866    555.844    554.866    555.147    554.866
 20.770    506.000    555.933    -49.933    554.628    555.649    554.628    554.912    554.628
 20.870    546.000    555.714     -9.714    554.388    555.428    554.388    554.674    554.388
 20.970    544.000    555.492    -11.492    554.144    555.203    554.144    554.433    554.144
 21.070    554.297    555.267     -0.971    553.896    554.975    553.896    554.189    553.896
 21.170    528.000    555.041    -27.041    553.646    554.746    553.646    553.941    553.646
 21.270    526.000    554.813    -28.813    553.393    554.515    553.393    553.691    553.393
 21.370    518.000    554.584    -36.584    553.136    554.283    553.136    553.438    553.136
 21.470    548.790    554.353     -5.564    552.877    554.049    552.877    553.181    552.877
 21.570    582.000    554.122     27.878    552.614    553.814    552.614    552.922    552.614
 21.670    550.000    553.890     -3.890    552.349    553.579    552.349    552.660    552.349
 21.770    530.000    553.658    -23.658    552.081    553.343    552.081    552.396    552.081
 21.870    542.395    553.427    -11.032    551.810    553.108    551.810    552.128    551.810
 21.970    542.361    553.211    -10.849    551.536    552.888    551.536    551.858    551.536
 22.070    520.000    552.992    -32.992    551.259    552.666    551.259    551.586    551.259
 22.170    561.396    552.769      8.627    550.980    552.439    550.980    551.310    550.980
 22.270    532.832    552.562    -19.730    550.698    552.228    550.698    551.033    550.698
 22.370    508.000    552.362    -44.362    550.414    552.023    550.414    550.753    550.414
 22.470    563.135    552.189     10.945    550.127    551.847    550.127    550.470    550.127
 22.570    564.000    551.984     12.016    549.838    551.637    549.838    550.185    549.838
 22.670    565.862    551.788     14.074    549.546    551.436    549.546    549.898    549.546
 22.770    590.725    551.588     39.137    549.251    551.232    549.251    549.609    549.251
 22.870    544.000    551.426     -7.426    548.955    551.064    548.955    549.317    548.955
 22.970    540.000    551.257    -11.257    548.656    550.890    548.656    549.023    548.656
 23.070    577.000    551.094     25.906    548.355    550.722    548.355    548.727    548.355
 23.170    545.000    550.942     -5.942    548.051    550.564    548.051    548.430    548.051
 23.270    559.000    550.815      8.185    547.746    550.432    547.746    548.130    547.746
 23.370    570.000    550.723     19.277    547.438    550.334    547.438    547.828    547.438
 23.470    562.182    550.673     11.509    547.128    550.277    547.128    547.525    547.128
 23.570    532.904    550.662    -17.757    546.816    550.260    546.816    547.219    546.816
 23.670    545.000    550.712     -5.712    546.502    550.304    546.502    546.912    546.502
 23.770    568.000    550.851     17.149    546.186    550.435    546.186    546.603    546.186
 23.870    579.692    551.114     28.577    545.868    550.692    545.868    546.293    545.868
 23.970    556.000    551.569      4.431    545.548    551.140    545.548    545.981    545.548
 24.070    597.200    552.356     44.844    545.227    551.919    545.227    545.667    545.227
 24.170    592.144    553.790     38.354    544.903    553.346    544.903    545.352    544.903
 24.270    549.006    556.546     -7.540    544.578    556.094    544.578    545.036    544.578
 24.370    584.000    561.854     22.146    544.251    561.397    544.251    544.719    544.251
 24.470    584.000    571.351     12.649    543.923    570.892    543.923    544.400    543.923
 24.570    591.000    586.233      4.767    543.592    585.774    543.592    544.080    543.592
 24.670    611.096    605.530      5.566    543.260    605.074    543.260    543.759    543.260
 24.770    658.000    623.853     34.147    542.927    623.399    542.927    543.437    542.927
 24.870    595.889    631.179    -35.291    542.592    630.718    542.592    543.114    542.592
 24.970    622.945    621.631      1.314    542.255    621.151    542.255    542.790    542.255
 25.070    629.000    602.107     26.893    541.917    601.600    541.917    542.465    541.917
 25.170    555.128    582.535    -27.407    541.578    582.000    541.578    542.140    541.578
 25.270    543.000    567.730    -24.730    541.237    567.170    541.237    541.814    541.237
 25.370    603.000    558.276     44.724    540.895    557.693    540.895    541.488    540.895
 25.470    585.000    552.837     32.163    540.551    552.234    540.551    541.161    540.551
 25.570    567.000    549.785     17.215    540.207    549.162    540.207    540.835    540.207
 25.670    596.000    547.957     48.043    539.861    547.313    539.861    540.508    539.861
 25.770    572.587    546.725     25.861    539.514    546.061    539.514    540.181    539.514
 25.870    557.671    545.809     11.863    539.165    545.122    539.165    539.854    539.165
 25.970    567.000    545.085     21.915    538.816    544.374    538.816    539.528    538.816
 26.070    560.000    544.496     15.504    538.465    543.760    538.465    539.203    538.465
 26.170    564.000    544.011     19.989    538.114    543.248    538.114    538.878    538.114
 26.270    587.643    543.611     44.032    537.761    542.818    537.761    538.554    537.761
 26.370    563.000    543.284     19.716    537.407    542.461    537.407    538.232    537.407
 26.470    506.011    543.027    -37.016    537.053    542.169    537.053    537.911    537.053
 26.570    510.000    542.835    -32.835    536.697    541.941    536.697    537.592    536.697
 26.670    540.000    542.712     -2.712    536.341    541.779    536.341    537.275    536.341
 26.770    564.000    542.664     21.336    535.984    541.688    535.984    536.960    535.984
 26.870    547.000    542.702      4.298    535.625    541.679    535.625    536.649    535.625
 26.970    549.000    542.843      6.157    535.267    541.768    535.267    536.342    535.267
 27.070    589.000    543.110     45.890    534.907    541.978    534.907    536.038    534.907
 27.170    580.000    543.539     36.461    534.547    542.346    534.547    535.740    534.547
 27.270    542.000    544.183     -2.183    534.186    542.921    534.186    535.447    534.186
 27.370    561.000    545.120     15.880    533.824    543.783    533.824    535.161    533.824
 27.470    550.811    546.498      4.313    533.462    545.076    533.462    534.882    533.462
 27.570    559.000    548.678     10.322    533.099    547.163    533.099    534.612    533.099
 27.670    580.000    552.827     27.173    532.735    551.207    532.735    534.353    532.735
 27.770    618.000    562.546     55.454    532.371    560.805    532.371    534.105    532.371
 27.870    599.000    586.471     12.529    532.007    584.591    532.007    533.871    532.007
 27.970    638.000    638.304     -0.304    531.642    636.260    531.642    533.653    531.642
 28.070    715.000    727.187    -12.187    531.277    724.952    531.277    533.453    531.277
 28.170    829.000    837.955     -8.955    530.911    835.510    530.911    533.273    530.911
 28.270    956.939    919.813     37.126    530.545    917.156    530.545    533.116    530.545
 28.370    904.000    919.220    -15.220    530.178    916.351    530.178    532.985    530.178
 28.470    821.647    843.381    -21.733    529.812    840.276    529.812    532.883    529.812
 28.570    777.000    755.236     21.764    529.445    751.850    529.445    532.813    529.445
 28.670    722.000    710.110     11.890    529.077    706.396    529.077    532.777    529.077
 28.770    707.000    723.059    -16.059    528.710    718.974    528.710    532.777    528.710
 28.870    730.106    772.377    -42.271    528.342    767.888    528.342    532.811    528.342
 28.970    747.000    813.448    -66.448    527.974    808.532    527.974    532.878    527.974
 29.070    791.000    806.045    -15.045    527.606    800.682    527.606    532.971    527.606
 29.170    773.000    749.960     23.040    527.238    744.132    527.238    533.078    527.238
 29.270    667.000    678.047    -11.047    526.870    671.750    526.870    533.181    526.870
 29.370    607.000    618.942    -11.942    526.502    612.199    526.502    533.254    526.502
 29.470    585.766    581.742      4.024    526.133    574.613    526.133    533.267    526.133
 29.570    590.000    562.333     27.667    525.765    554.912    525.765    533.189    525.765
 29.670    524.712    553.123    -28.412    525.397    545.531    525.397    532.991    525.397
 29.770    605.000    548.525     56.475    525.029    540.900    525.029    532.655    525.029
 29.870    588.000    545.764     42.236    524.661    538.248    524.661    532.177    524.661
 29.970    510.273    543.781    -33.507    524.293    536.503    524.293    531.570    524.293
 30.070    586.000    542.239     43.761    523.925    535.304    523.925    530.859    523.925
 30.170    524.088    541.074    -16.986    523.557    534.555    523.557    530.075    523.557
 30.270    585.000    540.390     44.610    523.190    534.329    523.190    529.250    523.190
 30.370    522.216    540.552    -18.335    522.822    534.961    522.822    528.410    522.822
 30.470    561.832    542.388     19.444    522.455    537.260    522.455    527.578    522.455
 30.570    547.331    547.309      0.022    522.089    542.620    522.089    526.768    522.089
 30.670    590.498    556.888     33.610    521.722    552.604    521.722    525.988    521.722
 30.770    572.000    571.546      0.454    521.356    567.630    521.356    525.244    521.356
 30.870    630.000    588.588     41.412    520.990    585.004    520.990    524.535    520.990
 30.970    618.000    601.039     16.961    520.625    597.756    520.625    523.862    520.625
 31.070    620.000    601.118     18.882    520.260    598.112    520.260    523.223    520.260
 31.170    610.000    588.230     21.770    519.895    585.477    519.895    522.615    519.895
 31.270    583.411    569.788     13.623    519.531    567.263    519.531    522.034    519.531
 31.370    505.000    553.193    -48.193    519.167    550.868    519.167    521.479    519.167
 31.470    550.000    541.557      8.443    518.804    539.407    518.804    520.946    518.804
 31.570    540.093    534.668      5.424    518.441    532.672    518.441    520.433    518.441
 31.670    543.000    530.975     12.025    518.079    529.114    518.079    519.937    518.079
 31.770    512.409    529.003    -16.594    517.717    527.260    517.717    519.458    517.717
 31.870    522.586    527.848     -5.261    517.356    526.211    517.356    518.991    517.356
 31.970    542.000    527.089     14.911    516.995    525.546    516.995    518.537    516.995
 32.070    538.000    526.563     11.437    516.635    525.104    516.635    518.094    516.635
 32.170    483.345    526.208    -42.862    516.276    524.823    516.276    517.659    516.276
 32.270    558.545    526.002     32.544    515.917    524.685    515.917    517.234    515.917
 32.370    484.134    525.941    -41.806    515.560    524.684    515.560    516.815    515.560
 32.470    569.642    526.031     43.610    515.202    524.829    515.202    516.403    515.202
 32.570    581.000    526.289     54.711    514.846    525.137    514.846    515.998    514.846
 32.670    564.000    526.743     37.257    514.490    525.635    514.490    515.597    514.490
 32.770    565.699    527.435     38.264    514.135    526.367    514.135    515.202    514.135
 32.870    489.000    528.424    -39.424    513.781    527.394    513.781    514.811    513.781
 32.970    487.000    529.803    -42.803    513.428    528.806    513.428    514.424    513.428
 33.070    514.322    531.712    -17.390    513.075    530.745    513.075    514.040    513.075
 33.170    522.000    534.406    -12.406    512.723    533.467    512.723    513.661    512.723
 33.270    533.509    538.430     -4.921    512.372    537.516    512.372    513.284    512.372
 33.370    556.810    545.059     11.751    512.022    544.167    512.022    512.910    512.022
 33.470    517.255    557.170    -39.915    511.673    556.297    511.673    512.540    511.673
 33.570    566.000    580.320    -14.320    511.325    579.463    511.325    512.172    511.325
 33.670    606.425    622.932    -16.507    510.978    622.085    510.978    511.806    510.978
 33.770    686.000    693.552     -7.552    510.632    692.711    510.632    511.444    510.632
 33.870    748.136    793.894    -45.758    510.287    793.058    510.287    511.083    510.287
 33.970    886.000    908.972    -22.972    509.942    908.144    509.942    510.725    509.942
 34.070    979.000   1000.279    -21.279    509.599    999.471    509.599    510.368    509.599
 34.170   1077.334   1019.713     57.621    509.257   1018.934    509.257    510.014    509.257
 34.270    963.000    953.625      9.375    508.916    952.873    508.916    509.662    508.916
 34.370    882.104    841.099     41.006    508.576    840.365    508.576    509.312    508.576
 34.470    714.000    729.998    -15.998    508.237    729.276    508.237    508.964    508.237
 34.570    629.000    645.286    -16.286    507.899    644.572    507.899    508.617    507.899
 34.670    629.060    590.960     38.099    507.562    590.252    507.562    508.273    507.562
 34.770    586.305    560.138     26.166    507.227    559.435    507.227    507.930    507.227
 34.870    538.584    543.639     -5.055    506.892    542.942    506.892    507.589    506.892
 34.970    556.000    534.531     21.469    506.559    533.840    506.559    507.250    506.559
 35.070    569.000    528.926     40.074    506.227    528.240    506.227    506.913    506.227
 35.170    552.000    525.023     26.977    505.896    524.341    505.896    506.577    505.896
 35.270    542.000    522.059     19.941    505.566    521.382    505.566    506.243    505.566
 35.370    498.384    519.699    -21.315    505.237    519.026    505.237    505.911    505.237
 35.470    527.000    517.765      9.235    504.910    517.095    504.910    505.580    504.910
 35.570    530.000    516.147     13.853    504.584    515.480    504.584    505.251    504.584
 35.670    471.074    514.771    -43.696    504.260    514.107    504.260    504.924    504.260
 35.770    486.205    513.583    -27.378    503.936    512.921    503.936    504.598    503.936
 35.870    573.000    512.544     60.456    503.614    511.884    503.614    504.274    503.614
 35.970    526.473    511.626     14.847    503.293    510.967    503.293    503.952    503.293
 36.070    502.000    510.806     -8.806    502.974    510.149    502.974    503.631    502.974
 36.170    474.000    510.069    -36.069    502.656    509.412    502.656    503.312    502.656
 36.270    487.000    509.402    -22.402    502.339    508.746    502.339    502.995    502.339
 36.370    549.027    508.797     40.230    502.024    508.141    502.024    502.679    502.024
 36.470    488.000    508.246    -20.246    501.710    507.591    501.710    502.365    501.710
 36.570    482.000    507.748    -25.748    501.397    507.093    501.397    502.053    501.397
 36.670    507.000    507.301     -0.301    501.086    506.645    501.086    501.742    501.086
 36.770    474.000    506.910    -32.910    500.776    506.254    500.776    501.433    500.776
 36.870    471.036    506.589    -35.554    500.468    505.932    500.468    501.126    500.468
 36.970    512.420    506.373      6.047    500.161    505.714    500.161    500.821    500.161
 37.070    525.022    506.335     18.688    499.856    505.675    499.856    500.517    499.856
 37.170    528.000    506.606     21.394    499.552    505.944    499.552    500.215    499.552
 37.270    541.480    507.375     34.105    499.250    506.711    499.250    499.914    499.250
 37.370    510.000    508.840      1.160    498.949    508.175    498.949    499.615    498.949
 37.470    511.000    511.095     -0.095    498.650    510.428    498.650    499.318    498.650
 37.570    542.724    513.951     28.773    498.352    513.283    498.352    499.023    498.352
 37.670    554.000    516.744     37.256    498.056    516.074    498.056    498.730    498.056
 37.770    493.000    518.329    -25.329    497.761    517.658    497.761    498.438    497.761
 37.870    510.530    517.833     -7.304    497.468    517.161    497.468    498.148    497.468
 37.970    550.000    515.547     34.453    497.176    514.873    497.176    497.859    497.176
 38.070    475.941    512.450    -36.508    496.886    511.773    496.886    497.573    496.886
 38.170    530.120    509.308     20.811    496.598    508.628    496.598    497.288    496.598
 38.270    502.000    506.529     -4.529    496.311    505.843    496.311    497.005    496.311
 38.370    513.000    504.305      8.695    496.026    503.613    496.026    496.724    496.026
 38.470    488.000    502.659    -14.659    495.742    501.960    495.742    496.445    495.742
 38.570    491.000    501.486    -10.486    495.460    500.781    495.460    496.168    495.460
 38.670    472.000    500.647    -28.647    495.180    499.937    495.180    495.892    495.180
 38.770    498.000    500.030     -2.030    494.901    499.314    494.901    495.618    494.901
 38.870    486.000    499.545    -13.545    494.624    498.824    494.624    495.347    494.624
 38.970    505.343    499.137      6.206    494.349    498.410    494.349    495.077    494.349
 39.070    525.839    498.775     27.064    494.075    498.042    494.075    494.809    494.075
 39.170    480.000    498.444    -18.444    493.803    497.705    493.803    494.542    493.803
 39.270    455.000    498.135    -43.135    493.533    497.390    493.533    494.278    493.533
 39.370    479.000    497.843    -18.843    493.264    497.092    493.264    494.016    493.264
 39.470    505.874    497.567      8.307    492.997    496.810    492.997    493.755    492.997
 39.570    536.740    497.304     39.436    492.732    496.540    492.732    493.497    492.732
 39.670    440.000    497.054    -57.054    492.469    496.283    492.469    493.240    492.469
 39.770    474.000    496.815    -22.815    492.207    496.037    492.207    492.986    492.207
 39.870    480.834    496.588    -15.753    491.947    495.802    491.947    492.733    491.947
 39.970    497.000    496.371      0.629    491.689    495.578    491.689    492.482    491.689
 40.070    512.000    496.166     15.834    491.432    495.365    491.432    492.234    491.432
 40.170    467.888    495.973    -28.085    491.178    495.164    491.178    491.987    491.178
 40.270    466.000    495.792    -29.792    490.925    494.974    490.925    491.743    490.925
 40.370    478.000    495.624    -17.624    490.674    494.798    490.674    491.500    490.674
 40.470    503.000    495.470      7.530    490.425    494.636    490.425    491.260    490.425
 40.570    508.000    495.333     12.667    490.177    494.489    490.177    491.022    490.177
 40.670    476.161    495.213    -19.052    489.931    494.360    489.931    490.785    489.931
 40.770    484.126    495.114    -10.989    489.687    494.251    489.687    490.551    489.687
 40.870    492.000    495.039     -3.039    489.445    494.166    489.445    490.319    489.445
 40.970    497.507    494.991      2.515    489.205    494.108    489.205    490.089    489.205
 41.070    514.456    494.977     19.479    488.966    494.083    488.966    489.862    488.966
 41.170    503.577    495.003      8.574    488.730    494.098    488.730    489.636    488.730
 41.270    529.604    495.077     34.527    488.495    494.161    488.495    489.413    488.495
 41.370    493.153    495.214     -2.060    488.262    494.286    488.262    489.192    488.262
 41.470    513.000    495.429     17.571    488.031    494.489    488.031    488.973    488.031
 41.570    456.444    495.748    -39.303    487.802    494.796    487.802    488.756    487.802
 41.670    484.000    496.215    -12.215    487.574    495.250    487.574    488.542    487.574
 41.770    507.000    496.916     10.084    487.349    495.938    487.349    488.330    487.349
 41.870    540.025    498.030     41.995    487.125    497.039    487.125    488.120    487.125
 41.970    506.194    499.928      6.266    486.903    498.923    486.903    487.912    486.903
 42.070    485.000    503.306    -18.306    486.683    502.288    486.683    487.707    486.683
 42.170    516.000    509.271      6.729    486.465    508.240    486.465    487.505    486.465
 42.270    505.396    519.222    -13.826    486.249    518.181    486.249    487.304    486.249
 42.370    571.000    534.350     36.650    486.035    533.299    486.035    487.106    486.035
 42.470    554.000    554.723     -0.723    485.822    553.665    485.822    486.911    485.822
 42.570    572.000    578.161     -6.161    485.612    577.098    485.612    486.718    485.612
 42.670    584.000    599.204    -15.204    485.403    598.135    485.403    486.528    485.403
 42.770    599.132    609.779    -10.647    485.196    608.698    485.196    486.340    485.196
 42.870    609.721    604.519      5.202    484.991    603.419    484.991    486.155    484.991
 42.970    631.164    586.242     44.922    484.788    585.114    484.788    485.973    484.788
 43.070    607.507    562.726     44.781    484.587    561.564    484.587    485.793    484.587
 43.170    509.000    540.569    -31.569    484.388    539.373    484.388    485.616    484.388
 43.270    510.993    523.107    -12.114    484.191    521.878    484.191    485.442    484.191
 43.370    486.000    511.005    -25.005    483.996    509.745    483.996    485.270    483.996
 43.470    532.009    503.391     28.618    483.802    502.101    483.802    485.102    483.802
 43.570    530.000    498.877     31.123    483.611    497.559    483.611    484.936    483.611
 43.670    463.000    496.224    -33.224    483.422    494.877    483.422    484.773    483.422
 43.770    477.000    494.585    -17.585    483.234    493.209    483.234    484.614    483.234
 43.870    446.000    493.481    -47.481    483.048    492.074    483.048    484.457    483.048
 43.970    493.000    492.669      0.331    482.864    491.232    482.864    484.304    482.864
 44.070    488.883    492.037     -3.154    482.683    490.567    482.683    484.154    482.683
 44.170    453.355    491.526    -38.171    482.503    490.023    482.503    484.008    482.503
 44.270    503.000    491.107     11.893    482.325    489.568    482.325    483.865    482.325
 44.370    511.000    490.760     20.240    482.149    489.184    482.149    483.726    482.149
 44.470    498.798    490.470      8.327    481.975    488.856    481.975    483.590    481.975
 44.570    518.536    490.229     28.307    481.802    488.575    481.802    483.458    481.802
 44.670    454.438    490.029    -35.591    481.632    488.332    481.632    483.330    481.632
 44.770    469.000    489.865    -20.865    481.464    488.124    481.464    483.206    481.464
 44.870    523.143    489.733     33.410    481.298    487.945    481.298    483.087    481.298
 44.970    455.909    489.630    -33.721    481.133    487.792    481.133    482.972    481.133
 45.070    469.879    489.554    -19.675    480.971    487.663    480.971    482.862    480.971
 45.170    496.472    489.503      6.969    480.810    487.558    480.810    482.756    480.810
 45.270    484.252    489.477     -5.225    480.651    487.474    480.651    482.656    480.651
 45.370    473.668    489.476    -15.808    480.495    487.410    480.495    482.560    480.495
 45.470    537.000    489.499     47.501    480.340    487.368    480.340    482.471    480.340
 45.570    449.035    489.547    -40.512    480.187    487.347    480.187    482.388    480.187
 45.670    462.000    489.622    -27.622    480.036    487.348    480.036    482.310    480.036
 45.770    479.000    489.724    -10.724    479.887    487.372    479.887    482.240    479.887
 45.870    477.000    489.856    -12.856    479.740    487.420    479.740    482.177    479.740
 45.970    470.000    490.021    -20.021    479.595    487.495    479.595    482.121    479.595
 46.070    529.166    490.221     38.945    479.452    487.600    479.452    482.073    479.452
 46.170    467.000    490.461    -23.461    479.311    487.737    479.311    482.035    479.311
 46.270    492.000    490.745      1.255    479.172    487.911    479.172    482.006    479.172
 46.370    515.440    491.081     24.358    479.034    488.129    479.034    481.987    479.034
 46.470    487.464    491.478     -4.014    478.899    488.397    478.899    481.979    478.899
 46.570    510.000    491.946     18.054    478.765    488.726    478.765    481.984    478.765
 46.670    488.000    492.501     -4.501    478.634    489.132    478.634    482.003    478.634
 46.770    511.000    493.171     17.829    478.504    489.638    478.504    482.036    478.504
 46.870    509.000    494.001     14.999    478.376    490.290    478.376    482.086    478.376
 46.970    498.000    495.084      2.916    478.250    491.177    478.250    482.155    478.250
 47.070    502.852    496.594      6.258    478.126    492.474    478.126    482.244    478.126
 47.170    511.000    498.851     12.149    478.004    494.494    478.004    482.357    478.004
 47.270    462.239    502.360    -40.121    477.884    497.741    477.884    482.497    477.884
 47.370    479.866    507.801    -27.935    477.766    502.891    477.766    482.666    477.766
 47.470    531.000    515.873     15.127    477.650    510.638    477.650    482.869    477.650
 47.570    503.000    526.980    -23.980    477.535    521.380    477.535    483.112    477.535
 47.670    571.623    540.784     30.840    477.423    534.776    477.423    483.398    477.423
 47.770    574.000    555.734     18.266    477.312    549.270    477.312    483.734    477.312
 47.870    585.000    568.725     16.275    477.203    561.751    477.203    484.127    477.203
 47.970    573.000    575.670     -2.670    477.096    568.129    477.096    484.585    477.096
 48.070    615.000    574.085     40.915    476.991    565.913    476.991    485.115    476.991
 48.170    564.594    565.423     -0.829    476.888    556.544    476.888    485.727    476.888
 48.270    525.943    553.609    -27.666    476.787    543.935    476.787    486.431    476.787
 48.370    543.000    542.218      0.782    476.688    531.649    476.688    487.235    476.688
 48.470    546.227    533.348     12.879    476.590    521.776    476.590    488.149    476.590
 48.570    537.055    527.757      9.298    476.495    515.062    476.495    489.182    476.495
 48.670    533.000    525.305      7.695    476.401    511.364    476.401    490.338    476.401
 48.770    518.545    525.445     -6.900    476.309    510.133    476.309    491.619    476.309
 48.870    509.000    527.578    -18.578    476.219    510.775    476.219    493.021    476.219
 48.970    525.000    531.264     -6.264    476.131    512.869    476.131    494.526    476.131
 49.070    526.000    536.347    -10.347    476.044    516.285    476.044    496.107    476.044
 49.170    516.000    543.060    -27.060    475.960    521.307    475.960    497.714    475.960
 49.270    546.000    552.386     -6.386    475.877    528.987    475.877    499.277    475.877
 49.370    529.000    566.953    -37.953    475.796    542.046    475.796    500.702    475.796
 49.470    603.137    592.777     10.360    475.717    566.605    475.717    501.884    475.717
 49.570    689.116    641.637     47.479    475.640    614.549    475.640    502.711    475.640
 49.670    721.000    732.621    -11.621    475.565    705.054    475.565    503.097    475.565
 49.770    869.773    889.774    -20.000    475.491    862.211    475.491    502.992    475.491
 49.870   1144.000   1132.639     11.361    475.419   1105.561    475.419    502.403    475.419
 49.970   1470.000   1460.050      9.950    475.349   1433.890    475.349    501.391    475.349
 50.070   1830.000   1833.570     -3.570    475.281   1808.684    475.281    500.049    475.281
 50.170   2204.727   2171.148     33.579    475.215   2147.798    475.215    498.488    475.215
 50.270   2314.029   2365.059    -51.031    475.150   2343.404    475.150    496.815    475.150
 50.370   2252.000   2338.024    -86.024    475.087   2318.108    475.087    495.115    475.087
 50.470   2111.000   2102.438      8.562    475.026   2084.195    475.026    493.455    475.026
 50.570   1829.000   1749.240     79.760    474.967   1732.537    474.967    491.878    474.967
 50.670   1351.000   1383.688    -32.688    474.909   1368.375    474.909    490.411    474.909
 50.770   1034.000   1078.618    -44.618    474.853   1064.554    474.853    489.067    474.853
 50.870    803.000    863.013    -60.013    474.799    850.072    474.799    487.848    474.799
 50.970    697.000    731.337    -34.337    474.747    719.407    474.747    486.753    474.747
 51.070    681.000    660.580     20.420    474.696    649.557    474.696    485.775    474.696
 51.170    705.000    625.187     79.813    474.647    614.974    474.647    484.906    474.647
 51.270    652.860    605.450     47.411    474.600    595.954    474.600    484.136    474.600
 51.370    608.000    590.223     17.777    474.555    581.356    474.555    483.456    474.555
 51.470    537.375    575.725    -38.350    474.511    567.408    474.511    482.857    474.511
 51.570    542.000    562.032    -20.032    474.469    554.194    474.469    482.330    474.469
 51.670    590.396    550.116     40.281    474.429    542.695    474.429    481.867    474.429
 51.770    550.086    540.646      9.439    474.390    533.589    474.390    481.461    474.390
 51.870    573.338    533.794     39.545    474.353    527.052    474.353    481.105    474.353
 51.970    535.000    529.356      5.644    474.318    522.889    474.318    480.793    474.318
 52.070    496.777    526.942    -30.165    474.284    520.712    474.284    480.521    474.284
 52.170    483.467    526.156    -42.689    474.252    520.131    474.252    480.283    474.252
 52.270    554.000    526.741     27.259    474.222    520.891    474.222    480.076    474.222
 52.370    548.890    528.678     20.211    474.193    522.978    474.193    479.898    474.193
 52.470    570.023    532.271     37.753    474.166    526.697    474.166    479.744    474.166
 52.570    536.000    538.322     -2.322    474.140    532.854    474.140    479.613    474.140
 52.670    529.138    548.402    -19.264    474.117    543.020    474.117    479.503    474.117
 52.770    603.589    565.136     38.453    474.094    559.822    474.094    479.412    474.094
 52.870    641.000    592.336     48.664    474.074    587.075    474.074    479.338    474.074
 52.970    695.000    634.666     60.334    474.055    629.442    474.055    479.282    474.055
 53.070    704.000    696.516      7.484    474.037    691.317    474.037    479.240    474.037
 53.170    773.000    780.061     -7.061    474.021    774.875    474.021    479.214    474.021
 53.270    883.000    882.766      0.234    474.007    877.582    474.007    479.202    474.007
 53.370    965.000    994.831    -29.831    473.994    989.640    473.994    479.203    473.994
 53.470   1101.000   1097.377      3.623    473.983   1092.171    473.983    479.218    473.983
 53.570   1225.843   1164.335     61.508    473.974   1159.104    473.974    479.246    473.974
 53.670   1112.930   1173.130    -60.200    473.966   1167.862    473.966    479.286    473.966
 53.770   1128.169   1120.393      7.776    473.959   1115.069    473.959    479.340    473.959
 53.870   1009.460   1024.998    -15.539    473.954   1019.601    473.954    479.406    473.954
 53.970    866.000    913.826    -47.826    473.950    908.338    473.950    479.486    473.950
 54.070    795.532    808.175    -12.642    473.948    802.583    473.948    479.578    473.948
 54.170    723.000    720.061      2.939    473.948    714.353    473.948    479.684    473.948
 54.270    626.534    653.629    -27.095    473.949    647.794    473.949    479.804    473.949
 54.370    627.000    607.649     19.351    473.951    601.676    473.951    479.939    473.951
 54.470    614.000    578.065     35.935    473.955    571.943    473.955    480.088    473.955
 54.570    557.000    560.131     -3.131    473.960    553.847    473.960    480.252    473.960
 54.670    612.000    549.748     62.252    473.967    543.289    473.967    480.433    473.967
 54.770    571.383    543.980     27.402    473.975    537.330    473.975    480.631    473.975
 54.870    522.000    541.001    -19.001    473.985    534.144    473.985    480.848    473.985
 54.970    506.000    539.797    -33.797    473.996    532.715    473.996    481.083    473.996
 55.070    498.000    539.862    -41.862    474.008    532.536    474.008    481.340    474.008
 55.170    577.000    540.974     36.026    474.022    533.383    474.022    481.618    474.022
 55.270    561.000    543.068     17.932    474.038    535.190    474.038    481.920    474.038
 55.370    531.317    546.176    -14.859    474.054    537.986    474.054    482.249    474.054
 55.470    568.000    550.425     17.575    474.072    541.897    474.072    482.605    474.072
 55.570    594.705    556.077     38.628    474.091    547.182    474.091    482.992    474.091
 55.670    527.000    563.658    -36.658    474.112    554.363    474.112    483.412    474.112
 55.770    607.000    574.221     32.779    474.134    564.490    474.134    483.870    474.134
 55.870    549.942    589.844    -39.901    474.158    579.637    474.158    484.369    474.158
 55.970    606.000    614.398     -8.398    474.182    603.670    474.182    484.913    474.182
 56.070    650.000    654.489     -4.489    474.208    643.190    474.208    485.509    474.208
 56.170    690.000    720.164    -30.164    474.236    708.235    474.236    486.162    474.236
 56.270    786.007    824.578    -38.571    474.264    811.955    474.264    486.880    474.264
 56.370    973.901    981.713     -7.812    474.294    968.325    474.294    487.670    474.294
 56.470   1164.000   1201.611    -37.611    474.325   1187.379    474.325    488.544    474.325
 56.570   1514.846   1483.720     31.126    474.357   1468.561    474.357    489.512    474.357
 56.670   1767.622   1810.040    -42.418    474.391   1793.861    474.391    490.587    474.391
 56.770   2083.000   2139.994    -56.994    474.426   2122.694    474.426    491.784    474.426
 56.870   2389.086   2410.227    -21.141    474.462   2391.690    474.462    493.120    474.462
 56.970   2520.000   2548.695    -28.695    474.499   2528.779    474.499    494.613    474.499
 57.070   2545.000   2510.791     34.209    474.538   2489.312    474.538    496.284    474.538
 57.170   2234.525   2311.027    -76.502    474.577   2287.754    474.577    498.156    474.577
 57.270   2097.207   2011.236     85.972    474.618   1985.903    474.618    500.254    474.618
 57.370   1749.837   1682.125     67.713    474.660   1654.450    474.660    502.604    474.660
 57.470   1329.741   1377.470    -47.729    474.704   1347.159    474.704    505.235    474.704
 57.570   1064.000   1127.668    -63.668    474.748   1094.408    474.748    508.174    474.748
 57.670    938.000    942.564     -4.564    474.793    906.026    474.793    511.450    474.793
 57.770    817.000    817.664     -0.664    474.840    777.496    474.840    515.089    474.840
 57.870    830.000    741.283     88.717    474.888    697.111    474.888    519.113    474.888
 57.970    680.466    700.674    -20.208    474.937    652.107    474.937    523.538    474.937
 58.070    648.201    685.830    -37.629    474.987    632.472    474.987    528.366    474.987
 58.170    661.000    690.804    -29.804    475.038    632.271    475.038    533.581    475.038
 58.270    723.832    713.190     10.641    475.090    649.140    475.090    539.142    475.090
 58.370    733.000    752.597    -19.597    475.143    682.766    475.143    544.968    475.143
 58.470    858.786    808.811     49.975    475.197    733.065    475.197    550.930    475.197
 58.570    864.000    880.093    -16.093    475.252    798.486    475.252    556.841    475.252
 58.670    961.000    961.926     -0.926    475.308    874.760    475.308    562.457    475.308
 58.770    985.644   1046.769    -61.126    475.366    954.647    475.366    567.476    475.366
 58.870   1152.000   1125.672     26.328    475.424   1029.520    475.424    571.575    475.424
 58.970   1233.456   1190.882     42.573    475.483   1091.932    475.483    574.447    475.483
 59.070   1200.898   1236.438    -35.540    475.543   1136.159    475.543    575.851    475.543
 59.170   1357.000   1257.106     99.894    475.605   1157.085    475.605    575.668    475.605
 59.270   1273.000   1250.378     22.622    475.667   1152.174    475.667    573.922    475.667
 59.370   1279.000   1220.928     58.072    475.730   1125.932    475.730    570.775    475.730
 59.470   1258.000   1180.689     77.311    475.794   1090.023    475.794    566.495    475.794
 59.570   1191.000   1143.585     47.415    475.859   1058.052    475.859    561.399    475.859
 59.670   1182.000   1121.364     60.636    475.925   1041.451    475.925    555.810    475.925
 59.770   1235.000   1123.436    111.564    475.991   1049.348    475.991    550.009    475.991
 59.870   1242.000   1156.897     85.103    476.059   1088.614    476.059    544.226    476.059
 59.970   1157.712   1223.411    -65.699    476.127   1160.748    476.127    538.628    476.127
 60.070   1296.620   1315.274    -18.654    476.197   1257.939    476.197    533.326    476.197
 60.170   1428.000   1413.928     14.072    476.267   1361.572    476.267    528.389    476.267
 60.270   1575.000   1491.852     83.148    476.338   1444.099    476.338    523.850    476.338
 60.370   1521.000   1519.808      1.192    476.410   1476.280    476.410    519.718    476.410
 60.470   1466.061   1480.606    -14.545    476.482   1440.926    476.482    515.986    476.482
 60.570   1430.308   1379.560     50.748    476.556   1343.355    476.556    512.636    476.556
 60.670   1197.115   1239.689    -42.574    476.630   1206.597    476.630    509.646    476.630
 60.770   1045.750   1088.245    -42.495    476.705   1057.923    476.705    506.987    476.705
 60.870    899.000    947.267    -48.267    476.781    919.399    476.781    504.633    476.781
 60.970    823.000    830.422     -7.422    476.857    804.722    476.857    502.553    476.857
 61.070    747.000    743.388      3.612    476.935    719.601    476.935    500.721    476.935
 61.170    724.000    686.034     37.966    477.013    663.934    477.013    499.110    477.013
 61.270    636.000    655.402    -19.402    477.091    634.791    477.091    497.694    477.091
 61.370    677.000    648.483     28.517    477.171    629.187    477.171    496.450    477.171
 61.470    641.000    663.948    -22.948    477.251    645.816    477.251    495.354    477.251
 61.570    709.241    702.458      6.783    477.331    685.359    477.331    494.386    477.331
 61.670    720.000    765.626    -45.626    477.413    749.450    477.413    493.525    477.413
 61.770    841.969    853.996    -12.027    477.495    838.650    477.495    492.755    477.495
 61.870    930.000    964.589    -34.589    477.577    949.999    477.577    492.058    477.577
 61.970   1049.000   1088.870    -39.870    477.661   1074.981    477.661    491.422    477.661
 62.070   1202.000   1211.581     -9.581    477.745   1198.353    477.745    490.836    477.745
 62.170   1287.764   1311.348    -23.583    477.829   1298.756    477.829    490.290    477.829
 62.270   1358.000   1365.140     -7.140    477.914   1353.165    477.914    489.780    477.914
 62.370   1264.000   1357.872    -93.872    478.000   1346.494    478.000    489.301    478.000
 62.470   1264.000   1291.269    -27.269    478.086   1280.460    478.086    488.854    478.086
 62.570   1205.415   1182.635     22.780    478.173   1172.360    478.173    488.436    478.173
 62.670   1014.000   1055.092    -41.092    478.260   1045.311    478.260    488.047    478.260
 62.770    892.000    928.886    -36.886    478.348    919.563    478.348    487.687    478.348
 62.870    783.000    817.769    -34.769    478.436    808.868    478.436    487.356    478.436
 62.970    702.000    728.657    -26.657    478.525    720.146    478.525    487.053    478.525
 63.070    636.000    662.788    -26.788    478.614    654.639    478.614    486.776    478.614
 63.170    633.958    617.596     16.362    478.704    609.782    478.704    486.526    478.704
 63.270    554.646    588.731    -34.085    478.794    581.229    478.794    486.299    478.794
 63.370    577.000    571.724      5.276    478.885    564.513    478.885    486.096    478.885
 63.470    576.000    563.016     12.984    478.976    556.076    478.976    485.914    478.976
 63.570    606.388    560.387     46.001    479.068    553.697    479.068    485.752    479.068
 63.670    590.000    562.977     27.023    479.160    556.520    479.160    485.609    479.160
 63.770    564.934    571.110     -6.176    479.252    564.867    479.252    485.483    479.252
 63.870    562.000    586.003    -24.003    479.345    579.955    479.345    485.373    479.345
 63.970    572.229    609.377    -37.148    479.438    603.508    479.438    485.278    479.438
 64.070    656.000    642.937     13.063    479.531    637.231    479.531    485.197    479.531
 64.170    711.000    687.696     23.304    479.625    682.138    479.625    485.129    479.625
 64.270    803.000    743.210     59.790    479.719    737.787    479.719    485.073    479.719
 64.370    852.010    806.830     45.180    479.813    801.531    479.813    485.028    479.813
 64.470    843.000    873.117    -30.117    479.908    867.936    479.908    484.993    479.908
 64.570    950.148    933.779     16.369    480.003    928.711    480.003    484.968    480.003
 64.670   1029.000    978.945     50.055    480.098    973.992    480.098    484.952    480.098
 64.770    992.000   1000.342     -8.342    480.193    995.504    480.193    484.944    480.193
 64.870    985.000    994.735     -9.735    480.289    990.012    480.289    484.944    480.289
 64.970    970.000    964.889      5.111    480.385    960.277    480.385    484.952    480.385
 65.070    921.000    917.858      3.142    480.481    913.351    480.481    484.967    480.481
 65.170    914.000    862.340     51.660    480.578    857.927    480.578    484.988    480.578
 65.270    850.272    806.139     44.132    480.674    801.812    480.674    485.015    480.674
 65.370    692.000    754.513    -62.513    480.771    750.260    480.771    485.049    480.771
 65.470    710.632    709.875      0.757    480.868    705.687    480.868    485.088    480.868
 65.570    660.447    672.589    -12.142    480.965    668.455    480.965    485.132    480.965
 65.670    643.000    642.095      0.905    481.062    638.008    481.062    485.182    481.062
 65.770    620.000    617.659      2.341    481.160    613.610    481.160    485.237    481.160
 65.870    584.697    598.542    -13.845    481.257    594.526    481.257    485.297    481.257
 65.970    596.198    583.990     12.208    481.355    580.001    481.355    485.361    481.355
 66.070    582.000    573.277      8.723    481.453    569.313    481.453    485.430    481.453
 66.170    525.966    565.779    -39.812    481.550    561.835    481.550    485.503    481.550
 66.270    546.571    561.000    -14.428    481.648    557.074    481.648    485.581    481.648
 66.370    546.000    558.569    -12.569    481.746    554.657    481.746    485.663    481.746
 66.470    579.000    558.230     20.770    481.844    554.330    481.844    485.750    481.844
 66.570    604.000    559.872     44.128    481.942    555.979    481.942    485.841    481.942
 66.670    590.657    563.604     27.053    482.040    559.714    482.040    485.936    482.040
 66.770    546.000    569.895    -23.895    482.138    566.004    482.138    486.035    482.138
 66.870    625.016    579.784     45.232    482.236    575.888    482.236    486.138    482.236
 66.970    567.732    595.164    -27.432    482.333    591.257    482.333    486.246    482.333
 67.070    606.199    619.111    -12.912    482.431    615.190    482.431    486.358    482.431
 67.170    628.000    656.167    -28.167    482.529    652.227    482.529    486.475    482.529
 67.270    706.000    712.392     -6.392    482.627    708.427    482.627    486.596    482.627
 67.370    813.570    794.945     18.625    482.725    790.953    482.725    486.722    482.725
 67.470    906.000    911.000     -5.000    482.822    906.980    482.822    486.852    482.822
 67.570   1032.000   1065.909    -33.909    482.920   1061.861    482.920    486.987    482.920
 67.670   1184.000   1260.829    -76.829    483.017   1256.758    483.017    487.128    483.017
 67.770   1592.000   1490.261    101.739    483.114   1486.174    483.114    487.274    483.114
 67.870   1815.000   1740.035     74.965    483.211   1735.940    483.211    487.425    483.211
 67.970   1954.753   1986.213    -31.460    483.308   1982.119    483.308    487.582    483.308
 68.070   2133.501   2195.795    -62.293    483.405   2191.708    483.405    487.746    483.405
 68.170   2351.000   2331.575     19.425    483.501   2327.489    483.501    487.915    483.501
 68.270   2376.000   2363.751     12.249    483.598   2359.647    483.598    488.092    483.598
 68.370   2275.000   2284.368     -9.368    483.694   2280.209    483.694    488.276    483.694
 68.470   2140.634   2112.140     28.494    483.790   2107.885    483.790    488.468    483.790
 68.570   1909.000   1882.140     26.860    483.885   1877.749    483.885    488.668    483.885
 68.670   1707.000   1630.985     76.015    483.981   1626.430    483.981    488.876    483.981
 68.770   1395.000   1388.063      6.937    484.076   1383.326    484.076    489.095    484.076
 68.870   1182.000   1172.976      9.024    484.171   1168.045    484.171    489.323    484.171
 68.970   1013.000    995.876     17.124    484.265    990.745    484.265    489.563    484.265
 69.070    875.171    859.039     16.132    484.360    853.705    484.360    489.815    484.360
 69.170    767.000    759.131      7.869    484.454    753.591    484.454    490.081    484.454
 69.270    696.000    689.700      6.300    484.547    683.947    484.547    490.360    484.547
 69.370    658.000    643.357     14.643    484.641    637.385    484.641    490.656    484.641
 69.470    667.000    613.300     53.700    484.734    607.095    484.734    490.969    484.734
 69.570    615.880    594.077     21.804    484.826    587.625    484.826    491.301    484.826
 69.670    584.713    581.765      2.949    484.919    575.045    484.919    491.655    484.919
 69.770    571.813    573.773     -1.960    485.010    566.764    485.010    492.034    485.010
 69.870    575.000    568.513      6.487    485.102    561.188    485.102    492.439    485.102
 69.970    520.668    565.072    -44.404    485.193    557.400    485.193    492.875    485.193
 70.070    547.629    562.953    -15.324    485.284    554.898    485.284    493.347    485.284
 70.170    562.000    561.907      0.093    485.374    553.430    485.374    493.859    485.374
 70.270    552.672    561.839     -9.167    485.463    552.892    485.463    494.417    485.463
 70.370    529.000    562.766    -33.766    485.553    553.295    485.553    495.028    485.553
 70.470    576.000    564.825     11.175    485.641    554.769    485.641    495.702    485.641
 70.570    588.000    568.322     19.678    485.730    557.607    485.730    496.447    485.730
 70.670    541.000    573.819    -32.819    485.818    562.361    485.818    497.277    485.818
 70.770    582.000    582.268     -0.268    485.905    569.967    485.905    498.205    485.905
 70.870    569.000    595.178    -26.178    485.992    581.920    485.992    499.246    485.992
 70.970    609.000    614.785     -5.785    486.078    600.435    486.078    500.419    486.078
 71.070    639.000    644.150     -5.150    486.163    628.554    486.163    501.744    486.163
 71.170    684.000    687.108     -3.108    486.249    670.088    486.249    503.244    486.249
 71.270    708.419    747.940    -39.520    486.333    729.294    486.333    504.942    486.333
 71.370    824.000    830.703     -6.703    486.417    810.202    486.417    506.866    486.417
 71.470    930.000    938.222     -8.222    486.500    915.612    486.500    509.041    486.500
 71.570   1014.000   1070.859    -56.859    486.583   1045.858    486.583    511.494    486.583
 71.670   1160.816   1225.284    -64.468    486.665   1197.589    486.665    514.252    486.665
 71.770   1384.000   1393.480     -9.480    486.747   1362.767    486.747    517.336    486.747
 71.870   1618.085   1562.147     55.938    486.827   1528.078    486.827    520.765    486.827
 71.970   1734.000   1712.827     21.173    486.908   1675.057    486.908    524.548    486.908
 72.070   1894.464   1823.773     70.691    486.987   1781.962    486.987    528.683    486.987
 72.170   1910.000   1875.173     34.827    487.066   1829.001    487.066    533.151    487.066
 72.270   1881.238   1857.053     24.186    487.144   1806.238    487.144    537.907    487.144
 72.370   1789.000   1774.305     14.695    487.221   1718.637    487.221    542.875    487.221
 72.470   1567.000   1643.954    -76.954    487.298   1583.335    487.298    547.932    487.298
 72.570   1481.000   1487.530     -6.530    487.374   1422.033    487.374    552.906    487.374
 72.670   1342.443   1324.715     17.728    487.449   1254.642    487.449    557.570    487.449
 72.770   1174.000   1170.449      3.551    487.524   1096.375    487.524    561.650    487.524
 72.870   1032.000   1034.326     -2.326    487.598    957.122    487.598    564.852    487.598
 72.970    908.000    921.015    -13.015    487.671    841.825    487.671    566.907    487.671
 73.070    795.435    831.195    -35.760    487.743    751.352    487.743    567.626    487.743
 73.170    796.000    762.766     33.234    487.814    683.672    487.814    566.942    487.814
 73.270    658.000    712.124    -54.124    487.885    635.107    487.885    564.930    487.885
 73.370    692.000    675.242     16.758    487.954    601.431    487.954    561.788    487.954
 73.470    655.000    648.412      6.588    488.023    578.666    488.023    557.789    488.023
 73.570    605.000    628.642    -23.642    488.091    563.524    488.091    553.226    488.091
 73.670    637.345    613.746     23.599    488.158    553.551    488.158    548.370    488.158
 73.770    582.568    602.265    -19.697    488.225    547.060    488.225    543.446    488.225
 73.870    591.919    593.294     -1.375    488.290    542.980    488.290    538.621    488.290
 73.970    596.775    586.301     10.474    488.355    540.660    488.355    534.015    488.355
 74.070    573.000    580.965     -7.965    488.418    539.706    488.418    529.700    488.418
 74.170    536.000    577.058    -41.058    488.481    539.845    488.481    525.721    488.481
 74.270    600.104    574.356     25.748    488.543    540.837    488.543    522.093    488.543
 74.370    598.799    572.589     26.211    488.604    542.408    488.604    518.820    488.604
 74.470    589.823    571.407     18.416    488.664    544.222    488.664    515.889    488.664
 74.570    609.000    570.382     38.618    488.723    545.866    488.723    513.284    488.723
 74.670    524.570    569.041    -44.470    488.781    546.890    488.781    510.980    488.781
 74.770    594.000    566.965     27.035    488.838    546.901    488.838    508.952    488.838
 74.870    611.400    563.945     47.455    488.894    545.715    488.894    507.173    488.894
 74.970    611.000    560.071     50.929    488.949    543.449    488.949    505.617    488.949
 75.070    609.000    555.692     53.308    489.003    540.479    489.003    504.257    489.003
 75.170    548.630    551.295     -2.665    489.056    537.317    489.056    503.070    489.056
 75.270    598.000    547.389     50.611    489.108    534.494    489.108    502.032    489.108
 75.370    618.000    544.468     73.532    489.159    532.526    489.159    501.124    489.159
 75.470    500.771    543.014    -42.243    489.209    531.910    489.209    500.328    489.209
 75.570    503.618    543.498    -39.880    489.258    533.138    489.258    499.627    489.258
 75.670    581.719    546.386     35.333    489.306    536.685    489.306    499.009    489.306
 75.770    514.146    552.105    -37.959    489.353    542.992    489.353    498.462    489.353
 75.870    553.000    560.997     -7.997    489.398    552.409    489.398    497.975    489.398
 75.970    593.426    573.234     20.192    489.443    565.118    489.443    497.540    489.443
 76.070    652.000    588.718     63.282    489.486    581.029    489.486    497.150    489.486
 76.170    651.000    606.980     44.020    489.529    599.677    489.529    496.798    489.529
 76.270    578.000    627.091    -49.091    489.570    620.140    489.570    496.481    489.570
 76.370    602.578    647.611    -45.033    489.610    640.982    489.610    496.193    489.610
 76.470    691.716    666.587     25.129    489.649    660.254    489.649    495.931    489.649
 76.570    698.000    681.685     16.315    489.687    675.627    489.687    495.691    489.687
 76.670    729.000    690.577     38.423    489.723    684.775    489.723    495.472    489.723
 76.770    701.000    691.614      9.386    489.759    686.053    489.759    495.271    489.759
 76.870    699.000    684.496     14.504    489.793    679.160    489.793    495.086    489.793
 76.970    671.000    670.409      0.591    489.826    665.282    489.826    494.916    489.826
 77.070    687.528    651.506     36.022    489.858    646.576    489.858    494.758    489.858
 77.170    639.000    630.167      8.833    489.888    625.419    489.888    494.612    489.888
 77.270    585.000    608.480    -23.480    489.918    603.903    489.918    494.477    489.918
 77.370    577.955    588.036    -10.081    489.946    583.617    489.946    494.352    489.946
 77.470    551.198    569.886    -18.688    489.973    565.615    489.973    494.235    489.973
 77.570    560.000    554.583      5.417    489.999    550.449    489.999    494.126    489.999
 77.670    532.888    542.259     -9.372    490.023    538.254    490.023    494.024    490.023
 77.770    538.000    532.736      5.264    490.046    528.850    490.046    493.929    490.046
 77.870    531.000    525.638      5.362    490.068    521.864    490.068    493.840    490.068
 77.970    500.784    520.506    -19.722    490.089    516.837    490.089    493.757    490.089
 78.070    525.000    516.879      8.121    490.108    513.308    490.108    493.678    490.108
 78.170    486.486    514.349    -27.863    490.126    510.870    490.126    493.605    490.126
 78.270    489.000    512.591    -23.591    490.143    509.199    490.143    493.535    490.143
 78.370    462.000    511.362    -49.362    490.159    508.051    490.159    493.469    490.159
 78.470    524.000    510.493     13.507    490.173    507.259    490.173    493.407    490.173
 78.570    536.076    509.877     26.199    490.185    506.714    490.185    493.348    490.185
 78.670    536.831    509.448     27.384    490.197    506.352    490.197    493.293    490.197
 78.770    495.679    509.171    -13.492    490.207    506.138    490.207    493.240    490.207
 78.870    534.075    509.033     25.042    490.216    506.059    490.216    493.189    490.216
 78.970    496.000    509.036    -13.036    490.223    506.118    490.223    493.142    490.223
 79.070    488.154    509.192    -21.038    490.229    506.326    490.229    493.096    490.229
 79.170    469.377    509.522    -40.145    490.234    506.703    490.234    493.052    490.234
 79.270    466.000    510.050    -44.050    490.237    507.276    490.237    493.011    490.237
 79.370    494.000    510.809    -16.809    490.239    508.077    490.239    492.971    490.239
 79.470    513.000    511.836      1.164    490.239    509.141    490.239    492.932    490.239
 79.570    521.716    513.176      8.540    490.238    510.517    490.238    492.896    490.238
 79.670    521.000    514.891      6.109    490.236    512.265    490.236    492.860    490.236
 79.770    518.000    517.065      0.935    490.232    514.468    490.232    492.826    490.232
 79.870    531.000    519.809     11.191    490.227    517.240    490.227    492.793    490.227
 79.970    560.194    523.255     36.939    490.220    520.712    490.220    492.760    490.220
 80.070    523.043    527.644     -4.600    490.212    525.125    490.212    492.728    490.212
 80.170    540.000    533.244      6.756    490.203    530.748    490.203    492.696    490.203
 80.270    562.651    540.357     22.294    490.192    537.883    490.192    492.665    490.192
 80.370    524.455    549.342    -24.887    490.179    546.889    490.179    492.632    490.179
 80.470    534.000    560.552    -26.552    490.165    558.121    490.165    492.599    490.165
 80.570    563.000    574.243    -11.243    490.150    571.834    490.150    492.565    490.150
 80.670    569.000    590.479    -21.479    490.133    588.093    490.133    492.529    490.133
 80.770    590.000    609.045    -19.045    490.115    606.684    490.115    492.490    490.115
 80.870    668.960    629.395     39.564    490.095    627.061    490.095    492.450    490.095
 80.970    659.179    650.652      8.527    490.074    648.346    490.074    492.407    490.074
 81.070    674.000    671.674      2.326    490.051    669.397    490.051    492.361    490.051
 81.170    677.000    691.204    -14.204    490.026    688.958    490.026    492.312    490.026
 81.270    715.809    708.051      7.758    490.001    705.837    490.001    492.261    490.001
 81.370    685.000    721.222    -36.222    489.973    719.040    489.973    492.208    489.973
 81.470    709.000    729.994    -20.994    489.944    727.845    489.944    492.154    489.944
 81.570    706.000    733.972    -27.972    489.914    731.854    489.914    492.098    489.914
 81.670    735.000    733.100      1.900    489.882    731.011    489.882    492.040    489.882
 81.770    761.000    727.596     33.404    489.848    725.536    489.848    491.982    489.848
 81.870    667.274    717.904    -50.630    489.813    715.870    489.813    491.923    489.813
 81.970    672.000    704.716    -32.716    489.777    702.705    489.777    491.864    489.777
 82.070    689.000    688.985      0.015    489.738    686.995    489.738    491.804    489.738
 82.170    625.000    671.797    -46.797    489.699    669.825    489.699    491.744    489.699
 82.270    604.783    654.141    -49.358    489.657    652.185    489.657    491.683    489.657
 82.370    628.000    636.736     -8.736    489.615    634.793    489.615    491.622    489.615
 82.470    614.000    620.021     -6.021    489.570    618.090    489.570    491.561    489.570
 82.570    621.366    604.265     17.101    489.524    602.344    489.524    491.500    489.524
 82.670    567.000    589.693    -22.693    489.476    587.780    489.476    491.438    489.476
 82.770    550.563    576.546    -25.983    489.427    574.639    489.427    491.376    489.427
 82.870    577.000    565.069     11.931    489.376    563.167    489.376    491.313    489.376
 82.970    554.000    555.474     -1.474    489.324    553.574    489.324    491.250    489.324
 83.070    570.441    547.906     22.536    489.270    546.008    489.270    491.187    489.270
 83.170    570.000    542.445     27.555    489.214    540.548    489.214    491.122    489.214
 83.270    555.000    539.091     15.909    489.157    537.193    489.157    491.058    489.157
 83.370    519.278    537.755    -18.477    489.098    535.856    489.098    490.992    489.098
 83.470    531.000    538.258     -7.258    489.038    536.357    489.038    490.926    489.038
 83.570    481.000    540.323    -59.323    488.976    538.419    488.976    490.859    488.976
 83.670    508.902    543.570    -34.668    488.912    541.664    488.912    490.792    488.912
 83.770    578.871    547.531     31.341    488.847    545.621    488.847    490.723    488.847
 83.870    554.139    551.655      2.484    488.780    549.742    488.780    490.654    488.780
 83.970    580.764    555.346     25.418    488.711    553.431    488.711    490.584    488.711
 84.070    541.000    558.011    -17.011    488.641    556.094    488.641    490.512    488.641
 84.170    580.006    559.154     20.852    488.569    557.237    488.569    490.440    488.569
 84.270    506.000    558.486    -52.486    488.496    556.570    488.496    490.368    488.496
 84.370    583.688    556.000     27.688    488.421    554.086    488.421    490.294    488.421
 84.470    530.000    551.955    -21.955    488.344    550.042    488.344    490.219    488.344
 84.570    539.000    546.779     -7.779    488.266    544.869    488.266    490.143    488.266
 84.670    531.000    540.960     -9.960    488.186    539.051    488.186    490.066    488.186
 84.770    559.000    534.953     24.047    488.104    533.046    488.104    489.988    488.104
 84.870    515.237    529.142    -13.905    488.021    527.235    488.021    489.909    488.021
 84.970    511.000    523.813    -12.813    487.936    521.904    487.936    489.829    487.936
 85.070    519.000    519.153     -0.153    487.849    517.242    487.849    489.749    487.849
 85.170    497.000    515.258    -18.258    487.761    513.343    487.761    489.667    487.761
 85.270    514.819    512.146      2.674    487.671    510.225    487.671    489.584    487.671
 85.370    490.000    509.776    -19.776    487.579    507.849    487.579    489.500    487.579
 85.470    484.000    508.076    -24.076    487.486    506.142    487.486    489.415    487.486
 85.570    502.000    506.959     -4.959    487.391    505.016    487.391    489.329    487.391
 85.670    501.000    506.347     -5.347    487.294    504.394    487.294    489.242    487.294
 85.770    530.000    506.177     23.823    487.196    504.214    487.196    489.154    487.196
 85.870    538.000    506.422     31.578    487.096    504.446    487.096    489.065    487.096
 85.970    547.922    507.083     40.839    486.995    505.095    486.995    488.975    486.995
 86.070    476.000    508.203    -32.203    486.892    506.201    486.892    488.885    486.892
 86.170    515.000    509.859      5.141    486.787    507.841    486.787    488.793    486.787
 86.270    537.000    512.159     24.841    486.680    510.125    486.680    488.700    486.680
 86.370    509.000    515.236     -6.236    486.572    513.183    486.572    488.607    486.572
 86.470    537.000    519.231     17.769    486.462    517.158    486.462    488.512    486.462
 86.570    527.441    524.281      3.160    486.350    522.185    486.350    488.417    486.350
 86.670    528.000    530.491     -2.491    486.237    528.371    486.237    488.321    486.237
 86.770    560.455    537.911     22.543    486.122    535.765    486.122    488.224    486.122
 86.870    537.000    546.507     -9.507    486.006    544.333    486.006    488.127    486.006
 86.970    548.000    556.133     -8.133    485.888    553.929    485.888    488.029    485.888
 87.070    578.000    566.507     11.493    485.768    564.272    485.768    487.930    485.768
 87.170    547.732    577.202    -29.469    485.646    574.934    485.646    487.830    485.646
 87.270    579.708    587.637     -7.929    485.523    585.338    485.523    487.730    485.523
 87.370    592.000    597.103     -5.103    485.398    594.772    485.398    487.629    485.398
 87.470    637.000    604.811     32.189    485.272    602.451    485.272    487.527    485.272
 87.570    606.000    610.016     -4.016    485.144    607.628    485.144    487.426    485.144
 87.670    605.000    612.182     -7.182    485.014    609.769    485.014    487.323    485.014
 87.770    631.013    611.147     19.867    484.882    608.710    484.882    487.221    484.882
 87.870    580.317    607.171    -26.854    484.749    604.713    484.749    487.118    484.749
 87.970    638.000    600.858     37.142    484.615    598.379    484.615    487.015    484.615
 88.070    561.000    592.998    -31.998    484.478    590.498    484.478    486.912    484.478
 88.170    602.621    584.432     18.189    484.340    581.910    484.340    486.809    484.340
 88.270    596.000    575.958     20.042    484.201    573.412    484.201    486.705    484.201
 88.370    584.000    568.277     15.723    484.059    565.704    484.059    486.602    484.059
 88.470    557.000    561.953     -4.953    483.916    559.350    483.916    486.500    483.916
 88.570    578.573    557.387     21.185    483.772    554.752    483.772    486.397    483.772
 88.670    553.000    554.808     -1.808    483.626    552.137    483.626    486.296    483.626
 88.770    561.000    554.263      6.737    483.478    551.555    483.478    486.195    483.478
 88.870    568.000    555.637     12.363    483.328    552.888    483.328    486.094    483.328
 88.970    560.000    558.651      1.349    483.177    555.858    483.177    485.995    483.177
 89.070    586.000    562.896     23.104    483.025    560.056    483.025    485.897    483.025
 89.170    584.000    567.846     16.154    482.871    564.956    482.871    485.801    482.871
 89.270    599.249    572.892     26.357    482.715    569.947    482.715    485.707    482.715
 89.370    603.388    577.376     26.012    482.557    574.373    482.557    485.614    482.557
 89.470    626.762    580.656     46.106    482.398    577.589    482.398    485.524    482.398
 89.570    562.634    582.194    -19.559    482.238    579.057    482.238    485.437    482.238
 89.670    599.000    581.661     17.339    482.075    578.448    482.075    485.354    482.075
 89.770    567.256    579.009    -11.753    481.912    575.712    481.912    485.274    481.912
 89.870    615.817    574.463     41.354    481.746    571.074    481.746    485.198    481.746
 89.970    572.502    568.444      4.058    481.579    564.956    481.579    485.127    481.579
 90.070    559.441    561.460     -2.019    481.411    557.863    481.411    485.061    481.411
 90.170    582.291    554.016     28.275    481.241    550.302    481.241    485.002    481.241
 90.270    495.000    546.561    -51.561    481.069    542.722    481.069    484.950    481.069
 90.370    506.000    539.462    -33.462    480.896    535.488    480.896    484.905    480.896
 90.470    572.549    532.990     39.559    480.721    528.871    480.721    484.869    480.721
 90.570    488.000    527.326    -39.326    480.545    523.051    480.545    484.843    480.545
 90.670    521.000    522.562     -1.562    480.367    518.120    480.367    484.827    480.367
 90.770    544.000    518.720     25.280    480.188    514.099    480.188    484.823    480.188
 90.870    502.000    515.765    -13.765    480.007    510.951    480.007    484.831    480.007
 90.970    506.000    513.629     -7.629    479.824    508.607    479.824    484.854    479.824
 91.070    479.860    512.227    -32.367    479.640    506.982    479.640    484.892    479.640
 91.170    513.567    511.477      2.090    479.455    505.990    479.455    484.946    479.455
 91.270    544.000    511.309     32.691    479.268    505.563    479.268    485.017    479.268
 91.370    546.000    511.685     34.315    479.080    505.658    479.080    485.107    479.080
 91.470    503.000    512.594     -9.594    478.890    506.266    478.890    485.218    478.890
 91.570    528.000    514.068     13.932    478.699    507.416    478.699    485.349    478.699
 91.670    491.720    516.172    -24.452    478.506    509.173    478.506    485.502    478.506
 91.770    502.000    519.013    -17.013    478.312    511.642    478.312    485.679    478.312
 91.870    484.000    522.727    -38.727    478.116    514.958    478.116    485.878    478.116
 91.970    533.000    527.467      5.533    477.919    519.274    477.919    486.102    477.919
 92.070    536.000    533.413      2.587    477.720    524.771    477.720    486.351    477.720
 92.170    501.000    540.764    -39.764    477.520    531.646    477.520    486.622    477.520
 92.270    542.000    549.666     -7.666    477.319    540.047    477.319    486.917    477.319
 92.370    503.000    560.238    -57.238    477.116    550.096    477.116    487.233    477.116
 92.470    594.363    572.549     21.814    476.912    561.862    476.912    487.568    476.912
 92.570    569.000    586.588    -17.588    476.707    575.340    476.707    487.919    476.707
 92.670    639.000    602.255     36.745    476.500    590.434    476.500    488.279    476.500
 92.770    618.000    619.341     -1.341    476.291    606.941    476.291    488.644    476.291
 92.870    634.000    637.524     -3.524    476.082    624.548    476.082    489.004    476.082
 92.970    620.000    656.364    -36.364    475.871    642.824    475.871    489.352    475.871
 93.070    667.903    675.324     -7.421    475.658    661.245    475.658    489.675    475.658
 93.170    729.000    693.820     35.180    475.445    679.239    475.445    489.961    475.445
 93.270    728.329    711.309     17.020    475.230    696.275    475.230    490.196    475.230
 93.370    687.204    727.395    -40.191    475.013    711.973    475.013    490.369    475.013
 93.470    758.628    741.917     16.711    474.796    726.181    474.796    490.465    474.796
 93.570    758.000    754.944      3.056    474.577    738.980    474.577    490.476    474.577
 93.670    816.490    766.707     49.783    474.357    750.608    474.357    490.393    474.357
 93.770    725.508    777.481    -51.973    474.135    761.343    474.135    490.214    474.135
 93.870    820.000    787.489     32.511    473.912    771.407    473.912    489.938    473.912
 93.970    834.000    796.898     37.102    473.688    780.963    473.688    489.570    473.688
 94.070    808.000    805.864      2.136    473.463    790.159    473.463    489.118    473.463
 94.170    796.000    814.594    -18.594    473.237    799.190    473.237    488.594    473.237
 94.270    807.000    823.342    -16.342    473.009    808.297    473.009    488.010    473.009
 94.370    815.994    832.315    -16.321    472.781    817.675    472.781    487.379    472.781
 94.470    864.000    841.538     22.462    472.551    827.335    472.551    486.715    472.551
 94.570    869.000    850.731     18.269    472.319    836.986    472.319    486.031    472.319
 94.670    927.000    859.267     67.733    472.087    845.988    472.087    485.336    472.087
 94.770    853.000    866.204    -13.204    471.854    853.391    471.854    484.642    471.854
 94.870    833.520    870.389    -36.869    471.619    858.035    471.619    483.955    471.619
 94.970    885.975    870.619     15.356    471.383    858.710    471.383    483.281    471.383
 95.070    831.000    866.030    -35.030    471.147    854.547    471.147    482.627    471.147
 95.170    842.906    856.160    -13.254    470.909    845.078    470.909    481.994    470.909
 95.270    834.144    841.165     -7.021    470.670    830.459    470.670    481.386    470.670
 95.370    864.000    821.846     42.154    470.430    811.487    470.430    480.805    470.430
 95.470    821.000    799.477     21.523    470.189    789.434    470.189    480.252    470.189
 95.570    803.000    775.619     27.381    469.947    765.862    469.947    479.726    469.947
 95.670    740.000    751.934    -11.934    469.704    742.431    469.704    479.229    469.704
 95.770    764.000    730.055     33.945    469.459    720.775    469.459    478.760    469.459
 95.870    742.000    711.526     30.474    469.214    702.439    469.214    478.319    469.214
 95.970    678.000    697.757    -19.757    468.968    688.833    468.968    477.906    468.968
 96.070    720.000    689.992     30.008    468.721    681.202    468.721    477.519    468.721
 96.170    673.000    689.296    -16.296    468.473    680.612    468.473    477.159    468.473
 96.270    721.000    696.538     24.462    468.224    687.933    468.224    476.824    468.224
 96.370    759.673    712.380     47.293    467.974    703.828    467.974    476.515    467.974
 96.470    738.000    737.254      0.746    467.724    728.728    467.724    476.230    467.724
 96.570    719.000    771.331    -52.331    467.472    762.807    467.472    475.970    467.472
 96.670    831.000    814.475     16.525    467.220    805.928    467.220    475.733    467.220
 96.770    845.000    866.186    -21.186    466.966    857.593    466.966    475.520    466.966
 96.870    928.948    925.540      3.408    466.712    916.878    466.712    475.331    466.712
 96.970   1029.933    991.134     38.799    466.457    982.379    466.457    475.166    466.457
 97.070   1081.000   1061.042     19.958    466.202   1052.171    466.202    475.025    466.202
 97.170   1078.518   1132.800    -54.282    465.945   1123.791    465.945    474.909    465.945
 97.270   1249.296   1203.419     45.878    465.688   1194.249    465.688    474.819    465.688
 97.370   1333.290   1269.454     63.836    465.430   1260.098    465.430    474.756    465.430
 97.470   1310.000   1327.166    -17.166    465.171   1317.599    465.171    474.721    465.171
 97.570   1386.000   1372.837     13.163    464.911   1363.033    464.911    474.715    464.911
 97.670   1463.000   1403.247     59.753    464.651   1393.174    464.651    474.742    464.651
 97.770   1372.611   1416.223    -43.612    464.390   1405.848    464.390    474.802    464.390
 97.870   1391.253   1411.083    -19.831    464.129   1400.369    464.129    474.899    464.129
 97.970   1356.000   1388.751    -32.751    463.867   1377.654    463.867    475.035    463.867
 98.070   1315.000   1351.509    -36.509    463.604   1339.985    463.604    475.213    463.604
 98.170   1346.240   1302.532     43.707    463.341   1290.530    463.341    475.437    463.341
 98.270   1274.000   1245.401     28.599    463.077   1232.867    463.077    475.709    463.077
 98.370   1189.000   1183.734      5.266    462.813   1170.611    462.813    476.035    462.813
 98.470   1153.487   1120.958     32.529    462.548   1107.185    462.548    476.418    462.548
 98.570   1062.000   1060.162      1.838    462.282   1045.673    462.282    476.862    462.282
 98.670   1021.000   1004.094     16.906    462.016    988.822    462.016    477.372    462.016
 98.770    926.000    955.063    -29.063    461.750    938.936    461.750    477.951    461.750
 98.870    903.000    914.980    -11.980    461.483    897.922    461.483    478.605    461.483
 98.970    849.444    885.382    -35.938    461.216    867.314    461.216    479.338    461.216
 99.070    852.000    867.449    -15.449    460.948    848.289    460.948    480.153    460.948
 99.170    827.000    862.029    -35.029    460.680    841.690    460.680    481.056    460.680
 99.270    831.000    869.663    -38.663    460.411    848.056    460.411    482.048    460.411
 99.370    849.000    890.607    -41.607    460.142    867.640    460.142    483.134    460.142
 99.470    955.000    924.841     30.159    459.873    900.420    459.873    484.316    459.873
 99.570    972.000    972.057     -0.057    459.604    946.088    459.604    485.594    459.604
 99.670   1011.000   1031.636    -20.636    459.334   1004.025    459.334    486.970    459.334
 99.770   1149.357   1102.610     46.747    459.064   1073.263    459.064    488.443    459.064
 99.870   1164.000   1183.611    -19.611    458.794   1152.438    458.794    490.008    458.794
 99.970   1232.018   1272.825    -40.807    458.523   1239.742    458.523    491.662    458.523
100.070   1344.000   1367.959    -23.959    458.253   1332.889    458.253    493.396    458.253
100.170   1427.000   1466.227    -39.227    457.982   1429.105    457.982    495.200    457.982
100.270   1617.000   1564.416     52.584    457.711   1525.189    457.711    497.058    457.711
100.370   1715.000   1659.024     55.976    457.440   1617.661    457.440    498.951    457.440
100.470   1735.000   1746.513    -11.513    457.169   1703.004    457.169    500.854    457.169
100.570   1885.886   1823.612     62.274    456.898   1777.980    456.898    502.737    456.898
100.670   1901.000   1887.585     13.415    456.626   1839.882    456.626    504.565    456.626
100.770   1923.000   1936.334    -13.334    456.355   1886.655    456.355    506.295    456.355
100.870   1977.314   1968.355      8.959    456.084   1916.840    456.084    507.883    456.084
100.970   2048.000   1982.628     65.372    455.813   1929.463    455.813    509.280    455.813
101.070   2004.000   1978.612     25.388    455.542   1924.033    455.542    510.437    455.542
101.170   1942.000   1956.420    -14.420    455.271   1900.706    455.271    511.309    455.271
101.270   1891.127   1917.088    -25.961    455.000   1860.559    455.000    511.856    455.000
101.370   1860.000   1862.769     -2.769    454.729   1805.774    454.729    512.049    454.729
101.470   1748.000   1796.661    -48.661    454.458   1739.566    454.458    511.870    454.458
101.570   1656.000   1722.666    -66.666    454.188   1665.842    454.188    511.317    454.188
101.670   1641.000   1644.895     -3.895    453.917   1588.700    453.917    510.401    453.917
101.770   1497.860   1567.192    -69.333    453.647   1511.962    453.647    509.147    453.647
101.870   1459.000   1492.802    -33.802    453.378   1438.836    453.378    507.593    453.378
101.970   1311.000   1424.203   -113.203    453.108   1371.759    453.108    505.782    453.108
102.070   1347.000   1363.020    -16.020    452.839   1312.308    452.839    503.762    452.839
102.170   1328.000   1310.048     17.952    452.570   1261.230    452.570    501.581    452.570
102.270   1253.322   1265.302    -11.981    452.302   1218.494    452.302    499.288    452.302
102.370   1174.000   1228.094    -54.094    452.034   1183.368    452.034    496.924    452.034
102.470   1239.000   1197.133     41.867    451.767   1154.526    451.767    494.528    451.767
102.570   1127.112   1170.670    -43.558    451.500   1130.184    451.500    492.132    451.500
102.670   1137.000   1146.672     -9.672    451.233   1108.283    451.233    489.763    451.233
102.770   1113.000   1123.108    -10.108    450.967   1086.770    450.967    487.442    450.967
102.870   1103.029   1098.179      4.850    450.701   1063.828    450.701    485.186    450.701
102.970   1050.000   1070.558    -20.558    450.437   1038.118    450.437    483.008    450.437
103.070    987.474   1039.562    -52.087    450.172   1008.947    450.172    480.916    450.172
103.170    999.000   1005.142     -6.142    449.909    976.260    449.909    478.916    449.909
103.270    973.000    967.769      5.231    449.646    940.522    449.646    477.013    449.646
103.370    908.270    928.245    -19.975    449.383    902.535    449.383    475.208    449.383
103.470    904.000    887.533     16.467    449.122    863.262    449.122    473.501    449.122
103.570    812.800    846.627    -33.827    448.861    823.696    448.861    471.892    448.861
103.670    767.681    806.459    -38.778    448.601    784.774    448.601    470.377    448.601
103.770    792.000    767.855     24.145    448.342    747.324    448.342    468.956    448.342
103.870    753.883    731.499     22.384    448.084    712.035    448.084    467.623    448.084
103.970    763.000    697.920     65.080    447.827    679.437    447.827    466.375    447.827
104.070    722.000    667.481     54.519    447.570    649.899    447.570    465.209    447.570
104.170    615.000    640.383    -25.383    447.315    623.627    447.315    464.120    447.315
104.270    611.042    616.681     -5.639    447.060    600.680    447.060    463.103    447.060
104.370    651.000    596.300     54.700    446.807    580.988    446.807    462.154    446.807
104.470    529.879    579.066    -49.186    446.554    564.381    446.554    461.269    446.554
104.570    547.014    564.732    -17.718    446.303    550.616    446.303    460.443    446.303
104.670    519.578    553.008    -33.430    446.053    539.410    446.053    459.672    446.053
104.770    593.000    543.589     49.411    445.804    530.458    445.804    458.952    445.804
104.870    514.665    536.174    -21.509    445.556    523.464    445.556    458.279    445.556
104.970    570.000    530.483     39.517    445.309    518.154    445.309    457.649    445.309
105.070    509.068    526.275    -17.206    445.064    514.287    445.064    457.060    445.064
105.170    557.000    523.346     33.654    444.820    511.664    444.820    456.507    444.820
105.270    523.000    521.539      1.461    444.577    510.132    444.577    455.988    444.577
105.370    551.000    520.743     30.257    444.336    509.580    444.336    455.501    444.336
105.470    479.629    520.886    -41.258    444.096    509.940    444.096    455.042    444.096
105.570    521.494    521.935     -0.441    443.858    511.180    443.858    454.610    443.858
105.670    553.000    523.886     29.114    443.621    513.300    443.621    454.202    443.621
105.770    513.000    526.762    -13.762    443.385    516.324    443.385    453.817    443.385
105.870    563.854    530.604     33.249    443.151    520.293    443.151    453.454    443.151
105.970    568.000    535.461     32.539    442.919    525.259    442.919    453.110    442.919
106.070    549.000    541.377      7.623    442.688    531.267    442.688    452.785    442.688
106.170    514.777    548.387    -33.610    442.459    538.352    442.459    452.478    442.459
106.270    568.000    556.495     11.505    442.232    546.521    442.232    452.187    442.232
106.370    575.000    565.673      9.327    442.006    555.746    442.006    451.912    442.006
106.470    562.000    575.848    -13.848    441.782    565.954    441.782    451.652    441.782
106.570    544.901    586.897    -41.996    441.560    577.023    441.560    451.407    441.560
106.670    618.000    598.644     19.356    441.340    588.779    441.340    451.176    441.340
106.770    614.000    610.862      3.138    441.122    600.994    441.122    450.959    441.122
106.870    651.000    623.273     27.727    440.905    613.391    440.905    450.755    440.905
106.970    661.000    635.555     25.445    440.691    625.647    440.691    450.564    440.691
107.070    610.000    647.351    -37.351    440.479    637.408    440.479    450.386    440.479
107.170    676.000    658.289     17.711    440.268    648.300    440.268    450.221    440.268
107.270    610.000    668.006    -58.006    440.060    657.962    440.060    450.069    440.060
107.370    642.000    676.186    -34.186    439.854    666.078    439.854    449.930    439.854
107.470    688.000    682.607      5.393    439.650    672.424    439.650    449.803    439.650
107.570    644.000    687.177    -43.177    439.448    676.908    439.448    449.690    439.448
107.670    645.032    689.957    -44.925    439.249    679.593    439.249    449.590    439.249
107.770    694.000    691.158      2.842    439.052    680.688    439.052    449.503    439.052
107.870    706.881    691.107     15.774    438.857    680.519    438.857    449.429    438.857
107.970    672.852    690.198    -17.345    438.664    679.482    438.664    449.369    438.664
108.070    655.000    688.831    -33.831    438.474    677.975    438.474    449.324    438.474
108.170    657.712    687.372    -29.660    438.287    676.364    438.287    449.293    438.287
108.270    667.000    686.121    -19.121    438.102    674.947    438.102    449.277    438.102
108.370    616.000    685.285    -69.285    437.919    673.933    437.919    449.277    437.919
108.470    684.000    684.973     -0.973    437.739    673.429    437.739    449.294    437.739
108.570    629.000    685.186    -56.186    437.562    673.435    437.562    449.327    437.562
108.670    691.000    685.818      5.182    437.387    673.845    437.387    449.378    437.387
108.770    695.000    686.655      8.345    437.215    674.445    437.215    449.447    437.215
108.870    669.000    687.413    -18.413    437.046    674.948    437.046    449.536    437.046
108.970    684.000    687.738     -3.738    436.880    675.000    436.880    449.645    436.880
109.070    676.000    687.244    -11.244    436.716    674.214    436.716    449.776    436.716
109.170    662.000    685.570    -23.570    436.556    672.228    436.556    449.930    436.556
109.270    697.000    682.430     14.570    436.398    668.754    436.398    450.109    436.398
109.370    671.000    677.657     -6.657    436.244    663.623    436.244    450.313    436.244
109.470    691.000    671.226     19.774    436.092    656.810    436.092    450.546    436.092
109.570    629.625    663.253    -33.628    435.943    648.427    435.943    450.807    435.943
109.670    660.000    653.964      6.036    435.798    638.699    435.798    451.101    435.798
109.770    690.038    643.659     46.379    435.656    627.924    435.656    451.428    435.656
109.870    605.000    632.672    -27.672    435.517    616.432    435.517    451.791    435.517
109.970    567.000    621.337    -54.337    435.381    604.557    435.381    452.193    435.381
110.070    599.424    609.972    -10.548    435.249    592.613    435.249    452.638    435.249
110.170    601.000    598.862      2.138    435.120    580.883    435.120    453.127    435.120
110.270    592.601    588.255      4.346    434.994    569.611    434.994    453.664    434.994
110.370    572.000    578.356     -6.356    434.872    558.998    434.872    454.253    434.872
110.470    549.000    569.326    -20.326    434.754    549.203    434.754    454.897    434.754
110.570    565.297    561.285      4.013    434.639    540.339    434.639    455.601    434.639
110.670    574.000    554.306     19.694    434.527    532.479    434.527    456.369    434.527
110.770    557.000    548.429      8.571    434.419    525.655    434.419    457.206    434.419
110.870    543.000    543.654     -0.654    434.315    519.864    434.315    458.115    434.315
110.970    582.000    539.955     42.045    434.215    515.076    434.215    459.103    434.215
111.070    567.000    537.284     29.716    434.119    511.235    434.119    460.173    434.119
111.170    550.000    535.572     14.428    434.026    508.270    434.026    461.333    434.026
111.270    596.000    534.744     61.256    433.937    506.099    433.937    462.586    433.937
111.370    556.000    534.717     21.283    433.853    504.633    433.853    463.939    433.853
111.470    550.000    535.408     14.592    433.772    503.783    433.772    465.397    433.772
111.570    519.000    536.735    -17.735    433.695    503.464    433.695    466.965    433.695
111.670    552.396    538.625     13.771    433.623    503.595    433.623    468.650    433.623
111.770    578.000    541.010     36.990    433.555    504.104    433.555    470.457    433.555
111.870    539.254    543.831     -4.577    433.490    504.927    433.490    472.392    433.490
111.970    550.000    547.041      2.959    433.431    506.010    433.431    474.458    433.431
112.070    544.370    550.603     -6.233    433.375    507.312    433.375    476.662    433.375
112.170    566.000    554.492     11.508    433.324    508.805    433.324    479.006    433.324
112.270    583.515    558.693     24.822    433.277    510.469    433.277    481.496    433.277
112.370    549.245    563.203    -13.959    433.235    512.299    433.235    484.134    433.235
112.470    521.000    568.033    -47.033    433.198    514.302    433.198    486.923    433.198
112.570    552.744    573.201    -20.457    433.165    516.498    433.165    489.863    433.165
112.670    584.635    578.739      5.896    433.136    518.916    433.136    492.954    433.136
112.770    541.000    584.689    -43.689    433.113    521.600    433.113    496.196    433.113
112.870    561.755    591.105    -29.350    433.094    524.609    433.094    499.584    433.094
112.970    586.000    598.058    -12.058    433.080    528.016    433.080    503.115    433.080
113.070    592.000    605.636    -13.636    433.070    531.920    433.070    506.780    433.070
113.170    578.000    613.955    -35.955    433.066    536.445    433.066    510.569    433.066
113.270    585.261    623.164    -37.903    433.067    541.754    433.067    514.470    433.067
113.370    597.000    633.456    -36.456    433.073    548.055    433.073    518.464    433.073
113.470    648.000    645.077      2.923    433.084    555.618    433.084    522.532    433.084
113.570    614.000    658.345    -44.345    433.100    564.786    433.100    526.647    433.100
113.670    703.318    673.666     29.651    433.121    575.993    433.121    530.779    433.121
113.770    685.000    691.551     -6.551    433.148    589.786    433.148    534.893    433.148
113.870    741.057    712.634     28.423    433.180    606.843    433.180    538.947    433.180
113.970    692.267    737.697    -45.430    433.217    627.990    433.217    542.895    433.217
114.070    744.706    767.677    -22.970    433.260    654.214    433.260    546.686    433.260
114.170    844.000    803.694     40.306    433.308    686.693    433.308    550.264    433.308
114.270    832.000    847.147    -15.147    433.362    726.882    433.362    553.572    433.362
114.370    894.000    899.536     -5.536    433.422    776.339    433.422    556.549    433.422
114.470    908.000    962.590    -54.590    433.487    836.853    433.487    559.140    433.487
114.570   1021.000   1038.225    -17.225    433.558    910.393    433.558    561.289    433.558
114.670   1077.635   1128.509    -50.874    433.635    999.073    433.635    562.950    433.635
114.770   1182.000   1235.606    -53.606    433.717   1105.094    433.717    564.085    433.717
114.870   1299.168   1361.705    -62.537    433.806   1230.673    433.806    564.669    433.806
114.970   1438.000   1508.931    -70.931    433.901   1377.948    433.901    564.688    433.901
115.070   1736.896   1679.228     57.668    434.001   1548.861    434.001    564.145    434.001
115.170   1891.796   1874.233     17.563    434.108   1745.034    434.108    563.056    434.108
115.270   2009.051   2095.131    -86.080    434.221   1967.623    434.221    561.449    434.221
115.370   2424.000   2342.509     81.491    434.340   2217.178    434.340    559.365    434.340
115.470   2793.000   2616.212    176.788    434.466   2493.495    434.466    556.853    434.466
115.570   2932.000   2915.207     16.793    434.598   2795.487    434.598    553.968    434.598
115.670   3192.000   3237.472    -45.472    434.736   3121.076    434.736    550.767    434.736
115.770   3617.000   3579.915     37.085    434.881   3467.112    434.881    547.311    434.881
115.870   3916.000   3938.326    -22.326    435.033   3829.329    435.033    543.657    435.033
115.970   4190.437   4307.370   -116.932    435.191   4202.339    435.191    539.859    435.191
116.070   4744.753   4680.626     64.128    435.356   4579.673    435.356    535.968    435.356
116.170   5080.460   5050.670     29.790    435.527   4953.861    435.527    532.029    435.527
116.270   5441.541   5409.208     32.333    435.706   5316.570    435.706    528.082    435.706
116.370   5770.000   5747.267     22.733    435.891   5658.794    435.891    524.162    435.891
116.470   5988.000   6055.463    -67.463    436.084   5971.117    436.084    520.297    436.084
116.570   6262.000   6324.362    -62.362    436.283   6244.082    436.283    516.513    436.283
116.670   6683.000   6544.962    138.038    436.489   6468.664    436.489    512.829    436.489
116.770   6640.095   6709.277    -69.182    436.703   6636.859    436.703    509.262    436.703
116.870   6837.025   6810.992     26.033    436.924   6742.334    436.924    505.825    436.924
116.970   6838.021   6846.073     -8.051    437.152   6781.043    437.152    502.526    437.152
117.070   6845.754   6813.202     32.552    437.388   6751.655    437.388    499.373    437.388
117.170   6676.344   6713.927    -37.583    437.631   6655.711    437.631    496.370    437.631
117.270   6552.625   6552.477      0.148    437.881   6497.433    437.881    493.521    437.881
117.370   6256.675   6335.295    -78.620    438.139   6283.261    438.139    490.826    438.139
117.470   6070.119   6070.412     -0.294    438.405   6021.226    438.405    488.286    438.405
117.570   5825.000   5766.802     58.198    438.679   5720.300    438.679    485.899    438.679
117.670   5335.000   5433.796    -98.796    438.960   5389.822    438.960    483.663    438.960
117.770   5050.660   5080.627    -29.967    439.249   5039.025    439.249    481.575    439.249
117.870   4733.143   4716.071     17.073    439.546   4676.692    439.546    479.630    439.546
117.970   4371.185   4348.197     22.988    439.851   4310.899    439.851    477.826    439.851
118.070   4163.000   3984.185    178.815    440.164   3948.832    440.164    476.156    440.164
118.170   3691.167   3630.207     60.960    440.485   3596.670    440.485    474.616    440.485
118.270   3368.000   3291.357     76.643    440.815   3259.513    440.815    473.201    440.815
118.370   2936.952   2971.631    -34.679    441.153   2941.368    441.153    471.905    441.153
118.470   2660.000   2673.958    -13.958    441.499   2645.168    441.499    470.724    441.499
118.570   2415.705   2400.257     15.448    441.853   2372.842    441.853    469.650    441.853
118.670   2157.449   2151.537      5.911    442.216   2125.403    442.216    468.680    442.216
118.770   1876.000   1928.007    -52.007    442.588   1903.068    442.588    467.807    442.588
118.870   1705.104   1729.199    -24.095    442.968   1705.376    442.968    467.027    442.968
118.970   1486.000   1554.105    -68.105    443.358   1531.324    443.358    466.334    443.358
119.070   1364.916   1401.297    -36.381    443.755   1379.489    443.755    465.723    443.755
119.170   1304.350   1269.056     35.294    444.162   1248.157    444.162    465.189    444.162
119.270   1185.000   1155.482     29.518    444.578   1135.432    444.578    464.729    444.578
119.370   1077.000   1058.597     18.403    445.003   1039.342    445.003    464.337    445.003
119.470    959.000    976.431    -17.431    445.437    957.918    445.437    464.010    445.437
119.570    913.678    907.086      6.593    445.880    889.268    445.880    463.744    445.880
119.670    873.000    848.789     24.211    446.332    831.622    446.332    463.535    446.332
119.770    746.292    799.924    -53.632    446.794    783.365    446.794    463.379    446.794
119.870    777.000    759.048     17.952    447.265    743.059    447.265    463.275    447.265
119.970    701.000    724.901    -23.901    447.745    709.444    447.745    463.218    447.745
120.070    705.000    696.394      8.606    448.235    681.436    448.235    463.206    448.235
120.170    642.000    672.608    -30.608    448.735    658.117    448.735    463.237    448.735
120.270    667.000    652.771     14.229    449.245    638.717    449.245    463.309    449.245
120.370    621.000    636.246    -15.246    449.764    622.600    449.764    463.418    449.764
120.470    657.050    622.508     34.542    450.293    609.245    450.293    463.565    450.293
120.570    586.000    611.131    -25.131    450.833    598.227    450.833    463.745    450.833
120.670    574.376    601.773    -27.397    451.382    589.204    451.382    463.959    451.382
120.770    604.000    594.153      9.847    451.941    581.899    451.941    464.205    451.941
120.870    618.000    588.049     29.951    452.511    576.089    452.511    464.481    452.511
120.970    545.000    583.279    -38.279    453.091    571.594    453.091    464.786    453.091
121.070    557.895    579.696    -21.801    453.681    568.270    453.681    465.119    453.681
121.170    581.000    577.179      3.821    454.282    565.994    454.282    465.479    454.282
121.270    561.000    575.627    -14.627    454.893    564.669    454.893    465.865    454.893
121.370    559.550    574.954    -15.404    455.515    564.208    455.515    466.276    455.515
121.470    615.000    575.079     39.921    456.147    564.531    456.147    466.711    456.147
121.570    593.000    575.906     17.094    456.791    565.545    456.791    467.170    456.791
121.670    580.000    577.420      2.580    457.445    567.232    457.445    467.652    457.445
121.770    586.667    579.540      7.127    458.110    569.516    458.110    468.156    458.110
121.870    574.000    582.191     -8.191    458.787    572.320    458.787    468.681    458.787
121.970    563.000    585.298    -22.298    459.474    575.571    459.474    469.227    459.474
122.070    588.000    588.788     -0.788    460.172    579.196    460.172    469.793    460.172
122.170    548.979    592.577    -43.598    460.882    583.113    460.882    470.378    460.882
122.270    631.458    596.581     34.877    461.604    587.236    461.604    470.982    461.604
122.370    580.000    600.705    -20.705    462.336    591.474    462.336    471.604    462.336
122.470    572.000    604.852    -32.852    463.081    595.730    463.081    472.243    463.081
122.570    570.000    608.920    -38.920    463.837    599.902    463.837    472.898    463.837
122.670    670.000    612.804     57.196    464.604    603.885    464.604    473.568    464.604
122.770    598.000    616.398    -18.398    465.384    607.576    465.384    474.253    465.384
122.870    663.296    619.600     43.696    466.175    610.873    466.175    474.952    466.175
122.970    621.000    622.317     -1.317    466.978    613.684    466.978    475.664    466.978
123.070    622.000    624.465     -2.465    467.794    615.925    467.794    476.388    467.794
123.170    662.000    625.981     36.019    468.621    617.535    468.621    477.123    468.621
123.270    592.070    626.820    -34.750    469.461    618.470    469.461    477.869    469.461
123.370    611.000    626.964    -15.964    470.313    618.711    470.313    478.624    470.313
123.470    581.000    626.416    -45.416    471.178    618.262    471.178    479.389    471.178
123.570    648.000    625.202     22.798    472.055    617.151    472.055    480.163    472.055
123.670    610.634    623.365    -12.731    472.945    615.421    472.945    480.945    472.945
123.770    602.000    620.963    -18.963    473.848    613.130    473.848    481.735    473.848
123.870    660.000    618.065     41.935    474.763    610.346    474.763    482.534    474.763
123.970    634.000    614.741     19.259    475.691    607.141    475.691    483.341    475.691
124.070    641.087    611.068     30.019    476.632    603.591    476.632    484.156    476.632
124.170    577.786    607.120    -29.334    477.586    599.770    477.586    484.981    477.586
124.270    650.000    602.969     47.031    478.554    595.750    478.554    485.815    478.554
124.370    602.000    598.686      3.314    479.534    591.600    479.534    486.659    479.534
124.470    595.000    594.334      0.666    480.528    587.385    480.528    487.513    480.528
124.570    559.000    589.971    -30.971    481.536    583.160    481.536    488.379    481.536
124.670    579.896    585.648     -5.752    482.557    578.976    482.557    489.257    482.557
124.770    537.605    581.409    -43.804    483.592    574.878    483.592    490.148    483.592
124.870    577.000    577.290     -0.290    484.640    570.901    484.640    491.052    484.640
124.970    593.000    573.323     19.677    485.702    567.075    485.702    491.970    485.702
