neutron_powder_diffraction_0012
R_wp: 3.702
Temperature (K): 459.796
Counts: 82702.00
Wavelength (Ã…): 2.52098
COMMENTS
Test file for demonstrating the .xyy file format in Reel1.0
END OF HEADER
   tth       Y_obs     Y_calc      Y_res    Background    Phase_1_Nuc    Phase_1_Mag    Phase_2_Nuc    Phase_2_Mag
  9.970    722.000    731.119     -9.119    729.376    730.438    730.057    729.376    729.376
 10.070    701.258    730.074    -28.817    728.238    729.385    728.927    728.238    728.238
 10.170    757.000    729.047     27.953    727.107    728.351    727.803    727.107    727.107
 10.270    709.638    728.041    -18.402    725.982    727.337    726.685    725.982    725.982
 10.370    730.000    727.057      2.943    724.863    726.346    725.574    724.863    724.863
 10.470    741.895    726.100     15.794    723.751    725.381    724.469    723.751    723.751
 10.570    764.000    725.175     38.825    722.645    724.448    723.371    722.645    722.645
 10.670    757.000    724.287     32.713    721.545    723.552    722.279    721.545    721.545
 10.770    696.160    723.446    -27.286    720.452    722.703    721.194    720.452    720.452
 10.870    726.000    722.660      3.340    719.365    721.908    720.115    719.365    719.365
 10.970    733.000    721.940     11.060    718.284    721.180    719.042    718.284    718.284
 11.070    764.217    721.308     42.909    717.209    720.539    717.976    717.209    717.209
 11.170    701.014    720.793    -19.779    716.141    720.014    716.917    716.141    716.141
 11.270    747.000    720.429     26.571    715.078    719.641    715.863    715.078    715.078
 11.370    722.768    720.282      2.486    714.022    719.485    714.816    714.022    714.022
 11.470    772.181    720.472     51.709    712.972    719.665    713.775    712.972    712.972
 11.570    797.000    721.249     75.751    711.928    720.432    712.740    711.928    711.928
 11.670    705.000    723.187    -18.187    710.890    722.359    711.712    710.890    710.890
 11.770    761.000    727.440     33.560    709.859    726.600    710.690    709.859    709.859
 11.870    764.812    735.592     29.220    708.833    734.737    709.674    708.833    708.833
 11.970    802.347    749.853     52.494    707.814    748.979    708.664    707.814    707.814
 12.070    822.906    771.345     51.561    706.800    770.449    707.661    706.800    706.800
 12.170    858.000    797.691     60.309    705.793    796.769    706.664    705.793    705.793
 12.270    858.000    820.174     37.826    704.791    819.228    705.673    704.791    704.791
 12.370    834.000    825.617      8.383    703.796    824.657    704.688    703.796    703.796
 12.470    802.000    809.032     -7.032    702.807    808.070    703.710    702.807    702.807
 12.570    804.000    780.986     23.014    701.823    780.028    702.737    701.823    701.823
 12.670    799.000    754.088     44.912    700.846    753.133    701.771    700.846    700.846
 12.770    680.000    733.911    -53.911    699.874    732.956    700.811    699.874    699.874
 12.870    702.000    720.782    -18.782    698.909    719.822    699.857    698.909    698.909
 12.970    713.567    712.840      0.727    697.949    711.872    698.910    697.949    697.949
 13.070    707.143    707.996     -0.852    696.996    707.018    697.968    696.996    696.996
 13.170    755.606    704.780     50.826    696.048    703.791    697.033    696.048    696.048
 13.270    655.000    702.390    -47.390    695.106    701.389    696.104    695.106    695.106
 13.370    667.374    700.421    -33.047    694.170    699.408    695.180    694.170    694.170
 13.470    698.000    698.718     -0.718    693.239    697.692    694.263    693.239    693.239
 13.570    700.166    697.197      2.969    692.315    696.158    693.352    692.315    692.315
 13.670    722.774    695.809     26.965    691.396    694.757    692.447    691.396    691.396
 13.770    735.441    694.521     40.920    690.484    693.455    691.548    690.484    690.484
 13.870    664.000    693.311    -29.311    689.576    692.231    690.655    689.576    689.576
 13.970    671.000    692.162    -21.162    688.675    691.068    689.768    688.675    688.675
 14.070    673.000    691.063    -18.063    687.780    689.954    688.887    687.780    687.780
 14.170    672.000    690.004    -18.004    686.890    688.880    688.012    686.890    686.890
 14.270    704.409    688.978     15.431    686.006    687.839    687.144    686.006    686.006
 14.370    708.436    687.981     20.455    685.127    686.827    686.281    685.127    685.127
 14.470    669.887    687.009    -17.122    684.254    685.839    685.424    684.254    684.254
 14.570    664.000    686.058    -22.058    683.387    684.872    684.573    683.387    683.387
 14.670    675.421    685.126     -9.705    682.526    683.923    683.728    682.526    682.526
 14.770    656.934    684.216    -27.281    681.670    682.996    682.889    681.670    681.670
 14.870    664.850    683.316    -18.466    680.820    682.079    682.056    680.820    680.820
 14.970    610.000    682.430    -72.430    679.975    681.175    681.230    679.975    679.975
 15.070    682.270    681.556      0.714    679.136    680.283    680.409    679.136    679.136
 15.170    718.585    680.694     37.891    678.302    679.403    679.594    678.302    678.302
 15.270    709.000    679.845     29.155    677.474    678.535    678.785    677.474    677.474
 15.370    638.000    679.011    -41.011    676.652    677.681    677.982    676.652    676.652
 15.470    674.000    678.181     -4.181    675.835    676.831    677.185    675.835    675.835
 15.570    685.618    677.360      8.257    675.024    675.990    676.393    675.024    675.024
 15.670    673.000    676.548     -3.548    674.218    675.158    675.608    674.218    674.218
 15.770    683.070    675.745      7.325    673.417    674.333    674.829    673.417    673.417
 15.870    668.000    674.949     -6.949    672.622    673.516    674.055    672.622    672.622
 15.970    687.000    674.162     12.838    671.833    672.706    673.288    671.833    671.833
 16.070    628.359    673.383    -45.024    671.048    671.904    672.526    671.048    671.048
 16.170    719.266    672.613     46.653    670.270    671.112    671.771    670.270    670.270
 16.270    644.000    671.874    -27.874    669.496    670.348    671.021    669.496    669.496
 16.370    705.000    671.125     33.875    668.728    669.575    670.278    668.728    668.728
 16.470    659.000    670.376    -11.376    667.965    668.801    669.540    667.965    667.965
 16.570    636.000    669.635    -33.635    667.208    668.035    668.808    667.208    667.208
 16.670    648.403    668.901    -20.498    666.456    667.275    668.082    666.456    666.456
 16.770    622.478    668.182    -45.704    665.709    666.528    667.362    665.709    665.709
 16.870    675.000    667.467      7.533    664.968    665.786    666.648    664.968    664.968
 16.970    699.000    666.753     32.247    664.231    665.044    665.940    664.231    664.231
 17.070    665.000    666.045     -1.045    663.500    664.307    665.238    663.500    663.500
 17.170    675.000    665.344      9.656    662.775    663.577    664.542    662.775    662.775
 17.270    645.000    664.656    -19.656    662.054    662.858    663.853    662.054    662.054
 17.370    628.000    664.032    -36.032    661.339    662.200    663.172    661.339    661.339
 17.470    684.787    663.367     21.420    660.629    661.502    662.494    660.629    660.629
 17.570    682.000    662.694     19.306    659.924    660.796    661.822    659.924    659.924
 17.670    630.678    662.027    -31.349    659.224    660.095    661.156    659.224    659.224
 17.770    658.000    661.367     -3.367    658.529    659.399    660.496    658.529    658.529
 17.870    653.000    660.713     -7.713    657.840    658.710    659.842    657.840    657.840
 17.970    633.060    660.065    -27.005    657.155    658.026    659.195    657.155    657.155
 18.070    658.207    659.424     -1.217    656.476    657.347    658.553    656.476    656.476
 18.170    645.052    658.790    -13.738    655.802    656.674    657.917    655.802    655.802
 18.270    668.000    658.163      9.837    655.132    656.007    657.288    655.132    655.132
 18.370    653.324    657.542     -4.218    654.468    655.345    656.665    654.468    654.468
 18.470    639.488    656.928    -17.440    653.809    654.689    656.048    653.809    653.809
 18.570    654.000    656.321     -2.321    653.155    654.039    655.437    653.155    653.155
 18.670    613.000    655.731    -42.731    652.505    653.403    654.833    652.505    652.505
 18.770    635.000    655.140    -20.140    651.861    652.766    654.235    651.861    651.861
 18.870    634.000    654.553    -20.553    651.222    652.132    653.643    651.222    651.222
 18.970    666.000    653.973     12.027    650.587    651.503    653.058    650.587    650.587
 19.070    655.000    653.400      1.600    649.958    650.879    652.479    649.958    649.958
 19.170    619.000    652.837    -33.837    649.333    650.264    651.906    649.333    649.333
 19.270    629.000    652.282    -23.282    648.714    649.655    651.340    648.714    648.714
 19.370    677.000    651.754     25.246    648.099    649.071    650.781    648.099    648.099
 19.470    647.000    651.214     -4.214    647.489    648.473    650.230    647.489    647.489
 19.570    652.000    650.714      1.286    646.884    647.901    649.696    646.884    646.884
 19.670    650.156    650.223     -0.067    646.284    647.337    649.170    646.284    646.284
 19.770    629.000    649.704    -20.704    645.688    646.753    648.639    645.688    645.688
 19.870    620.854    649.188    -28.334    645.097    646.172    648.113    645.097    645.097
 19.970    598.000    648.682    -50.682    644.511    645.599    647.595    644.511    644.511
 20.070    605.129    648.202    -43.073    643.930    645.047    647.086    643.930    643.930
 20.170    584.000    647.750    -63.750    643.354    644.503    646.601    643.354    643.354
 20.270    598.595    647.297    -48.701    642.782    643.963    646.115    642.782    642.782
 20.370    643.000    646.850     -3.850    642.215    643.437    645.628    642.215    642.215
 20.470    691.000    646.424     44.576    641.652    642.929    645.147    641.652    641.652
 20.570    630.000    645.976    -15.976    641.095    642.397    644.673    641.095    641.095
 20.670    621.000    645.574    -24.574    640.542    641.908    644.207    640.542    640.542
 20.770    623.000    645.163    -22.163    639.993    641.407    643.750    639.993    639.993
 20.870    632.000    644.734    -12.734    639.449    640.884    643.300    639.449    639.449
 20.970    642.000    644.320     -2.320    638.910    640.369    642.861    638.910    638.910
 21.070    614.383    643.921    -29.538    638.376    639.865    642.432    638.376    638.376
 21.170    636.000    643.519     -7.519    637.845    639.358    642.007    637.845    637.845
 21.270    659.000    643.126     15.874    637.320    638.856    641.590    637.320    637.320
 21.370    680.204    642.744     37.460    636.799    638.361    641.182    636.799    636.799
 21.470    624.000    642.380    -18.380    636.283    637.879    640.784    636.283    636.283
 21.570    597.603    642.024    -44.421    635.771    637.400    640.395    635.771    635.771
 21.670    668.943    641.676     27.268    635.263    636.923    640.015    635.263    635.263
 21.770    653.429    641.339     12.089    634.760    636.454    639.646    634.760    634.760
 21.870    612.070    641.016    -28.946    634.261    635.991    639.286    634.261    634.261
 21.970    628.000    640.706    -12.706    633.767    635.535    638.938    633.767    633.767
 22.070    648.000    640.408      7.592    633.278    635.086    638.600    633.278    633.278
 22.170    593.934    640.126    -46.192    632.792    634.645    638.273    632.792    632.792
 22.270    614.000    639.861    -25.861    632.311    634.214    637.959    632.311    632.311
 22.370    643.000    639.612      3.388    631.835    633.791    637.656    631.835    631.835
 22.470    650.000    639.379     10.621    631.362    633.376    637.366    631.362    631.362
 22.570    642.332    639.166      3.166    630.895    632.971    637.090    630.895    630.895
 22.670    630.000    638.973     -8.973    630.431    632.577    636.827    630.431    630.431
 22.770    581.000    638.807    -57.807    629.972    632.199    636.580    629.972    629.972
 22.870    640.316    638.663      1.654    629.517    631.832    636.347    629.517    629.517
 22.970    604.000    638.542    -34.542    629.066    631.478    636.130    629.066    629.066
 23.070    657.483    638.451     19.033    628.619    631.141    635.929    628.619    628.619
 23.170    630.000    638.392     -8.392    628.177    630.824    635.746    628.177    628.177
 23.270    663.000    638.371     24.629    627.739    630.529    635.582    627.739    627.739
 23.370    625.000    638.391    -13.391    627.305    630.260    635.437    627.305    627.305
 23.470    631.260    638.460     -7.200    626.875    630.024    635.313    626.875    626.875
 23.570    641.000    638.586      2.414    626.450    629.826    635.210    626.450    626.450
 23.670    606.416    638.779    -32.363    626.029    629.678    635.131    626.029    626.029
 23.770    631.000    639.055     -8.055    625.611    629.591    635.077    625.611    625.611
 23.870    646.321    639.434      6.887    625.198    629.585    635.049    625.198    625.198
 23.970    667.497    639.946     27.551    624.789    629.687    635.050    624.789    624.789
 24.070    634.000    640.638     -6.638    624.384    629.942    635.082    624.384    624.384
 24.170    657.000    641.597     15.403    623.983    630.435    635.148    623.983    623.983
 24.270    685.983    642.999     42.984    623.586    631.341    635.248    623.586    623.586
 24.370    650.000    645.224      4.776    623.193    633.035    635.388    623.193    623.193
 24.470    686.000    648.983     37.017    622.805    636.226    635.569    622.805    622.805
 24.570    686.000    655.387     30.613    622.420    642.023    635.795    622.420    622.420
 24.670    718.622    665.694     52.927    622.039    651.680    636.072    622.039    622.039
 24.770    653.082    680.538    -27.456    621.662    665.826    636.403    621.662    621.662
 24.870    744.000    698.546     45.454    621.289    683.083    636.794    621.289    621.289
 24.970    696.000    714.670    -18.670    620.920    698.391    637.252    620.920    620.920
 25.070    733.892    720.724     13.168    620.555    703.554    637.782    620.555    620.555
 25.170    694.071    712.711    -18.640    620.194    694.563    638.393    620.194    620.194
 25.270    696.000    696.509     -0.509    619.836    677.291    639.094    619.836    619.836
 25.370    716.728    680.196     36.533    619.483    659.810    639.895    619.483    619.483
 25.470    686.204    667.820     18.384    619.133    646.160    640.810    619.133    619.133
 25.570    627.000    660.061    -33.061    618.787    637.007    641.851    618.787    618.787
 25.670    707.000    656.016     50.984    618.445    631.431    643.037    618.445    618.445
 25.770    643.778    654.425    -10.647    618.107    628.149    644.386    618.107    618.107
 25.870    680.031    654.292     25.739    617.773    626.144    645.923    617.773    617.773
 25.970    696.097    655.038     41.058    617.442    624.807    647.674    617.442    617.442
 26.070    676.355    656.392     19.963    617.115    623.833    649.675    617.115    617.115
 26.170    640.000    658.253    -18.253    616.792    623.076    651.968    616.792    616.792
 26.270    625.246    660.592    -35.346    616.472    622.470    654.594    616.472    616.472
 26.370    660.000    663.441     -3.441    616.157    621.980    657.616    616.157    616.157
 26.470    631.269    666.854    -35.585    615.844    621.588    661.110    615.844    615.844
 26.570    630.876    670.913    -40.036    615.536    621.279    665.168    615.536    615.536
 26.670    690.354    675.728     14.626    615.231    621.048    669.908    615.231    615.231
 26.770    680.000    681.447     -1.447    614.930    620.894    675.480    614.930    614.930
 26.870    701.000    688.268     12.732    614.632    620.818    682.078    614.632    614.632
 26.970    656.167    696.455    -40.287    614.338    620.829    689.959    614.338    614.338
 27.070    689.000    706.359    -17.359    614.048    620.939    699.462    614.048    614.048
 27.170    712.000    718.466     -6.466    613.761    621.166    711.054    613.761    613.761
 27.270    706.000    733.447    -27.447    613.477    621.539    725.377    613.477    613.477
 27.370    723.000    752.267    -29.267    613.198    622.099    743.355    613.198    613.198
 27.470    756.000    776.333    -20.333    612.921    622.907    766.334    612.921    612.921
 27.570    802.000    807.918     -5.918    612.648    624.062    796.487    612.648    612.648
 27.670    795.000    851.598    -56.598    612.379    625.765    838.189    612.379    612.379
 27.770    878.365    919.979    -41.614    612.113    628.562    903.496    612.113    612.113
 27.870   1083.000   1052.682     30.318    611.851    634.169   1030.304    611.851    611.851
 27.970   1337.000   1358.991    -21.991    611.592    647.312   1323.144    611.592    611.592
 28.070   2110.782   2062.232     48.550    611.336    677.640   1995.644    611.336    611.336
 28.170   3295.000   3442.605   -147.605    611.084    737.268   3315.857    611.084    611.084
 28.270   5335.000   5560.358   -225.358    610.835    828.828   5341.450    610.835    610.835
 28.370   7692.000   7862.905   -170.905    610.589    928.538   7543.823    610.589    610.589
 28.470   9093.000   9127.176    -34.176    610.347    983.777   8752.787    610.347    610.347
 28.570   8638.000   8466.304    171.696    610.108    956.708   8119.279    610.108    610.108
 28.670   6694.824   6551.618    143.206    609.873    877.306   6284.212    609.873    609.873
 28.770   4647.518   4739.807    -92.289    609.641    805.803   4543.823    609.641    609.641
 28.870   3875.000   3869.580      5.420    609.412    780.076   3699.037    609.412    609.412
 28.970   4010.000   4003.995      6.005    609.186    802.728   3810.485    609.186    609.186
 29.070   4685.000   4651.586     33.414    608.963    848.352   4412.231    608.963    608.963
 29.170   4982.705   5061.087    -78.382    608.744    875.767   4794.232    608.744    608.744
 29.270   4702.000   4704.431     -2.431    608.528    855.381   4457.923    608.528    608.528
 29.370   3748.000   3743.321      4.679    608.315    797.899   3554.149    608.315    608.315
 29.470   2475.000   2677.274   -202.274    608.105    733.841   2551.888    608.105    608.105
 29.570   1771.000   1844.533    -73.533    607.899    683.773   1768.894    607.899    607.899
 29.670   1396.207   1325.194     71.014    607.696    652.592   1280.431    607.696    607.696
 29.770   1057.000   1048.071      8.929    607.495    636.025   1019.609    607.495    607.495
 29.870    984.000    910.244     73.756    607.298    627.869    889.707    607.298    607.298
 29.970    911.000    838.372     72.628    607.104    623.708    821.786    607.104    607.104
 30.070    853.000    795.281     57.719    606.913    621.313    780.892    606.913    606.913
 30.170    799.000    765.708     33.292    606.725    619.784    752.656    606.725    606.725
 30.270    754.810    743.842     10.968    606.540    618.807    731.579    606.540    606.540
 30.370    755.043    727.297     27.746    606.358    618.308    715.349    606.358    606.358
 30.470    735.000    715.086     19.914    606.179    618.395    702.870    606.179    606.179
 30.570    733.000    707.226     25.774    606.003    619.445    693.781    606.003    606.003
 30.670    752.000    704.856     47.144    605.831    622.249    688.428    605.831    605.831
 30.770    718.000    710.147      7.853    605.661    628.016    687.775    605.661    605.661
 30.870    748.000    725.253     22.747    605.494    637.894    692.821    605.494    605.494
 30.970    733.186    749.922    -16.736    605.330    651.870    703.334    605.330    605.330
 31.070    741.111    778.296    -37.185    605.168    667.261    716.139    605.168    605.168
 31.170    813.000    797.288     15.712    605.010    677.964    724.262    605.010    605.010
 31.270    826.000    793.463     32.537    604.855    677.697    720.555    604.855    604.855
 31.370    787.000    766.803     20.197    604.702    666.487    704.967    604.702    604.702
 31.470    714.000    730.602    -16.602    604.552    650.627    684.494    604.552    604.552
 31.570    682.416    697.700    -15.284    604.405    636.190    665.895    604.405    604.405
 31.670    704.634    673.678     30.956    604.261    625.828    652.099    604.261    604.261
 31.770    706.000    658.477     47.523    604.120    619.529    643.061    604.120    604.120
 31.870    627.470    649.585    -22.115    603.982    616.126    637.436    603.982    603.982
 31.970    642.905    644.371     -1.466    603.846    614.391    633.822    603.846    603.846
 32.070    704.000    641.065     62.935    603.713    613.503    631.272    603.713    603.713
 32.170    625.625    638.755    -13.131    603.583    613.041    629.295    603.583    603.583
 32.270    597.448    637.040    -39.592    603.455    612.825    627.667    603.455    603.455
 32.370    686.000    635.753     50.247    603.330    612.788    626.294    603.330    603.330
 32.470    614.790    634.824    -20.034    603.208    612.903    625.127    603.208    603.208
 32.570    669.357    634.223     35.135    603.088    613.168    624.142    603.088    603.088
 32.670    675.940    633.941     41.999    602.972    613.587    623.324    602.972    602.972
 32.770    616.526    633.992    -17.466    602.857    614.180    622.667    602.857    602.857
 32.870    669.262    634.404     34.858    602.746    614.975    622.174    602.746    602.746
 32.970    644.275    635.231      9.043    602.637    616.014    621.853    602.637    602.637
 33.070    688.131    636.555     51.576    602.530    617.359    621.725    602.530    602.530
 33.170    630.000    638.499     -8.499    602.426    619.102    621.822    602.426    602.426
 33.270    679.511    641.262     38.250    602.325    621.382    622.202    602.325    602.325
 33.370    669.000    645.196     23.804    602.226    624.450    622.970    602.226    602.226
 33.470    669.000    651.034     17.966    602.130    628.817    624.344    602.130    602.130
 33.570    658.000    660.421     -2.421    602.036    635.629    626.823    602.036    602.036
 33.670    720.000    676.903     43.097    601.945    647.355    631.485    601.945    601.945
 33.770    753.000    707.148     45.852    601.856    668.634    640.357    601.856    601.856
 33.870    793.382    761.181     32.201    601.769    706.442    656.488    601.769    601.769
 33.970    872.508    849.587     22.920    601.685    768.143    683.099    601.685    601.685
 34.070   1019.639    976.277     43.362    601.604    856.461    721.380    601.604    601.604
 34.170   1076.752   1127.766    -51.014    601.525    962.023    767.228    601.525    601.525
 34.270   1260.488   1262.403     -1.915    601.448   1055.858    807.966    601.448    601.448
 34.370   1286.000   1315.397    -29.397    601.374   1092.894    823.871    601.374    601.374
 34.470   1206.000   1251.695    -45.695    601.301   1048.739    804.270    601.301    601.301
 34.570   1085.000   1111.660    -26.660    601.232    951.466    761.444    601.232    601.232
 34.670   1003.000    960.148     42.852    601.164    846.193    715.136    601.164    601.164
 34.770    820.000    836.075    -16.075    601.099    759.996    677.190    601.099    601.099
 34.870    808.000    750.642     57.358    601.037    700.669    651.017    601.037    601.037
 34.970    724.909    698.778     26.131    600.976    664.686    635.072    600.976    600.976
 35.070    752.000    669.631     82.369    600.918    644.497    626.054    600.918    600.918
 35.170    666.638    653.393     13.245    600.862    633.280    620.975    600.862    600.862
 35.270    691.000    643.728     47.272    600.808    626.628    617.909    600.808    600.808
 35.370    620.000    637.332    -17.332    600.756    622.241    615.848    600.756    600.756
 35.470    643.000    632.694     10.306    600.707    619.068    614.334    600.707    600.707
 35.570    596.968    629.137    -32.169    600.660    616.638    613.159    600.660    600.660
 35.670    649.000    626.325     22.675    600.615    614.716    612.223    600.615    600.615
 35.770    603.333    624.064    -20.731    600.572    613.169    611.468    600.572    600.572
 35.870    624.000    622.227      1.773    600.531    611.904    610.853    600.531    600.531
 35.970    648.590    620.723     27.867    600.493    610.861    610.355    600.493    600.493
 36.070    654.000    619.488     34.512    600.456    609.991    609.953    600.456    600.456
 36.170    597.000    618.476    -21.476    600.421    609.262    609.636    600.421    600.421
 36.270    611.000    617.652     -6.652    600.389    608.647    609.394    600.389    600.389
 36.370    613.000    616.992     -3.992    600.359    608.127    609.224    600.359    600.359
 36.470    607.000    616.479     -9.479    600.330    607.687    609.123    600.330    600.330
 36.570    563.000    616.105    -53.105    600.304    607.317    609.092    600.304    600.304
 36.670    583.714    615.864    -32.150    600.280    607.009    609.135    600.280    600.280
 36.770    637.000    615.759     21.241    600.258    606.757    609.260    600.258    600.258
 36.870    637.000    615.800     21.200    600.237    606.558    609.479    600.237    600.237
 36.970    627.000    616.003     10.997    600.219    606.414    609.808    600.219    600.219
 37.070    617.000    616.403      0.597    600.202    606.332    610.273    600.202    600.202
 37.170    578.000    617.054    -39.054    600.188    606.331    610.911    600.188    600.188
 37.270    620.000    618.060      1.940    600.175    606.451    611.784    600.175    600.175
 37.370    621.045    619.612      1.434    600.165    606.770    613.006    600.165    600.165
 37.470    641.000    622.071     18.929    600.156    607.412    614.816    600.156    600.156
 37.570    662.000    626.096     35.904    600.149    608.535    617.711    600.149    600.149
 37.670    661.000    632.809     28.191    600.144    610.288    622.666    600.144    600.144
 37.770    663.000    643.890     19.110    600.141    612.713    631.319    600.141    600.141
 37.870    709.000    661.357     47.643    600.139    615.614    645.883    600.139    600.139
 37.970    683.182    686.715     -3.533    600.139    618.394    668.461    600.139    600.139
 38.070    760.420    719.553     40.867    600.142    620.076    699.620    600.142    600.142
 38.170    733.144    756.189    -23.045    600.145    619.926    736.413    600.145    600.145
 38.270    826.186    788.281     37.905    600.151    618.156    770.282    600.151    600.151
 38.370    818.000    803.016     14.984    600.159    615.554    787.631    600.159    600.159
 38.470    756.000    791.730    -35.730    600.168    612.805    779.108    600.168    600.168
 38.570    805.026    759.881     45.146    600.178    610.355    749.721    600.178    600.178
 38.670    730.000    720.996      9.004    600.191    608.438    712.765    600.191    600.191
 38.770    726.473    685.738     40.735    600.205    607.084    678.871    600.205    600.205
 38.870    655.000    658.858     -3.858    600.221    606.199    652.888    600.221    600.221
 38.970    655.000    640.756     14.244    600.239    605.650    635.350    600.239    600.239
 39.070    680.918    629.614     51.304    600.258    605.317    624.558    600.258    600.258
 39.170    665.944    623.078     42.866    600.278    605.115    618.244    600.278    600.278
 39.270    661.000    619.218     41.782    600.301    604.991    614.530    600.301    600.301
 39.370    650.273    616.797     33.476    600.325    604.915    612.208    600.325    600.325
 39.470    616.000    615.143      0.857    600.350    604.872    610.623    600.350    600.350
 39.570    589.000    613.927    -24.927    600.377    604.852    609.454    600.377    600.377
 39.670    643.802    612.991     30.811    600.406    604.851    608.547    600.406    600.406
 39.770    559.000    612.253    -53.253    600.436    604.866    607.823    600.436    600.436
 39.870    661.852    611.663     50.189    600.468    604.896    607.235    600.468    600.468
 39.970    635.217    611.190     24.027    600.501    604.939    606.752    600.501    600.501
 40.070    603.000    610.809     -7.809    600.535    604.994    606.352    600.535    600.535
 40.170    630.000    610.505     19.495    600.572    605.060    606.017    600.572    600.572
 40.270    573.014    610.264    -37.250    600.609    605.137    605.736    600.609    600.609
 40.370    603.000    610.074     -7.074    600.648    605.223    605.499    600.648    600.648
 40.470    622.000    609.936     12.064    600.688    605.326    605.299    600.688    600.688
 40.570    574.000    609.841    -35.841    600.730    605.442    605.130    600.730    600.730
 40.670    550.000    609.785    -59.785    600.773    605.572    604.987    600.773    600.773
 40.770    642.267    609.765     32.501    600.818    605.718    604.866    600.818    600.818
 40.870    610.000    609.781      0.219    600.864    605.880    604.765    600.864    600.864
 40.970    617.000    609.832      7.168    600.911    606.062    604.682    600.911    600.911
 41.070    647.000    609.919     37.081    600.960    606.266    604.613    600.960    600.960
 41.170    581.000    610.044    -29.044    601.010    606.496    604.558    601.010    601.010
 41.270    591.000    610.211    -19.211    601.061    606.757    604.516    601.061    601.061
 41.370    600.000    610.424    -10.424    601.113    607.053    604.485    601.113    601.113
 41.470    595.000    610.691    -15.691    601.167    607.394    604.465    601.167    601.167
 41.570    603.000    611.021     -8.021    601.222    607.789    604.455    601.222    601.222
 41.670    657.000    611.428     45.572    601.279    608.253    604.455    601.279    601.279
 41.770    555.000    611.932    -56.932    601.336    608.804    604.466    601.336    601.336
 41.870    615.000    612.564      2.436    601.395    609.473    604.488    601.395    601.395
 41.970    605.000    613.380     -8.380    601.455    610.315    604.522    601.455    601.455
 42.070    568.323    614.488    -46.165    601.516    611.434    604.573    601.516    601.516
 42.170    623.583    616.103      7.480    601.578    613.038    604.647    601.578    601.578
 42.270    600.000    618.640    -18.640    601.641    615.524    604.762    601.641    601.641
 42.370    641.000    622.804     18.196    601.706    619.573    604.943    601.706    601.706
 42.470    668.444    629.624     38.821    601.772    626.175    605.230    601.772    601.772
 42.570    641.000    640.287      0.713    601.838    636.472    605.667    601.838    601.838
 42.670    615.000    655.684    -40.684    601.906    651.321    606.290    601.906    601.906
 42.770    630.000    675.676    -45.676    601.975    670.590    607.091    601.975    601.975
 42.870    629.000    698.183    -69.183    602.045    692.277    607.992    602.045    602.045
 42.970    677.000    718.314    -41.314    602.116    711.677    608.805    602.116    602.116
 43.070    717.000    728.940    -11.940    602.189    721.929    609.258    602.189    602.189
 43.170    732.511    725.148      7.362    602.262    718.307    609.163    602.262    602.262
 43.270    713.000    708.975      4.025    602.336    702.768    608.597    602.336    602.336
 43.370    660.000    687.149    -27.149    602.411    681.786    607.817    602.411    602.411
 43.470    659.000    665.798     -6.798    602.487    661.258    607.058    602.487    602.487
 43.570    675.239    648.285     26.954    602.564    644.423    606.449    602.564    602.564
 43.670    624.815    635.592    -10.777    602.642    632.222    606.027    602.642    602.642
 43.770    674.000    627.235     46.765    602.721    624.193    605.773    602.721    602.721
 43.870    583.851    622.107    -38.256    602.801    619.270    605.645    602.801    602.801
 43.970    573.000    619.075    -46.075    602.882    616.362    605.600    602.882    602.882
 44.070    607.007    617.273    -10.266    602.964    614.636    605.605    602.964    602.964
 44.170    630.423    616.155     14.268    603.046    613.566    605.638    603.046    603.046
 44.270    578.000    615.420    -37.420    603.130    612.863    605.688    603.130    603.130
 44.370    645.000    614.913     30.087    603.214    612.379    605.750    603.214    603.214
 44.470    675.000    614.558     60.442    603.299    612.039    605.820    603.299    603.299
 44.570    633.148    614.313     18.835    603.385    611.802    605.897    603.385    603.385
 44.670    615.000    614.152      0.848    603.472    611.646    605.980    603.472    603.472
 44.770    575.032    614.059    -39.027    603.560    611.553    606.068    603.560    603.560
 44.870    615.000    614.023      0.977    603.648    611.512    606.160    603.648    603.648
 44.970    590.196    614.034    -23.838    603.737    611.514    606.258    603.737    603.737
 45.070    592.000    614.086    -22.086    603.827    611.554    606.359    603.827    603.827
 45.170    642.000    614.173     27.827    603.918    611.626    606.465    603.918    603.918
 45.270    620.000    614.293      5.707    604.009    611.727    606.576    604.009    604.009
 45.370    607.413    614.443     -7.030    604.101    611.854    606.690    604.101    604.101
 45.470    638.000    614.621     23.379    604.194    612.006    606.809    604.194    604.194
 45.570    590.000    614.825    -24.825    604.288    612.180    606.933    604.288    604.288
 45.670    665.000    615.056     49.944    604.382    612.377    607.061    604.382    604.382
 45.770    642.761    615.313     27.448    604.477    612.595    607.194    604.477    604.477
 45.870    613.000    615.597     -2.597    604.572    612.836    607.332    604.572    604.572
 45.970    578.376    615.908    -37.531    604.668    613.100    607.476    604.668    604.668
 46.070    630.000    616.248     13.752    604.765    613.387    607.625    604.765    604.765
 46.170    637.000    616.619     20.381    604.862    613.700    607.781    604.862    604.862
 46.270    630.255    617.025     13.231    604.960    614.041    607.943    604.960    604.960
 46.370    607.000    617.467    -10.467    605.059    614.412    608.114    605.059    605.059
 46.470    636.550    617.951     18.599    605.158    614.816    608.292    605.158    605.158
 46.570    624.000    618.482      5.518    605.257    615.259    608.479    605.257    605.257
 46.670    644.039    619.068     24.971    605.358    615.747    608.677    605.358    605.358
 46.770    670.709    619.716     50.993    605.458    616.286    608.887    605.458    605.458
 46.870    598.000    620.440    -22.440    605.560    616.888    609.110    605.560    605.560
 46.970    633.000    621.258     11.742    605.661    617.568    609.350    605.661    605.661
 47.070    613.000    622.196     -9.196    605.763    618.349    609.609    605.763    605.763
 47.170    594.300    623.304    -29.003    605.866    619.273    609.894    605.866    605.866
 47.270    613.000    624.670    -11.670    605.969    620.420    610.217    605.969    605.969
 47.370    618.000    626.461     -8.461    606.073    621.934    610.596    606.073    606.073
 47.470    668.451    628.961     39.490    606.177    624.066    611.066    606.177    606.177
 47.570    645.000    632.615     12.385    606.281    627.211    611.678    606.281    606.281
 47.670    667.610    638.025     29.586    606.386    631.896    612.504    606.386    606.386
 47.770    647.000    645.842      1.158    606.491    638.699    613.618    606.491    606.491
 47.870    662.000    656.543      5.457    606.597    648.040    615.078    606.597    606.597
 47.970    617.000    670.090    -53.090    606.703    659.880    616.882    606.703    606.703
 48.070    694.000    685.513      8.487    606.809    673.362    618.920    606.809    606.809
 48.170    632.000    700.529    -68.529    606.916    686.460    620.935    606.916    606.916
 48.270    670.838    711.545    -40.707    607.023    695.995    622.519    607.023    607.023
 48.370    679.000    715.035    -36.035    607.130    698.839    623.273    607.130    607.130
 48.470    698.000    710.135    -12.135    607.238    694.223    623.102    607.238    607.238
 48.570    714.000    699.527     14.473    607.346    684.511    622.322    607.346    607.346
 48.670    690.000    687.183      2.817    607.454    673.210    621.396    607.454    607.454
 48.770    633.753    676.122    -42.369    607.562    662.980    620.682    607.562    607.562
 48.870    639.000    667.927    -28.927    607.671    655.207    620.375    607.671    607.671
 48.970    714.176    663.088     51.087    607.780    650.307    620.550    607.780    607.780
 49.070    662.000    661.428      0.572    607.889    648.097    621.211    607.889    607.889
 49.170    633.000    662.498    -29.498    607.999    648.149    622.340    607.999    607.999
 49.270    687.869    665.900     21.969    608.108    650.060    623.943    608.108    608.108
 49.370    631.250    671.548    -40.298    608.218    653.661    626.099    608.218    608.218
 49.470    675.960    679.978     -4.018    608.328    659.240    629.059    608.328    608.328
 49.570    657.000    692.985    -35.985    608.438    667.961    633.453    608.438    608.438
 49.670    731.000    714.921     16.079    608.549    682.741    640.714    608.549    608.549
 49.770    759.000    754.764      4.236    608.659    709.714    653.684    608.659    608.659
 49.870    793.014    829.411    -36.396    608.770    760.013    678.122    608.770    608.770
 49.970    949.000    963.710    -14.710    608.880    850.417    722.095    608.880    608.880
 50.070   1140.000   1187.073    -47.073    608.991   1000.739    795.199    608.991    608.991
 50.170   1602.608   1521.666     80.942    609.102   1225.897    904.690    609.102    609.102
 50.270   1889.000   1963.795    -74.795    609.213   1523.418   1049.361    609.213    609.213
 50.370   2484.000   2465.482     18.518    609.324   1861.051   1213.511    609.324    609.324
 50.470   2922.000   2926.779     -4.779    609.435   2171.590   1364.419    609.435    609.435
 50.570   3161.652   3213.965    -52.313    609.546   2365.110   1458.299    609.546    609.546
 50.670   3234.046   3221.355     12.691    609.657   2370.535   1460.511    609.657    609.657
 50.770   2856.000   2946.512    -90.512    609.768   2186.243   1370.183    609.768    609.768
 50.870   2400.806   2492.612    -91.806    609.880   1881.696   1220.994    609.880    609.880
 50.970   1960.000   1994.335    -34.335    609.991   1547.596   1056.928    609.991    609.991
 51.070   1491.000   1554.000    -63.000    610.102   1252.888    911.380    610.102    610.102
 51.170   1187.000   1221.875    -34.875    610.213   1031.465    800.746    610.213    610.213
 51.270    996.000   1003.077     -7.077    610.324    886.748    726.738    610.324    610.324
 51.370    880.177    875.623      4.554    610.435    803.758    682.358    610.435    610.435
 51.470    796.243    809.014    -12.770    610.546    761.547    658.056    610.546    610.546
 51.570    765.000    776.313    -11.313    610.657    741.283    645.723    610.657    610.657
 51.670    742.000    758.810    -16.810    610.768    729.541    640.069    610.768    610.768
 51.770    774.000    746.385     27.615    610.879    719.013    638.278    610.879    610.879
 51.870    782.000    735.660     46.340    610.989    707.609    639.059    610.989    610.989
 51.970    754.000    726.676     27.324    611.100    696.034    641.754    611.100    611.100
 52.070    676.465    720.027    -43.562    611.210    685.519    645.723    611.210    611.210
 52.170    724.719    715.597      9.122    611.320    676.909    650.007    611.320    611.320
 52.270    730.000    712.379     17.621    611.431    670.555    653.250    611.431    611.431
 52.370    727.000    708.914     18.086    611.540    666.436    654.012    611.540    611.540
 52.470    725.000    704.299     20.701    611.650    664.322    651.620    611.650    611.650
 52.570    710.000    698.904     11.096    611.760    663.934    646.724    611.760    611.760
 52.670    728.000    693.925     34.075    611.869    665.086    640.704    611.869    611.869
 52.770    713.915    690.649     23.266    611.978    667.807    634.818    611.978    611.978
 52.870    680.886    690.245     -9.359    612.087    672.469    629.861    612.087    612.087
 52.970    698.000    693.939      4.061    612.196    679.963    626.171    612.196    612.196
 53.070    703.000    703.350     -0.350    612.304    691.904    623.749    612.304    612.304
 53.170    748.000    720.832     27.168    612.412    710.825    622.418    612.412    612.412
 53.270    742.000    749.602     -7.602    612.520    740.165    621.956    612.520    612.520
 53.370    795.000    793.331      1.669    612.628    783.849    622.107    612.628    612.628
 53.470    847.000    855.548     -8.548    612.735    845.319    622.960    612.735    612.735
 53.570    930.000    937.499     -7.499    612.842    925.942    624.396    612.842    612.842
 53.670    986.000   1036.430    -50.430    612.949   1023.106    626.270    612.949    612.949
 53.770   1127.000   1143.514    -16.514    613.055   1128.205    628.366    613.055    613.055
 53.870   1164.000   1242.164    -78.164    613.161   1225.012    630.323    613.161    613.161
 53.970   1363.000   1309.202     53.798    613.267   1290.840    631.649    613.267    613.267
 54.070   1291.000   1323.423    -32.423    613.372   1304.932    631.894    613.372    613.372
 54.170   1235.000   1279.591    -44.591    613.477   1262.160    630.945    613.477    613.477
 54.270   1227.119   1192.969     34.151    613.582   1177.470    629.118    613.582    613.582
 54.370   1142.045   1087.759     54.286    613.686   1074.561    626.919    613.686    613.686
 54.470    962.000    984.253    -22.253    613.790    973.302    624.769    613.790    613.790
 54.570    911.000    894.669     16.331    613.893    885.662    622.923    613.893    613.893
 54.670    791.000    824.186    -33.186    613.996    816.711    621.488    613.996    613.996
 54.770    767.000    772.986     -5.986    614.099    766.630    620.467    614.099    614.099
 54.870    744.000    738.286      5.714    614.201    732.694    619.801    614.201    614.201
 54.970    680.032    716.126    -36.094    614.303    711.027    619.407    614.303    614.303
 55.070    668.029    702.670    -34.641    614.404    697.872    619.205    614.404    614.404
 55.170    707.000    694.880     12.120    614.505    690.256    619.132    614.505    614.505
 55.270    713.000    690.680     22.320    614.605    686.145    619.143    614.605    614.605
 55.370    648.618    688.809    -40.191    614.705    684.303    619.212    614.705    614.705
 55.470    668.000    688.580    -20.580    614.804    684.058    619.328    614.804    614.804
 55.570    727.489    689.667     37.822    614.903    685.089    619.482    614.903    614.903
 55.670    677.000    691.958    -14.958    615.001    687.286    619.676    615.001    615.001
 55.770    720.000    695.491     24.509    615.099    690.681    619.910    615.099    615.099
 55.870    684.000    700.444    -16.444    615.196    695.447    620.194    615.196    615.196
 55.970    754.914    707.207     47.708    615.293    701.960    620.541    615.293    615.293
 56.070    754.144    716.562     37.583    615.389    710.973    620.978    615.389    615.389
 56.170    736.792    730.020      6.772    615.484    723.946    621.558    615.484    615.484
 56.270    748.933    750.375     -1.442    615.579    743.575    622.378    615.579    615.579
 56.370    718.000    782.428    -64.428    615.673    774.494    623.603    615.673    615.673
 56.470    796.000    833.682    -37.682    615.767    823.948    625.492    615.767    615.767
 56.570    876.000    914.526    -38.526    615.860    901.969    628.403    615.860    615.860
 56.670   1014.000   1037.233    -23.233    615.953   1020.404    632.758    615.953    615.953
 56.770   1210.000   1213.177     -3.177    616.045   1190.239    638.950    616.045    616.045
 56.870   1388.622   1448.259    -59.637    616.136   1417.173    647.182    616.136    616.136
 56.970   1776.000   1737.339     38.661    616.226   1696.246    657.278    616.226    616.226
 57.070   2112.972   2058.935     54.037    616.316   2006.719    668.502    616.316    616.316
 57.170   2360.218   2371.355    -11.137    616.406   2308.339    679.419    616.406    616.406
 57.270   2662.000   2613.484     48.516    616.494   2542.094    687.931    616.494    616.494
 57.370   2856.000   2720.122    135.878    616.582   2645.022    691.795    616.582    616.582
 57.470   2676.630   2657.023     19.608    616.669   2584.034    689.836    616.669    616.669
 57.570   2421.447   2446.072    -24.625    616.756   2380.240    682.809    616.756    616.756
 57.670   2258.000   2148.074    109.926    616.842   2092.334    672.812    616.842    616.842
 57.770   1741.889   1826.959    -85.070    616.927   1782.047    662.053    616.927    616.927
 57.870   1474.074   1529.738    -55.665    617.011   1494.761    652.168    617.011    617.011
 57.970   1265.734   1283.011    -17.278    617.095   1256.137    644.110    617.095    617.095
 58.070   1109.616   1096.051     13.565    617.178   1075.057    638.273    617.178    617.178
 58.170    929.000    965.973    -36.973    617.260    948.599    634.702    617.260    617.260
 58.270    915.325    883.537     31.788    617.341    867.599    633.320    617.341    617.341
 58.370    869.000    838.249     30.751    617.422    821.557    634.136    617.422    617.422
 58.470    798.000    821.674    -23.674    617.501    801.836    637.345    617.501    617.501
 58.570    848.000    828.642     19.358    617.580    802.919    643.296    617.580    617.580
 58.670    873.000    856.748     16.252    617.658    822.084    652.301    617.658    617.658
 58.770    917.131    904.824     12.307    617.736    858.170    664.358    617.736    617.736
 58.870    983.000    971.094     11.906    617.812    910.014    678.850    617.812    617.812
 58.970   1045.000   1051.515     -6.515    617.888    975.005    694.349    617.888    617.888
 59.070   1072.000   1138.775    -66.775    617.963   1048.065    708.623    617.963    617.963
 59.170   1240.000   1222.867     17.133    618.037   1121.786    719.077    618.037    618.037
 59.270   1210.000   1294.000    -84.000    618.110   1188.316    723.768    618.110    618.110
 59.370   1306.000   1345.594    -39.594    618.182   1241.427    722.341    618.182    618.182
 59.470   1321.000   1373.886    -52.886    618.254   1276.304    715.846    618.254    618.254
 59.570   1338.684   1376.451    -37.766    618.324   1288.981    705.820    618.324    618.324
 59.670   1415.725   1354.459     61.265    618.394   1279.102    693.787    618.394    618.394
 59.770   1362.000   1316.209     45.791    618.463   1253.463    681.240    618.463    618.463
 59.870   1342.766   1275.567     67.199    618.531   1224.603    669.510    618.531    618.531
 59.970   1285.000   1246.381     38.619    618.598   1205.502    659.461    618.598    618.598
 60.070   1302.000   1238.378     63.622    618.664   1205.585    651.402    618.664    618.664
 60.170   1328.432   1256.513     71.919    618.729   1229.916    645.226    618.729    618.729
 60.270   1265.756   1302.101    -36.344    618.793   1280.097    640.647    618.793    618.793
 60.370   1386.000   1372.797     13.203    618.856   1354.094    637.361    618.856    618.856
 60.470   1542.000   1460.340     81.660    618.919   1443.919    635.099    618.919    618.919
 60.570   1574.000   1548.449     25.551    618.980   1533.527    633.631    618.980    618.980
 60.670   1624.000   1613.730     10.270    619.040   1599.719    632.773    619.040    619.040
 60.770   1698.131   1632.001     66.130    619.100   1618.455    632.387    619.100    619.100
 60.870   1545.000   1590.149    -45.149    619.158   1576.710    632.381    619.158    619.158
 60.970   1506.000   1494.356     11.644    619.216   1480.706    632.702    619.216    619.216
 61.070   1354.415   1365.233    -10.817    619.272   1351.061    633.329    619.272    619.272
 61.170   1297.538   1226.357     71.181    619.328   1211.330    634.280    619.328    619.328
 61.270   1041.000   1096.763    -55.763    619.382   1080.469    635.630    619.382    619.382
 61.370    952.247    988.713    -36.466    619.435    970.568    637.551    619.435    619.435
 61.470    910.000    908.170      1.830    619.488    887.263    640.372    619.488    619.488
 61.570    847.000    856.543     -9.543    619.539    831.390    644.668    619.539    619.539
 61.670    833.474    833.008      0.466    619.589    801.212    651.355    619.589    619.589
 61.770    851.000    836.719     14.281    619.639    794.566    661.748    619.639    619.639
 61.870    830.317    868.183    -37.866    619.687    810.276    677.530    619.687    619.687
 61.970    913.000    929.373    -16.373    619.734    848.481    700.536    619.734    619.734
 62.070   1027.343   1022.529      4.814    619.780    909.869    732.319    619.780    619.780
 62.170   1196.000   1147.985     48.015    619.825    994.137    773.515    619.825    619.825
 62.270   1241.750   1301.614    -59.863    619.869   1098.149    823.136    619.869    619.869
 62.370   1466.000   1472.576     -6.576    619.912   1214.311    877.947    619.912    619.912
 62.470   1660.000   1641.941     18.059    619.954   1329.555    932.088    619.954    619.954
 62.570   1846.734   1783.140     63.594    619.994   1425.623    977.259    619.994    619.994
 62.670   1807.000   1866.704    -59.704    620.034   1482.281   1004.227    620.034    620.034
 62.770   1820.000   1871.264    -51.264    620.072   1484.856   1006.294    620.072    620.072
 62.870   1774.000   1795.298    -21.298    620.109   1432.280    982.991    620.109    620.109
 62.970   1640.000   1658.129    -18.129    620.145   1337.782    940.402    620.145    620.145
 63.070   1525.440   1488.931     36.509    620.180   1221.353    887.706    620.180    620.180
 63.170   1301.000   1314.938    -13.938    620.214   1101.652    833.473    620.214    620.214
 63.270   1068.000   1155.876    -87.876    620.247    992.200    783.911    620.247    620.247
 63.370   1055.000   1023.071     31.929    620.278    900.756    742.590    620.278    620.278
 63.470    914.000    920.510     -6.510    620.309    830.049    710.768    620.309    620.309
 63.570    914.000    846.750     67.250    620.338    779.089    687.996    620.338    620.338
 63.670    799.591    797.290      2.302    620.366    744.790    672.860    620.366    620.366
 63.770    793.425    766.547     26.878    620.393    723.329    663.602    620.393    620.393
 63.870    759.000    749.507      9.493    620.419    711.273    658.642    620.419    620.419
 63.970    783.384    742.585     40.800    620.443    706.159    656.856    620.443    620.443
 64.070    725.805    743.938    -18.133    620.466    706.692    657.696    620.466    620.466
 64.170    774.678    753.453     21.226    620.488    712.689    661.231    620.488    620.488
 64.270    751.052    772.538    -21.486    620.509    724.878    668.141    620.509    620.509
 64.370    870.000    803.796     66.204    620.529    744.592    679.693    620.529    620.529
 64.470    842.039    850.499     -8.460    620.547    773.357    697.635    620.547    620.547
 64.570    956.000    915.816     40.184    620.565    812.351    723.957    620.565    620.565
 64.670   1020.000   1001.751     18.249    620.581    861.785    760.451    620.581    620.581
 64.770   1143.000   1107.877     35.123    620.595    920.258    808.093    620.595    620.595
 64.870   1162.000   1230.024    -68.024    620.609    984.166    866.322    620.609    620.609
 64.970   1420.000   1359.208     60.792    620.621   1047.298    932.366    620.621    620.621
 65.070   1533.000   1481.355     51.645    620.632   1101.053   1000.759    620.632    620.632
 65.170   1663.000   1578.902     84.098    620.642   1136.173   1063.201    620.642    620.642
 65.270   1545.000   1634.934    -89.934    620.650   1146.138   1109.296    620.650    620.650
 65.370   1690.000   1638.673     51.327    620.657   1130.060   1129.153    620.657    620.657
 65.470   1623.000   1589.868     33.132    620.663   1092.680   1117.773    620.663    620.663
 65.570   1457.000   1499.367    -42.367    620.668   1042.018   1077.979    620.668    620.668
 65.670   1404.000   1384.557     19.443    620.671    986.532   1018.690    620.671    620.671
 65.770   1218.224   1262.851    -44.627    620.673    933.016    950.527    620.673    620.673
 65.870   1203.255   1147.470     55.785    620.674    885.631    882.546    620.674    620.674
 65.970    976.000   1046.270    -70.270    620.673    845.938    821.047    620.673    620.673
 66.070   1011.557    962.398     49.159    620.671    813.576    769.536    620.671    620.671
 66.170    919.458    895.764     23.694    620.668    787.333    729.140    620.668    620.668
 66.270    878.819    844.572     34.247    620.664    766.038    699.233    620.664    620.664
 66.370    809.000    806.350      2.650    620.658    748.879    678.157    620.658    620.658
 66.470    736.000    778.492    -42.492    620.650    735.296    663.868    620.650    620.650
 66.570    667.000    758.606    -91.606    620.642    724.847    654.416    620.642    620.642
 66.670    687.000    744.740    -57.740    620.632    717.183    648.200    620.632    620.632
 66.770    719.000    735.472    -16.472    620.621    712.050    644.050    620.621    620.621
 66.870    713.000    729.863    -16.863    620.608    709.292    641.185    620.608    620.608
 66.970    703.000    727.376    -24.376    620.595    708.855    639.120    620.595    620.595
 67.070    720.145    727.823     -7.678    620.579    710.829    637.577    620.579    620.579
 67.170    695.000    731.394    -36.394    620.563    715.552    636.408    620.563    620.563
 67.270    792.813    738.786     54.026    620.545    723.785    635.549    620.545    620.545
 67.370    756.801    751.406      5.395    620.526    736.939    634.994    620.526    620.526
 67.470    783.123    771.630     11.494    620.505    757.351    634.785    620.505    620.505
 67.570    764.000    803.044    -39.044    620.483    788.518    635.009    620.483    620.483
 67.670    796.766    850.547    -53.781    620.459    835.206    635.799    620.459    620.459
 67.770    846.000    920.152    -74.152    620.435    903.259    637.323    620.435    620.435
 67.870   1007.968   1018.317    -10.350    620.408    998.952    639.768    620.408    620.408
 67.970   1121.356   1150.716    -29.360    620.381   1127.798    643.295    620.381    620.381
 68.070   1276.000   1320.503    -44.503    620.352   1292.864    647.994    620.352    620.352
 68.170   1535.468   1526.318      9.151    620.321   1492.840    653.816    620.321    620.321
 68.270   1733.000   1760.388    -27.388    620.290   1720.195    660.524    620.290    620.290
 68.370   1977.000   2007.036    -30.036    620.256   1959.729    667.640    620.256    620.256
 68.470   2299.000   2241.955     57.045    620.222   2187.874    674.430    620.222    620.222
 68.570   2499.000   2433.367     65.633    620.186   2373.809    679.931    620.186    620.186
 68.670   2608.000   2547.582     60.418    620.148   2484.854    683.127    620.148    620.148
 68.770   2573.000   2560.356     12.644    620.109   2497.488    683.284    620.109    620.109
 68.870   2527.000   2468.637     58.363    620.069   2408.739    680.308    620.069    620.069
 68.970   2358.000   2292.338     65.662    620.028   2237.915    674.797    620.028    620.028
 69.070   2145.000   2064.205     80.795    619.984   2016.781    667.736    619.984    619.984
 69.170   1862.339   1817.324     45.015    619.940   1777.434    660.122    619.940    619.940
 69.270   1567.000   1578.041    -11.041    619.894   1545.435    652.747    619.894    619.894
 69.370   1363.000   1364.059     -1.059    619.846   1337.962    646.144    619.846    619.846
 69.470   1181.000   1184.908     -3.908    619.798   1164.261    640.599    619.798    619.798
 69.570   1025.665   1043.294    -17.629    619.747   1026.963    636.193    619.747    619.747
 69.670    888.059    936.931    -48.872    619.696    923.852    632.858    619.696    619.696
 69.770    845.508    860.538    -15.030    619.642    849.807    630.433    619.642    619.642
 69.870    831.818    807.663     24.155    619.588    798.569    628.723    619.588    619.588
 69.970    806.000    772.045     33.955    619.532    764.066    627.539    619.532    619.532
 70.070    762.899    748.399     14.500    619.474    741.177    626.716    619.474    619.474
 70.170    749.000    732.729     16.271    619.415    726.014    626.144    619.415    619.415
 70.270    773.000    722.236     50.764    619.355    715.865    625.736    619.355    619.355
 70.370    672.789    715.104    -42.315    619.293    708.970    625.434    619.293    619.293
 70.470    769.000    710.228     58.772    619.229    704.256    625.207    619.229    619.229
 70.570    713.000    706.973      6.027    619.164    701.106    625.034    619.164    619.164
 70.670    732.572    705.005     27.567    619.098    699.198    624.907    619.098    619.098
 70.770    752.316    704.185     48.131    619.030    698.393    624.822    619.030    619.030
 70.870    736.000    704.522     31.478    618.961    698.701    624.781    618.961    618.961
 70.970    723.000    706.173     16.827    618.890    700.271    624.790    618.890    618.890
 71.070    718.000    709.491      8.509    618.818    703.439    624.865    618.818    618.818
 71.170    698.000    715.103    -17.103    618.744    708.809    625.030    618.744    618.744
 71.270    741.000    724.035     16.965    618.669    717.366    625.326    618.669    618.669
 71.370    699.657    737.848    -38.191    618.592    730.608    625.816    618.592    618.592
 71.470    748.000    758.764    -10.764    618.514    750.667    626.588    618.514    618.514
 71.570    756.000    789.718    -33.718    618.435    780.361    627.758    618.435    618.435
 71.670    834.000    834.262     -0.262    618.354    823.101    629.466    618.354    618.354
 71.770    941.000    896.247     44.753    618.271    882.586    631.865    618.271    618.271
 71.870    989.000    979.234      9.766    618.187    962.234    635.098    618.187    618.187
 71.970   1119.873   1085.642     34.231    618.101   1064.368    639.259    618.101    618.101
 72.070   1184.000   1215.742    -31.742    618.014   1189.248    644.362    618.014    618.014
 72.170   1378.000   1366.642     11.358    617.926   1334.097    650.295    617.926    617.926
 72.270   1487.000   1531.411    -44.411    617.835   1492.257    656.786    617.835    617.835
 72.370   1667.000   1698.471    -31.471    617.744   1652.608    663.382    617.744    617.744
 72.470   1839.000   1851.490    -12.490    617.651   1799.463    669.442    617.651    617.651
 72.570   2075.000   1970.588    104.412    617.556   1913.728    674.185    617.556    617.556
 72.670   2062.000   2036.214     25.786    617.460   1976.620    676.844    617.460    617.460
 72.770   2004.000   2035.753    -31.753    617.363   1976.015    676.924    617.363    617.363
 72.870   1940.000   1969.243    -29.243    617.263   1911.942    674.428    617.263    617.263
 72.970   1857.209   1849.355      7.853    617.163   1796.565    669.854    617.163    617.163
 73.070   1744.808   1695.648     49.160    617.061   1648.671    663.971    617.061    617.061
 73.170   1565.370   1527.971     37.399    616.957   1487.334    657.553    616.957    616.957
 73.270   1373.000   1362.603     10.397    616.852   1328.206    651.227    616.852    616.852
 73.370   1174.000   1211.057    -37.057    616.746   1182.365    645.427    616.746    616.746
 73.470   1040.695   1080.194    -39.499    616.638   1056.426    640.402    616.638    616.638
 73.570   1025.000    972.850     52.150    616.528    953.133    636.244    616.528    616.528
 73.670    884.876    888.725     -3.849    616.417    872.205    632.937    616.417    616.417
 73.770    835.004    825.418      9.586    616.304    811.321    630.401    616.304    616.304
 73.870    755.000    779.422    -24.422    616.190    767.083    628.528    616.190    616.190
 73.970    764.000    746.964     17.036    616.075    735.828    627.210    616.075    616.075
 74.070    732.000    724.580      7.420    615.957    714.188    626.349    615.957    615.957
 74.170    747.000    709.433     37.567    615.839    699.396    625.875    615.839    615.839
 74.270    698.000    699.396     -1.396    615.719    689.371    625.745    615.719    615.719
 74.370    708.000    692.999     15.001    615.597    682.661    625.938    615.597    615.597
 74.470    706.000    689.282     16.718    615.474    678.314    626.449    615.474    615.474
 74.570    717.000    687.642     29.358    615.349    675.726    627.275    615.349    615.349
 74.670    665.000    687.679    -22.679    615.223    674.508    628.408    615.223    615.223
 74.770    685.381    689.079     -3.698    615.096    674.374    629.820    615.096    615.096
 74.870    704.000    691.529     12.471    614.967    675.065    631.455    614.967    614.967
 74.970    665.000    694.655    -29.655    614.836    676.296    633.225    614.836    614.836
 75.070    668.058    697.992    -29.934    614.704    677.727    635.005    614.704    614.704
 75.170    709.000    700.979      8.021    614.570    678.956    636.635    614.570    614.570
 75.270    736.000    703.015     32.985    614.435    679.553    637.942    614.435    614.435
 75.370    832.000    703.614    128.386    614.298    679.166    638.793    614.298    614.298
 75.470    741.000    702.612     38.388    614.160    677.656    639.162    614.160    614.160
 75.570    706.000    700.286      5.714    614.021    675.178    639.172    614.021    614.021
 75.670    732.356    697.289     35.067    613.880    672.128    639.079    613.880    613.880
 75.770    647.119    694.480    -47.362    613.737    669.022    639.228    613.737    613.737
 75.870    687.000    692.799     -5.799    613.593    666.399    640.018    613.593    613.593
 75.970    775.000    693.219     81.781    613.447    664.786    641.897    613.447    613.447
 76.070    700.992    696.744      4.248    613.300    664.694    645.359    613.300    613.300
 76.170    701.000    704.401     -3.401    613.152    666.610    650.942    613.152    613.152
 76.270    749.000    717.196     31.804    613.002    670.992    659.195    613.002    613.002
 76.370    743.000    736.018      6.982    612.850    678.225    670.624    612.850    612.850
 76.470    736.000    761.506    -25.506    612.697    688.570    685.603    612.697    612.697
 76.570    787.000    793.863     -6.863    612.543    702.091    704.273    612.543    612.543
 76.670    875.000    832.661     42.339    612.387    718.569    726.425    612.387    612.387
 76.770    882.000    876.659      5.341    612.229    737.433    751.391    612.229    612.229
 76.870    911.000    923.652    -12.652    612.070    757.686    777.961    612.070    612.070
 76.970    949.000    970.373    -21.373    611.910    777.870    804.329    611.910    611.910
 77.070   1050.791   1012.528     38.263    611.748    796.079    828.108    611.748    611.748
 77.170   1029.030   1045.124    -16.094    611.585    810.101    846.519    611.585    611.585
 77.270   1087.000   1063.378     23.622    611.420    817.820    856.894    611.420    611.420
 77.370   1082.000   1064.155     17.845    611.254    817.846    857.488    611.254    611.254
 77.470   1090.114   1047.227     42.887    611.086    810.077    848.172    611.086    611.086
 77.570    983.294   1015.362    -32.068    610.917    795.732    830.495    610.917    610.917
 77.670    924.415    973.189    -48.774    610.746    776.848    807.045    610.746    610.746
 77.770    936.000    925.710     10.290    610.574    755.632    780.621    610.574    610.574
 77.870    870.000    877.300     -7.300    610.401    734.011    753.667    610.401    610.401
 77.970    829.000    831.306     -2.306    610.226    713.461    728.055    610.226    610.226
 78.070    755.000    789.985    -34.985    610.050    694.976    705.047    610.050    610.050
 78.170    764.000    754.601      9.399    609.872    679.113    685.352    609.872    609.872
 78.270    719.000    725.569     -6.569    609.692    666.054    669.201    609.692    609.692
 78.370    679.000    702.656    -23.656    609.512    655.697    656.467    609.512    609.512
 78.470    686.350    685.193      1.158    609.330    647.744    646.775    609.330    609.330
 78.570    670.000    672.286     -2.286    609.146    641.801    639.629    609.146    609.146
 78.670    642.128    662.990    -20.861    608.961    637.449    634.499    608.961    608.961
 78.770    656.958    656.425      0.533    608.775    634.301    630.896    608.775    608.775
 78.870    667.000    651.854     15.146    608.587    632.030    628.409    608.587    608.587
 78.970    630.000    648.702    -18.702    608.397    630.380    626.717    608.397    608.397
 79.070    680.461    646.547     33.913    608.207    629.166    625.586    608.207    608.207
 79.170    641.000    645.105     -4.105    608.015    628.260    624.858    608.015    608.015
 79.270    618.000    644.193    -26.193    607.821    627.581    624.431    607.821    607.821
 79.370    648.000    643.707      4.293    607.626    627.081    624.250    607.626    607.626
 79.470    637.000    643.601     -6.601    607.430    626.737    624.292    607.430    607.430
 79.570    673.576    643.876     29.700    607.232    626.545    624.562    607.232    607.232
 79.670    664.141    644.573     19.568    607.033    626.512    625.091    607.033    607.033
 79.770    603.000    645.777    -42.777    606.833    626.659    625.948    606.833    606.833
 79.870    642.137    647.632     -5.495    606.631    627.017    627.243    606.631    606.631
 79.970    632.000    650.358    -18.358    606.428    627.629    629.153    606.428    606.428
 80.070    654.785    654.284      0.500    606.223    628.551    631.951    606.223    606.223
 80.170    613.969    659.885    -45.916    606.017    629.861    636.034    606.017    606.017
 80.270    641.000    667.823    -26.823    605.810    631.658    641.966    605.810    605.810
 80.370    693.000    678.984     14.016    605.601    634.075    650.499    605.601    605.601
 80.470    653.000    694.491    -41.491    605.391    637.275    662.591    605.391    605.391
 80.570    690.000    715.675    -25.675    605.180    641.460    679.373    605.180    605.180
 80.670    774.000    743.996     30.004    604.967    646.860    702.076    604.967    604.967
 80.770    730.513    780.890    -50.377    604.753    653.720    731.889    604.753    604.753
 80.870    892.000    827.557     64.443    604.538    662.288    769.766    604.538    604.538
 80.970    920.000    884.707     35.293    604.321    672.792    816.189    604.321    604.321
 81.070    960.000    952.283      7.717    604.103    685.413    870.921    604.103    604.103
 81.170   1064.000   1029.173     34.827    603.884    700.233    932.768    603.884    603.884
 81.270   1251.000   1112.965    138.035    603.663    717.169    999.403    603.663    603.663
 81.370   1253.898   1199.809     54.089    603.441    735.904   1067.294    603.441    603.441
 81.470   1359.000   1284.472     74.528    603.218    755.846   1131.801    603.218    603.218
 81.570   1432.000   1360.735     71.265    602.994    776.139   1187.560    602.994    602.994
 81.670   1591.000   1422.213    168.787    602.768    795.732   1229.238    602.768    602.768
 81.770   1597.000   1463.635    133.365    602.541    813.579   1252.608    602.541    602.541
 81.870   1615.000   1481.829    133.171    602.312    828.748   1255.428    602.312    602.312
 81.970   1548.000   1476.050     71.950    602.083    840.463   1237.727    602.083    602.083
 82.070   1447.236   1447.896     -0.660    601.852    848.230   1201.594    601.852    601.852
 82.170   1478.000   1400.868     77.132    601.619    851.860   1150.720    601.619    601.619
 82.270   1348.000   1339.791      8.209    601.386    851.428   1089.852    601.386    601.386
 82.370   1260.226   1269.994     -9.768    601.151    847.158   1024.096    601.151    601.151
 82.470   1230.924   1196.452     34.473    600.915    839.312    958.165    600.915    600.915
 82.570   1105.524   1123.274    -17.750    600.678    828.220    895.841    600.678    600.678
 82.670   1062.000   1053.586      8.414    600.440    814.393    839.736    600.440    600.440
 82.770   1018.000    989.571     28.429    600.200    798.555    791.313    600.200    600.200
 82.870    914.000    932.501    -18.501    599.959    781.517    751.033    599.959    599.959
 82.970    893.877    882.797     11.079    599.717    764.007    718.588    599.717    599.717
 83.070    798.000    840.208    -42.208    599.474    746.589    693.164    599.474    599.474
 83.170    736.000    804.102    -68.102    599.229    729.703    673.691    599.229    599.229
 83.270    751.924    773.761    -21.837    598.984    713.743    659.054    598.984    598.984
 83.370    718.000    748.554    -30.554    598.737    699.098    648.237    598.737    598.737
 83.470    774.751    727.988     46.762    598.489    686.123    640.389    598.489    598.489
 83.570    666.000    711.690    -45.690    598.240    675.108    634.848    598.240    598.240
 83.670    663.000    699.365    -36.365    597.989    666.247    631.124    597.989    597.989
 83.770    657.000    690.761    -33.761    597.738    659.633    628.874    597.738    597.738
 83.870    735.165    685.627     49.538    597.485    655.258    627.853    597.485    597.485
 83.970    666.000    683.673    -17.673    597.231    653.016    627.879    597.231    597.231
 84.070    675.000    684.536     -9.536    596.976    652.704    628.789    596.976    596.976
 84.170    657.000    687.747    -30.747    596.720    654.026    630.413    596.720    596.720
 84.270    655.772    692.718    -36.946    596.463    656.596    632.549    596.463    596.463
 84.370    651.887    698.743    -46.856    596.205    659.947    634.957    596.205    596.205
 84.470    757.244    705.001     52.243    595.946    663.547    637.350    595.946    595.946
 84.570    756.000    710.600     45.400    595.685    666.818    639.413    595.685    595.685
 84.670    721.185    714.646      6.539    595.423    669.191    640.822    595.423    595.423
 84.770    684.000    716.369    -32.369    595.161    670.176    641.297    595.161    595.161
 84.870    697.418    715.290    -17.871    594.897    669.464    640.668    594.897    594.897
 84.970    658.000    711.340    -53.340    594.632    667.002    638.920    594.632    594.632
 85.070    670.035    704.860    -34.825    594.367    662.987    636.194    594.367    594.367
 85.170    750.404    696.479     53.926    594.100    657.794    632.744    594.100    594.100
 85.270    686.000    686.945     -0.945    593.832    651.869    628.873    593.832    593.832
 85.370    698.051    676.992     21.058    593.563    645.648    624.878    593.563    593.563
 85.470    714.729    667.263     47.466    593.293    639.504    621.028    593.293    593.293
 85.570    637.000    658.277    -21.277    593.022    633.731    617.547    593.022    593.022
 85.670    690.020    650.419     39.601    592.750    628.537    614.615    592.750    592.750
 85.770    643.000    643.954     -0.954    592.477    624.048    612.368    592.477    592.477
 85.870    682.442    639.026     43.416    592.203    620.312    610.903    592.203    592.203
 85.970    626.000    635.691     -9.691    591.928    617.322    610.283    591.928    591.928
 86.070    634.000    633.930      0.070    591.652    615.027    610.541    591.652    591.652
 86.170    638.000    633.678      4.322    591.375    613.357    611.682    591.375    591.375
 86.270    597.846    634.834    -36.988    591.098    612.235    613.680    591.098    591.098
 86.370    607.000    637.273    -30.273    590.819    611.596    616.477    590.819    590.819
 86.470    630.000    640.849    -10.849    590.539    611.393    619.973    590.539    590.539
 86.570    633.441    645.396    -11.955    590.259    611.608    624.021    590.259    590.259
 86.670    722.000    650.726     71.274    589.977    612.254    628.421    589.977    589.977
 86.770    677.294    656.628     20.666    589.695    613.375    632.915    589.695    589.695
 86.870    676.000    662.867     13.133    589.411    615.047    637.194    589.411    589.411
 86.970    690.520    669.193     21.327    589.127    617.373    640.905    589.127    589.127
 87.070    691.000    675.363     15.637    588.842    620.473    643.685    588.842    588.842
 87.170    645.591    681.190    -35.599    588.556    624.477    645.217    588.556    588.556
 87.270    733.000    686.595     46.405    588.270    629.506    645.300    588.270    588.270
 87.370    649.226    691.640    -42.414    587.982    635.655    643.903    587.982    587.982
 87.470    698.000    696.514      1.486    587.694    642.969    641.167    587.694    587.694
 87.570    692.000    701.458     -9.458    587.404    651.420    637.362    587.404    587.404
 87.670    705.558    706.665     -1.107    587.114    660.884    632.806    587.114    587.114
 87.770    670.212    712.208    -41.997    586.824    671.121    627.812    586.824    586.824
 87.870    752.000    717.998     34.002    586.532    681.760    622.662    586.532    586.532
 87.970    743.000    723.762     19.238    586.240    692.296    617.587    586.240    586.240
 88.070    749.000    729.050     19.950    585.946    702.097    612.774    585.946    585.946
 88.170    738.000    733.272      4.728    585.653    710.438    608.356    585.653    585.653
 88.270    806.000    735.787     70.213    585.358    716.596    604.415    585.358    585.358
 88.370    752.000    736.049     15.951    585.063    719.992    600.989    585.063    585.063
 88.470    721.843    733.783    -11.940    584.766    720.353    598.071    584.766    584.766
 88.570    738.000    729.075      8.925    584.470    717.798    595.630    584.470    584.470
 88.670    795.000    722.351     72.649    584.172    712.802    593.617    584.172    584.172
 88.770    712.000    714.249     -2.249    583.874    706.059    591.974    583.874    583.874
 88.870    711.311    705.491      5.820    583.575    698.347    590.644    583.575    583.575
 88.970    679.000    696.783    -17.783    583.275    690.424    589.574    583.275    583.275
 89.070    670.083    688.762    -18.679    582.975    682.975    588.717    582.975    582.975
 89.170    715.000    681.965     33.035    582.674    676.573    588.035    582.674    582.674
 89.270    640.000    676.795    -36.795    582.373    671.654    587.495    582.373    582.373
 89.370    694.000    673.498     20.502    582.071    668.490    587.071    582.071    582.071
 89.470    694.000    672.153     21.847    581.768    667.185    586.740    581.768    581.768
 89.570    690.000    672.672     17.328    581.465    667.668    586.483    581.465    581.465
 89.670    669.000    674.806     -5.806    581.161    669.711    586.280    581.161    581.161
 89.770    628.186    678.166    -49.979    580.857    672.942    586.112    580.857    580.857
 89.870    649.000    682.239    -33.239    580.552    676.873    585.959    580.552    580.552
 89.970    726.000    686.424     39.576    580.246    680.920    585.798    580.246    580.246
 90.070    749.000    690.066     58.934    579.940    684.452    585.609    579.940    579.940
 90.170    691.000    692.526     -1.526    579.634    686.850    585.370    579.634    579.634
 90.270    680.000    693.272    -13.272    579.327    687.598    585.065    579.327    579.327
 90.370    708.000    691.983     16.017    579.019    686.386    584.682    579.019    579.019
 90.470    686.839    688.612     -1.772    578.711    683.165    584.224    578.711    578.711
 90.570    695.000    683.373     11.627    578.402    678.142    583.698    578.402    578.402
 90.670    672.000    676.670     -4.670    578.093    671.705    583.119    578.093    578.093
 90.770    680.000    668.992     11.008    577.784    664.325    582.506    577.784    577.784
 90.870    632.000    660.827    -28.827    577.474    656.473    581.878    577.474    577.474
 90.970    557.000    652.614    -95.614    577.164    648.573    581.248    577.164    577.164
 91.070    677.901    644.714     33.187    576.853    640.972    580.632    576.853    576.853
 91.170    657.194    637.404     19.789    576.542    633.939    580.038    576.542    576.542
 91.270    680.000    630.877     49.123    576.231    627.659    579.474    576.231    576.231
 91.370    625.000    625.243     -0.243    575.919    622.238    578.943    575.919    575.919
 91.470    578.938    620.545    -41.607    575.607    617.719    578.448    575.607    575.607
 91.570    596.000    616.771    -20.771    575.295    614.089    577.987    575.295    575.295
 91.670    635.969    613.872     22.097    574.982    611.302    577.560    574.982    574.982
 91.770    623.852    611.776     12.077    574.669    609.287    577.163    574.669    574.669
 91.870    594.000    610.413    -16.413    574.356    607.977    576.794    574.356    574.356
 91.970    606.000    609.719     -3.719    574.042    607.311    576.450    574.042    574.042
 92.070    562.257    609.653    -47.397    573.728    607.249    576.132    573.728    573.728
 92.170    576.000    610.204    -34.204    573.414    607.778    575.837    573.414    573.414
 92.270    634.000    611.395     22.605    573.100    608.922    575.568    573.100    573.100
 92.370    571.000    613.286    -42.286    572.785    610.737    575.327    572.785    572.785
 92.470    608.000    615.970     -7.970    572.470    613.315    575.117    572.470    572.470
 92.570    619.780    619.573      0.207    572.155    616.774    574.943    572.155    572.155
 92.670    610.000    624.242    -14.242    571.840    621.258    574.810    571.840    571.840
 92.770    580.000    630.137    -50.137    571.525    626.923    574.722    571.525    571.525
 92.870    659.000    637.421     21.579    571.210    633.922    574.686    571.210    571.210
 92.970    647.000    646.237      0.763    570.894    642.399    574.706    570.894    570.894
 93.070    665.000    656.700      8.300    570.578    652.463    574.783    570.578    570.578
 93.170    681.000    668.876     12.124    570.263    664.181    574.919    570.263    570.263
 93.270    642.000    682.768    -40.768    569.947    677.557    575.113    569.947    569.947
 93.370    645.897    698.306    -52.409    569.631    692.524    575.361    569.631    569.631
 93.470    687.000    715.332    -28.332    569.315    708.930    575.658    569.315    569.315
 93.570    734.090    733.599      0.491    568.999    726.532    575.999    568.999    568.999
 93.670    736.474    752.762    -16.289    568.683    744.993    576.379    568.683    568.683
 93.770    748.000    772.397    -24.397    568.367    763.890    576.795    568.367    568.367
 93.870    808.685    792.028     16.657    568.051    782.744    577.250    568.051    568.051
 93.970    776.322    811.204    -34.882    567.735    801.092    577.758    567.735    567.735
 94.070    842.000    829.591     12.409    567.419    818.574    578.345    567.419    567.419
 94.170    906.875    847.074     59.801    567.103    835.026    579.058    567.103    567.103
 94.270    845.000    863.783    -18.783    566.788    850.516    579.961    566.788    566.788
 94.370    859.989    880.043    -20.054    566.472    865.286    581.135    566.472    566.472
 94.470    926.000    896.246     29.754    566.157    879.644    582.665    566.157    566.157
 94.570    897.000    912.714    -15.714    565.841    893.830    584.632    565.841    565.841
 94.670    861.000    929.606    -68.606    565.526    907.938    587.102    565.526    565.526
 94.770    902.113    946.895    -44.782    565.211    921.903    590.112    565.211    565.211
 94.870    974.000    964.404      9.596    564.896    935.547    593.663    564.896    564.896
 94.970   1032.000    981.893     50.107    564.581    948.672    597.715    564.581    564.581
 95.070    940.283    999.126    -58.844    564.267    961.131    602.177    564.267    564.267
 95.170    977.812   1015.769    -37.958    563.952    972.733    606.908    563.952    563.952
 95.270   1089.848   1031.363     58.485    563.638    983.209    611.715    563.638    563.638
 95.370    990.602   1045.225    -54.622    563.325    992.117    616.360    563.325    563.325
 95.470   1036.260   1056.417    -20.157    563.011    998.791    620.570    563.011    563.011
 95.570   1083.000   1063.797     19.203    562.698   1002.382    624.055    562.698    562.698
 95.670   1082.000   1066.174     15.826    562.385   1001.977    626.532    562.385    562.385
 95.770   1036.528   1062.553    -26.025    562.073    996.809    627.776    562.073    562.073
 95.870   1113.000   1052.390     60.610    561.761    986.470    627.650    561.761    561.761
 95.970   1061.000   1035.787     25.213    561.449    971.074    626.140    561.449    561.449
 96.070   1045.000   1013.537     31.463    561.137    951.302    623.360    561.137    561.137
 96.170   1023.000    987.004     35.996    560.826    928.302    619.522    560.826    560.826
 96.270    935.565    957.901    -22.336    560.516    903.516    614.899    560.516    560.516
 96.370    926.526    928.088     -1.561    560.206    878.510    609.785    560.206    560.206
 96.470    905.000    899.414      5.586    559.896    854.853    604.460    559.896    559.896
 96.570    956.000    873.626     82.374    559.587    834.039    599.176    559.587    559.587
 96.670    865.000    852.315     12.685    559.278    817.451    594.141    559.278    559.278
 96.770    821.655    836.887    -15.231    558.970    806.335    589.516    558.970    558.970
 96.870    851.000    828.544     22.456    558.663    801.782    585.413    558.663    558.663
 96.970    802.186    828.276    -26.090    558.356    804.718    581.895    558.356    558.356
 97.070    836.677    836.850     -0.173    558.049    815.886    578.986    558.049    558.049
 97.170    859.000    854.801      4.199    557.744    835.834    576.674    557.744    557.744
 97.270    906.000    882.416     23.584    557.438    864.882    574.926    557.438    557.438
 97.370    960.000    919.703     40.297    557.134    903.089    573.691    557.134    557.134
 97.470   1015.979    966.322     49.657    556.830    950.175    572.910    556.830    556.830
 97.570   1041.000   1021.735     19.265    556.527   1005.661    572.525    556.527    556.527
 97.670   1109.000   1084.878     24.122    556.224   1068.548    572.469    556.224    556.224
 97.770   1112.522   1154.256    -41.734    555.922   1137.411    572.677    555.922    555.922
 97.870   1254.126   1227.936     26.190    555.621   1210.381    573.081    555.621    555.621
 97.970   1318.277   1303.472     14.804    555.321   1285.086    573.610    555.321    555.321
 98.070   1320.000   1377.924    -57.924    555.021   1358.660    574.189    555.021    555.021
 98.170   1404.327   1447.902    -43.574    554.723   1427.794    574.739    554.723    554.723
 98.270   1442.281   1509.707    -67.426    554.425   1488.872    575.178    554.425    554.425
 98.370   1595.697   1559.594     36.102    554.128   1538.227    575.426    554.128    554.128
 98.470   1589.000   1594.212     -5.212    553.831   1572.577    575.414    553.831    553.831
 98.570   1594.000   1611.143    -17.143    553.536   1589.554    575.091    553.536    553.536
 98.670   1677.437   1609.380     68.057    553.242   1588.171    574.436    553.242    553.242
 98.770   1634.000   1589.534     44.466    552.948   1569.026    573.460    552.948    552.948
 98.870   1562.000   1553.674      8.326    552.655   1534.146    572.204    552.655    552.655
 98.970   1404.000   1504.901   -100.901    552.364   1486.570    570.727    552.364    552.364
 99.070   1425.000   1446.850    -21.850    552.073   1429.865    569.101    552.073    552.073
 99.170   1398.114   1383.274     14.840    551.783   1367.711    567.394    551.783    551.783
 99.270   1305.000   1317.768    -12.768    551.495   1303.639    565.674    551.495    551.495
 99.370   1242.000   1253.605    -11.605    551.207   1240.862    564.001    551.207    551.207
 99.470   1131.597   1193.653    -62.056    550.921   1182.197    562.424    550.921    550.921
 99.570   1102.010   1140.346    -38.336    550.635   1130.038    560.986    550.635    550.635
 99.670   1059.000   1095.690    -36.690    550.351   1086.357    559.719    550.351    550.351
 99.770   1009.540   1061.283    -51.744    550.068   1052.734    558.645    550.068    550.068
 99.870   1013.000   1038.356    -25.356    549.786   1030.383    557.779    549.786    549.786
 99.970   1009.000   1027.792    -18.792    549.505   1020.182    557.127    549.505    549.505
100.070   1020.000   1030.150    -10.150    549.225   1022.691    556.688    549.225    549.225
100.170   1047.000   1045.677      1.323    548.947   1038.168    556.454    548.947    548.947
100.270    993.000   1074.320    -81.320    548.670   1066.571    556.411    548.670    548.670
100.370   1120.000   1115.728      4.272    548.394   1107.570    556.540    548.394    548.394
100.470   1133.518   1169.249    -35.730    548.119   1160.537    556.817    548.119    548.119
100.570   1239.000   1233.921      5.079    547.846   1224.539    557.215    547.846    547.846
100.670   1345.000   1308.454     36.546    547.574   1298.318    557.700    547.574    547.574
100.770   1379.708   1391.202    -11.494    547.304   1380.262    558.239    547.304    547.304
100.870   1540.000   1480.140     59.860    547.034   1468.387    558.792    547.034    547.034
100.970   1510.308   1572.847    -62.539    546.767   1560.311    559.319    546.767    546.767
101.070   1709.000   1666.615     42.385    546.500   1653.368    559.778    546.500    546.500
101.170   1707.664   1758.467    -50.803    546.235   1744.621    560.131    546.235    546.235
101.270   1870.060   1845.417     24.643    545.972   1831.115    560.344    545.972    545.972
101.370   1978.000   1924.732     53.268    545.710   1910.141    560.394    545.710    545.710
101.470   1963.000   1994.168    -31.168    545.450   1979.459    560.275    545.450    545.450
101.570   2029.581   2052.063    -22.483    545.191   2037.400    559.993    545.191    545.191
101.670   2149.012   2097.262     51.750    544.933   2082.784    559.572    544.933    544.933
101.770   2125.975   2128.907     -2.931    544.678   2114.720    559.046    544.678    544.678
101.870   2222.133   2146.252     75.882    544.424   2132.424    558.451    544.424    544.424
101.970   2076.000   2148.619    -72.619    544.171   2135.179    557.826    544.171    544.171
102.070   2103.553   2135.568    -32.015    543.920   2122.510    557.205    543.920    543.920
102.170   2070.000   2107.221    -37.221    543.671   2094.508    556.620    543.671    543.671
102.270   2104.752   2064.589     40.163    543.424   2052.158    556.094    543.424    543.424
102.370   2014.900   2009.715      5.185    543.178   1997.487    555.645    543.178    543.178
102.470   1937.187   1945.537     -8.350    542.934   1933.423    555.285    542.934    542.934
102.570   1819.000   1875.511    -56.511    542.692   1863.418    555.015    542.692    542.692
102.670   1875.407   1803.149     72.258    542.452   1790.990    554.830    542.452    542.452
102.770   1763.000   1731.618     31.382    542.213   1719.321    554.718    542.213    542.213
102.870   1652.000   1663.484    -11.484    541.977   1650.998    554.658    541.977    541.977
102.970   1576.000   1600.590    -24.590    541.742   1587.886    554.628    541.742    541.742
103.070   1544.000   1544.027     -0.027    541.509   1531.103    554.602    541.509    541.509
103.170   1517.891   1494.167     23.724    541.279   1481.046    554.556    541.279    541.279
103.270   1386.393   1450.716    -64.323    541.050   1437.443    554.468    541.050    541.050
103.370   1374.004   1412.797    -38.793    540.823   1399.438    554.320    540.823    540.823
103.470   1359.000   1379.062    -20.062    540.598   1365.698    554.092    540.598    540.598
103.570   1288.979   1347.845    -58.867    540.375   1334.576    553.770    540.375    540.375
103.670   1358.000   1317.379     40.621    540.154   1304.315    553.340    540.154    540.154
103.770   1191.000   1286.037    -95.037    539.936   1273.299    552.793    539.936    539.936
103.870   1215.000   1252.573    -37.573    539.719   1240.280    552.128    539.719    539.719
103.970   1124.000   1216.275    -92.275    539.505   1204.542    551.352    539.505    539.505
104.070   1150.000   1177.006    -27.006    539.293   1165.929    550.481    539.293    539.293
104.170   1116.000   1135.117    -19.117    539.083   1124.774    549.534    539.083    539.083
104.270   1103.000   1091.300     11.700    538.875   1081.741    548.537    538.875    538.875
104.370   1029.885   1046.423    -16.537    538.669   1037.675    547.515    538.669    538.669
104.470    981.000   1001.400    -20.400    538.466    993.467    546.490    538.466    538.466
104.570    939.000    957.110    -18.110    538.265    949.976    545.484    538.265    538.265
104.670    853.007    914.342    -61.335    538.066    907.973    544.513    538.066    538.066
104.770    818.511    873.769    -55.257    537.870    868.119    543.589    537.870    537.870
104.870    825.702    835.929    -10.226    537.676    830.944    542.724    537.676    537.676
104.970    831.448    801.219     30.229    537.485    796.836    541.922    537.485    537.485
105.070    827.000    769.892     57.108    537.296    766.048    541.187    537.296    537.296
105.170    760.000    742.077     17.923    537.109    738.707    540.521    537.109    537.109
105.270    742.000    717.750     24.250    536.925    714.795    539.915    536.925    536.925
105.370    744.000    696.817     47.183    536.744    694.218    539.372    536.744    536.744
105.470    700.291    679.114     21.177    536.565    676.809    538.894    536.565    536.565
105.570    704.000    664.378     39.622    536.388    662.315    538.471    536.388    536.388
105.670    633.091    652.331    -19.240    536.215    650.464    538.097    536.215    536.215
105.770    704.000    642.684     61.316    536.043    640.975    537.765    536.043    536.043
105.870    657.000    635.160     21.840    535.875    633.573    537.471    535.875    535.875
105.970    676.000    629.501     46.499    535.709    628.007    537.209    535.709    535.709
106.070    686.000    625.486     60.514    535.546    624.059    536.976    535.546    535.546
106.170    580.496    622.931    -42.435    535.386    621.548    536.769    535.386    535.386
106.270    662.165    621.692     40.473    535.228    620.335    536.584    535.228    535.228
106.370    615.000    621.667     -6.667    535.073    620.317    536.420    535.073    535.073
106.470    636.951    622.790     14.162    534.922    621.430    536.275    534.922    534.922
106.570    634.000    625.022      8.978    534.773    623.638    536.148    534.773    534.773
106.670    675.000    628.353     46.647    534.626    626.929    536.039    534.626    534.626
106.770    613.000    632.784    -19.784    534.483    631.306    535.947    534.483    534.483
106.870    616.000    638.328    -22.328    534.343    636.780    535.873    534.343    534.343
106.970    607.861    644.994    -37.133    534.206    643.363    535.816    534.206    534.206
107.070    637.000    652.786    -15.786    534.072    651.057    535.776    534.072    534.072
107.170    654.000    661.687     -7.687    533.940    659.847    535.753    533.940    533.940
107.270    682.992    671.655     11.337    533.812    669.690    535.747    533.812    533.812
107.370    683.000    682.612      0.388    533.687    680.510    535.755    533.687    533.687
107.470    736.000    694.438     41.562    533.565    692.189    535.777    533.565    533.565
107.570    735.000    706.968     28.032    533.447    704.563    535.810    533.447    533.447
107.670    707.258    719.986    -12.727    533.331    717.421    535.851    533.331    533.331
107.770    681.328    733.229    -51.901    533.219    730.503    535.897    533.219    533.219
107.870    775.000    746.391     28.609    533.110    743.508    535.943    533.110    533.110
107.970    726.000    759.125    -33.125    533.004    756.093    535.984    533.004    533.004
108.070    812.000    771.060     40.940    532.902    767.894    536.015    532.902    532.902
108.170    752.825    781.822    -28.997    532.803    778.541    536.031    532.803    532.803
108.270    743.000    791.061    -48.061    532.707    787.690    536.025    532.707    532.707
108.370    803.000    798.497      4.503    532.615    795.066    535.995    532.615    532.615
108.470    857.000    803.961     53.039    532.526    800.501    535.937    532.526    532.526
108.570    743.000    807.429    -64.429    532.440    803.974    535.851    532.440    532.440
108.670    805.000    809.035     -4.035    532.358    805.616    535.737    532.358    532.358
108.770    798.000    809.054    -11.054    532.280    805.700    535.598    532.280    532.280
108.870    835.000    807.862     27.138    532.205    804.596    535.440    532.205    532.205
108.970    783.000    805.887    -22.887    532.134    802.727    535.268    532.134    532.134
109.070    800.000    803.559     -3.559    532.067    800.517    535.087    532.067    532.067
109.170    814.000    801.268     12.732    532.003    798.351    534.903    532.003    532.003
109.270    760.000    799.337    -39.337    531.942    796.546    534.720    531.942    531.942
109.370    816.867    798.004     18.863    531.886    795.337    534.544    531.886    531.886
109.470    746.000    797.412    -51.412    531.833    794.863    534.378    531.833    531.833
109.570    821.758    797.600     24.158    531.784    795.161    534.223    531.784    531.784
109.670    725.000    798.509    -73.509    531.739    796.170    534.081    531.739    531.739
109.770    753.141    799.976    -46.835    531.698    797.727    533.954    531.698    531.698
109.870    827.223    801.747     25.476    531.661    799.578    533.839    531.661    531.661
109.970    818.727    803.488     15.239    531.627    801.391    533.738    531.627    531.627
110.070    755.976    804.809    -48.833    531.598    802.776    533.647    531.598    531.598
110.170    809.000    805.297      3.703    531.572    803.324    533.564    531.572    531.572
110.270    815.000    804.559     10.441    531.551    802.644    533.488    531.551    531.551
110.370    787.000    802.271    -15.271    531.534    800.413    533.416    531.534    531.534
110.470    751.416    798.222    -46.806    531.520    796.423    533.346    531.520    531.520
110.570    833.753    792.338     41.415    531.511    790.600    533.276    531.511    531.511
110.670    777.000    784.677     -7.677    531.506    783.015    533.196    531.506    531.506
110.770    793.000    775.458     17.542    531.505    773.865    533.127    531.505    531.505
110.870    727.496    764.957    -37.461    531.509    763.431    533.063    531.509    531.509
110.970    793.872    753.498     40.374    531.516    752.040    533.002    531.516    531.516
111.070    754.000    741.426     12.574    531.528    740.034    532.946    531.528    531.528
111.170    676.321    729.072    -52.751    531.545    727.746    532.895    531.545    531.545
111.270    729.000    716.745     12.255    531.565    715.481    532.851    531.565    531.565
111.370    677.781    704.714    -26.933    531.590    703.510    532.815    531.590    531.590
111.470    706.000    693.213     12.787    531.620    692.064    532.787    531.620    531.620
111.570    653.193    682.430    -29.237    531.654    681.331    532.769    531.654    531.654
111.670    657.161    672.512    -15.351    531.692    671.457    532.760    531.692    531.692
111.770    691.648    663.557     28.091    531.735    662.541    532.762    531.735    531.735
111.870    634.000    655.649    -21.649    531.783    654.665    532.775    531.783    531.783
111.970    646.000    648.813     -2.813    531.835    647.856    532.798    531.835    531.835
112.070    658.000    643.046     14.954    531.892    642.109    532.833    531.892    531.892
112.170    592.988    638.318    -45.331    531.953    637.396    532.877    531.953    531.953
112.270    595.294    634.581    -39.286    532.020    633.668    532.932    532.020    532.020
112.370    613.634    631.766    -18.132    532.091    630.859    532.996    532.091    532.091
112.470    625.000    629.797     -4.797    532.166    628.890    533.070    532.166    532.166
112.570    600.423    628.590    -28.167    532.247    627.681    533.151    532.247    532.247
112.670    656.000    628.060     27.940    532.332    627.146    533.241    532.332    532.332
112.770    642.000    628.125     13.875    532.423    627.202    533.338    532.423    532.423
112.870    588.847    628.707    -39.859    532.518    627.775    533.442    532.518    532.518
112.970    638.000    629.736      8.264    532.618    628.794    533.551    532.618    532.618
113.070    656.335    631.153     25.182    532.723    630.200    533.667    532.723    532.723
113.170    620.000    632.913    -12.913    532.834    631.948    533.788    532.834    532.834
113.270    642.000    634.980      7.020    532.949    634.005    533.914    532.949    532.949
113.370    638.000    637.338      0.662    533.069    636.351    534.045    533.069    533.069
113.470    606.000    639.985    -33.985    533.195    638.986    534.182    533.195    533.195
113.570    623.064    642.934    -19.870    533.326    641.922    534.326    533.326    533.326
113.670    596.000    646.217    -50.217    533.462    645.191    534.475    533.462    533.462
113.770    621.000    649.884    -28.884    533.603    648.841    534.633    533.603    533.603
113.870    630.297    654.006    -23.708    533.750    652.943    534.798    533.750    533.750
113.970    618.000    658.678    -40.678    533.902    657.591    534.974    533.902    533.902
114.070    629.000    664.023    -35.023    534.059    662.906    535.160    534.059    534.059
114.170    702.000    670.201     31.799    534.222    669.047    535.359    534.222    534.222
114.270    672.000    677.417     -5.417    534.390    676.217    535.572    534.390    534.390
114.370    705.000    685.931     19.069    534.563    684.673    535.800    534.563    534.563
114.470    651.763    696.069    -44.306    534.743    694.741    536.047    534.743    534.743
114.570    709.000    708.240      0.760    534.927    706.826    536.314    534.927    534.927
114.670    700.000    722.951    -22.951    535.118    721.433    536.604    535.118    535.118
114.770    782.851    740.822     42.030    535.314    739.179    536.919    535.314    535.314
114.870    719.807    762.605    -42.798    535.515    760.813    537.263    535.515    535.515
114.970    737.000    789.200    -52.200    535.723    787.231    537.638    535.723    535.723
115.070    833.000    821.672     11.328    535.936    819.495    538.048    535.936    535.936
115.170    886.000    861.256     24.744    536.155    858.837    538.496    536.155    536.155
115.270    866.000    909.372    -43.372    536.380    906.671    538.986    536.380    536.380
115.370   1013.000    967.616     45.384    536.610    964.591    539.522    536.610    536.610
115.470   1024.000   1037.751    -13.751    536.847   1034.357    540.106    536.847    536.847
115.570   1206.000   1121.688     84.312    537.090   1117.874    540.742    537.090    537.090
115.670   1202.000   1221.443    -19.443    537.338   1217.157    541.434    537.338    537.338
115.770   1400.000   1339.094     60.906    537.593   1334.281    542.182    537.593    537.593
115.870   1451.844   1476.704    -24.861    537.854   1471.308    542.990    537.854    537.854
115.970   1599.000   1636.245    -37.245    538.120   1630.207    543.859    538.120    538.120
116.070   1790.000   1819.495    -29.495    538.393   1812.757    544.788    538.393    538.393
116.170   2105.000   2027.929     77.071    538.672   2020.435    545.777    538.672    538.672
116.270   2340.000   2262.604     77.396    538.958   2254.301    546.823    538.958    538.958
116.370   2511.571   2524.032    -12.461    539.250   2514.872    547.923    539.250    539.250
116.470   2969.000   2812.063    156.937    539.548   2802.003    549.071    539.548    539.548
116.570   3253.000   3125.772    127.228    539.852   3114.780    550.260    539.852    539.852
116.670   3434.000   3463.368    -29.368    540.163   3451.421    551.482    540.163    540.163
116.770   3736.000   3822.119    -86.119    540.480   3809.205    552.726    540.480    540.480
116.870   4066.664   4198.305   -131.640    540.804   4184.426    553.981    540.804    540.804
116.970   4701.425   4587.203    114.222    541.134   4572.374    555.235    541.134    541.134
117.070   4987.806   4983.084      4.722    541.471   4967.334    556.477    541.471    541.471
117.170   5322.000   5379.317    -57.317    541.814   5362.687    557.695    541.814    541.814
117.270   5819.000   5768.459     50.541    542.164   5751.002    558.878    542.164    542.164
117.370   6136.000   6142.263     -6.263    542.521   6124.046    560.016    542.521    542.521
117.470   6626.939   6491.974    134.966    542.884   6473.076    561.096    542.884    542.884
117.570   6732.664   6808.551    -75.887    543.254   6789.062    562.107    543.254    543.254
117.670   7160.000   7083.017     76.983    543.632   7063.040    563.038    543.632    543.632
117.770   7258.997   7306.908    -47.911    544.015   7286.553    563.877    544.015    544.015
117.870   7455.661   7472.814    -17.153    544.406   7452.202    564.614    544.406    544.406
117.970   7425.785   7574.970   -149.185    544.804   7554.225    565.242    544.804    544.804
118.070   7620.000   7609.786     10.214    545.209   7589.036    565.754    545.209    545.209
118.170   7714.000   7576.217    137.783    545.621   7555.586    566.148    545.621    545.621
118.270   7553.261   7475.871     77.390    546.040   7455.478    566.427    546.040    546.040
118.370   7210.000   7312.832   -102.832    546.466   7292.788    566.595    546.466    546.466
118.470   7048.000   7093.242    -45.242    546.899   7073.647    566.660    546.899    546.899
118.570   6874.681   6824.739     49.941    547.339   6805.682    566.631    547.339    547.339
118.670   6460.381   6515.874    -55.493    547.787   6497.433    566.519    547.787    547.787
118.770   6240.204   6175.578     64.625    548.242   6157.818    566.336    548.242    548.242
118.870   5910.973   5812.739     98.234    548.704   5795.714    566.093    548.704    548.704
118.970   5303.000   5435.873   -132.873    549.174   5419.626    565.803    549.174    549.174
119.070   4976.045   5052.892    -76.847    549.651   5037.454    565.477    549.651    549.651
119.170   4642.000   4670.935    -28.935    550.135   4656.327    565.128    550.135    550.135
119.270   4202.000   4296.257    -94.257    550.627   4282.486    564.770    550.627    550.627
119.370   3985.325   3934.153     51.172    551.127   3921.218    564.414    551.127    551.127
119.470   3508.656   3588.929    -80.273    551.634   3576.817    564.073    551.634    551.634
119.570   3352.062   3263.898     88.164    552.149   3252.587    563.758    552.149    552.149
119.670   2867.828   2961.424    -93.596    552.671   2950.883    563.478    552.671    552.671
119.770   2698.000   2682.987     15.013    553.202   2673.177    563.243    553.202    553.202
119.870   2467.000   2429.271     37.729    553.740   2420.148    563.061    553.740    553.740
119.970   2160.000   2200.278    -40.278    554.286   2191.792    562.938    554.286    554.286
120.070   2056.663   1995.437     61.226    554.839   1987.534    562.879    554.839    554.839
120.170   1858.000   1813.727     44.273    555.401   1806.349    562.887    555.401    555.401
120.270   1631.000   1653.784    -22.784    555.971   1646.870    562.967    555.971    555.971
120.370   1549.000   1514.002     34.998    556.548   1507.491    563.120    556.548    556.548
120.470   1422.000   1392.632     29.368    557.134   1386.460    563.349    557.134    557.134
120.570   1269.955   1287.856    -17.901    557.728   1281.958    563.653    557.728    557.728
120.670   1252.585   1197.859     54.727    558.330   1192.168    564.034    558.330    558.330
120.770   1135.438   1120.882     14.555    558.940   1115.334    564.493    558.940    558.940
120.870   1122.000   1055.270     66.730    559.558   1049.796    565.029    559.558    559.558
120.970   1071.000    999.494     71.506    560.185    994.027    565.644    560.185    560.185
121.070    895.975    952.177    -56.202    560.820    946.648    566.337    560.820    560.820
121.170    919.000    912.096      6.904    561.464    906.436    567.109    561.464    561.464
121.270    930.000    878.186     51.814    562.115    872.324    567.962    562.115    562.115
121.370    889.066    849.531     39.536    562.776    843.394    568.897    562.776    562.776
121.470    790.128    825.353    -35.225    563.444    818.869    569.915    563.444    563.444
121.570    795.000    805.001    -10.001    564.122    798.092    571.019    564.122    564.122
121.670    796.000    787.930      8.070    564.808    780.518    572.209    564.808    564.808
121.770    727.020    773.692    -46.672    565.503    765.696    573.489    565.503    565.503
121.870    763.000    761.916      1.084    566.206    753.253    574.861    566.206    566.206
121.970    729.542    752.296    -22.754    566.918    742.883    576.326    566.918    566.918
122.070    771.804    744.583     27.221    567.639    734.332    577.887    567.639    567.639
122.170    744.176    738.567      5.609    568.369    727.390    579.544    568.369    568.369
122.270    690.522    734.074    -43.553    569.107    721.882    581.300    569.107    569.107
122.370    722.000    730.955     -8.955    569.855    717.659    583.153    569.855    569.855
122.470    733.000    729.080      3.920    570.612    714.590    585.105    570.612    570.612
122.570    707.000    728.335    -21.335    571.377    712.564    587.154    571.377    571.377
122.670    659.000    728.615    -69.615    572.152    711.477    589.297    572.152    572.152
122.770    720.717    729.820     -9.103    572.936    711.234    591.531    572.936    572.936
122.870    728.000    731.856     -3.856    573.729    711.745    593.851    573.729    573.729
122.970    777.010    734.626     42.384    574.532    712.922    596.250    574.532    574.532
123.070    728.921    738.034     -9.112    575.343    714.677    598.716    575.343    575.343
123.170    691.000    741.978    -50.978    576.164    716.922    601.238    576.164    576.164
123.270    799.278    746.353     52.925    576.995    719.568    603.800    576.995    576.995
123.370    756.000    751.048      4.952    577.835    722.523    606.383    577.835    577.835
123.470    699.000    755.946    -56.946    578.684    725.690    608.966    578.684    578.684
123.570    703.000    760.923    -57.923    579.543    728.972    611.524    579.543    579.543
123.670    734.323    765.851    -31.528    580.411    732.266    614.029    580.411    580.411
123.770    762.000    770.596     -8.596    581.289    735.469    616.453    581.289    581.289
123.870    767.000    775.022     -8.022    582.177    738.475    618.764    582.177    582.177
123.970    734.012    778.993    -44.982    583.075    741.179    620.931    583.075    583.075
124.070    787.000    782.377      4.623    583.982    743.483    622.922    583.982    583.982
124.170    785.000    785.051     -0.051    584.899    745.290    624.708    584.899    584.899
124.270    849.000    786.906     62.094    585.826    746.521    626.263    585.826    585.826
124.370    844.000    787.857     56.143    586.763    747.108    627.566    586.763    586.763
124.470    876.000    787.842     88.158    587.710    747.006    628.603    587.710    587.710
124.570    819.000    786.835     32.165    588.668    746.192    629.368    588.668    588.668
124.670    865.000    784.836     80.164    589.635    744.666    629.864    589.635    589.635
124.770    727.947    781.863    -53.916    590.612    742.435    630.100    590.612    590.612
124.870    827.000    778.004     48.996    591.600    739.567    630.096    591.600    591.600
124.970    762.767    773.369    -10.602    592.597    736.148    629.878    592.597    592.597
