neutron_powder_diffraction_0229
R_wp: 4.023
Temperature (K): 1070.300
Counts: 83992.00
Wavelength (Ã…): 2.52098
COMMENTS
Test file for demonstrating the .xyy file format in Reel1.0
END OF HEADER
   tth       Y_obs     Y_calc      Y_res    Background    Phase_1_Nuc    Phase_1_Mag    Phase_2_Nuc    Phase_2_Mag
  9.970    591.000    571.593     19.407    570.903    571.568    570.903    570.928    570.903
 10.070    587.000    571.704     15.296    570.952    571.675    570.952    570.981    570.952
 10.170    597.226    571.814     25.412    570.997    571.785    570.997    571.026    570.997
 10.270    593.000    571.929     21.071    571.036    571.900    571.036    571.065    571.036
 10.370    594.000    572.052     21.948    571.069    572.022    571.069    571.099    571.069
 10.470    602.825    572.185     30.641    571.098    572.155    571.098    571.128    571.098
 10.570    557.148    572.331    -15.183    571.122    572.301    571.122    571.152    571.122
 10.670    563.000    572.496     -9.496    571.141    572.466    571.141    571.170    571.141
 10.770    606.054    572.687     33.367    571.155    572.656    571.155    571.185    571.155
 10.870    620.000    572.912     47.088    571.164    572.881    571.164    571.194    571.164
 10.970    587.349    573.184     14.165    571.168    573.153    571.168    571.198    571.168
 11.070    543.589    573.521    -29.931    571.167    573.489    571.167    571.198    571.167
 11.170    549.078    573.948    -24.869    571.162    573.916    571.162    571.192    571.162
 11.270    544.944    574.506    -29.562    571.152    574.473    571.152    571.183    571.152
 11.370    602.000    575.265     26.735    571.137    575.232    571.137    571.168    571.137
 11.470    547.421    576.381    -28.960    571.118    576.346    571.118    571.150    571.118
 11.570    588.000    578.275      9.725    571.094    578.238    571.094    571.127    571.094
 11.670    619.000    582.091     36.909    571.066    582.051    571.066    571.099    571.066
 11.770    615.000    590.356     24.644    571.033    590.311    571.033    571.067    571.033
 11.870    618.739    606.944     11.795    570.996    606.890    570.996    571.030    570.996
 11.970    641.917    634.649      7.268    570.955    634.580    570.955    570.989    570.955
 12.070    687.000    669.779     17.221    570.909    669.690    570.909    570.943    570.909
 12.170    674.000    697.270    -23.270    570.859    697.166    570.859    570.893    570.859
 12.270    746.545    698.280     48.264    570.805    698.175    570.805    570.839    570.805
 12.370    603.000    671.865    -68.865    570.746    671.773    570.746    570.782    570.746
 12.470    600.000    636.478    -36.478    570.684    636.394    570.684    570.731    570.684
 12.570    610.000    607.953      2.047    570.617    607.883    570.617    570.666    570.617
 12.670    607.000    590.608     16.392    570.546    590.547    570.546    570.596    570.546
 12.770    573.629    581.853     -8.224    570.472    581.796    570.472    570.522    570.472
 12.870    593.000    577.759     15.241    570.393    577.704    570.393    570.444    570.393
 12.970    537.000    575.693    -38.693    570.310    575.639    570.310    570.362    570.310
 13.070    549.000    574.445    -25.445    570.224    574.391    570.224    570.276    570.224
 13.170    573.000    573.568     -0.568    570.134    573.514    570.134    570.186    570.134
 13.270    555.000    572.899    -17.899    570.039    572.845    570.039    570.092    570.039
 13.370    569.000    572.370     -3.370    569.942    572.310    569.942    570.000    569.942
 13.470    530.300    571.930    -41.630    569.840    571.869    569.840    569.900    569.840
 13.570    534.145    571.556    -37.411    569.735    571.495    569.735    569.795    569.735
 13.670    533.000    571.231    -38.231    569.626    571.169    569.626    569.687    569.626
 13.770    593.076    570.942     22.134    569.514    570.880    569.514    569.575    569.514
 13.870    542.000    570.680    -28.680    569.398    570.618    569.398    569.459    569.398
 13.970    595.000    570.439     24.561    569.279    570.377    569.279    569.340    569.279
 14.070    554.903    570.214    -15.311    569.156    570.152    569.156    569.218    569.156
 14.170    542.276    570.001    -27.725    569.030    569.938    569.030    569.092    569.030
 14.270    537.000    569.797    -32.797    568.900    569.734    568.900    568.963    568.900
 14.370    547.591    569.600    -22.009    568.767    569.536    568.767    568.830    568.767
 14.470    536.000    569.411    -33.411    568.631    569.347    568.631    568.694    568.631
 14.570    566.413    569.224     -2.811    568.491    569.160    568.491    568.555    568.491
 14.670    586.743    569.039     17.704    568.349    568.975    568.349    568.413    568.349
 14.770    542.000    568.856    -26.856    568.203    568.791    568.203    568.267    568.203
 14.870    565.000    568.674     -3.674    568.054    568.609    568.054    568.119    568.054
 14.970    605.000    568.493     36.507    567.902    568.427    567.902    567.967    567.902
 15.070    542.097    568.312    -26.214    567.747    568.246    567.747    567.812    567.747
 15.170    548.000    568.130    -20.130    567.589    568.064    567.589    567.655    567.589
 15.270    606.000    567.949     38.051    567.428    567.882    567.428    567.494    567.428
 15.370    533.000    567.766    -34.766    567.264    567.699    567.264    567.331    567.264
 15.470    540.863    567.583    -26.719    567.097    567.516    567.097    567.164    567.097
 15.570    599.978    567.398     32.580    566.927    567.331    566.927    566.995    566.927
 15.670    553.490    567.214    -13.724    566.755    567.145    566.755    566.823    566.755
 15.770    577.000    567.031      9.969    566.579    566.959    566.579    566.651    566.579
 15.870    560.000    566.843     -6.843    566.401    566.770    566.401    566.474    566.401
 15.970    567.000    566.653      0.347    566.221    566.579    566.221    566.295    566.221
 16.070    613.000    566.461     46.539    566.037    566.387    566.037    566.112    566.037
 16.170    521.000    566.268    -45.268    565.851    566.192    565.851    565.927    565.851
 16.270    582.420    566.073     16.348    565.663    565.996    565.663    565.739    565.663
 16.370    550.574    565.875    -15.301    565.471    565.798    565.471    565.548    565.471
 16.470    546.702    565.676    -18.974    565.278    565.599    565.278    565.355    565.278
 16.570    520.000    565.475    -45.475    565.082    565.397    565.082    565.159    565.082
 16.670    530.000    565.272    -35.272    564.883    565.194    564.883    564.961    564.883
 16.770    586.784    565.067     21.716    564.682    564.988    564.682    564.761    564.682
 16.870    541.000    564.860    -23.860    564.479    564.781    564.479    564.558    564.479
 16.970    591.000    564.652     26.348    564.273    564.572    564.273    564.353    564.273
 17.070    573.000    564.442      8.558    564.065    564.361    564.065    564.145    564.065
 17.170    574.000    564.232      9.768    563.855    564.151    563.855    563.935    563.855
 17.270    564.000    564.018     -0.018    563.642    563.937    563.642    563.723    563.642
 17.370    560.000    563.803     -3.803    563.427    563.721    563.427    563.509    563.427
 17.470    506.000    563.585    -57.585    563.210    563.503    563.210    563.293    563.210
 17.570    523.521    563.366    -39.844    562.991    563.282    562.991    563.074    562.991
 17.670    562.000    563.144     -1.144    562.770    563.061    562.770    562.854    562.770
 17.770    559.000    562.922     -3.922    562.547    562.837    562.547    562.631    562.547
 17.870    530.000    562.697    -32.697    562.322    562.612    562.322    562.407    562.322
 17.970    539.006    562.471    -23.465    562.095    562.385    562.095    562.181    562.095
 18.070    540.000    562.244    -22.244    561.866    562.156    561.866    561.953    561.866
 18.170    558.000    562.015     -4.015    561.635    561.926    561.635    561.723    561.635
 18.270    577.752    561.784     15.969    561.402    561.694    561.402    561.491    561.402
 18.370    579.000    561.551     17.449    561.167    561.461    561.167    561.257    561.167
 18.470    519.000    561.316    -42.316    560.930    561.226    560.930    561.021    560.930
 18.570    527.000    561.081    -34.081    560.692    560.990    560.692    560.783    560.692
 18.670    566.000    560.845      5.155    560.451    560.753    560.451    560.543    560.451
 18.770    575.000    560.607     14.393    560.209    560.514    560.209    560.302    560.209
 18.870    513.000    560.366    -47.366    559.966    560.273    559.966    560.059    559.966
 18.970    567.237    560.125      7.112    559.721    560.031    559.721    559.815    559.721
 19.070    570.419    559.882     10.537    559.474    559.787    559.474    559.569    559.474
 19.170    559.026    559.638     -0.612    559.225    559.542    559.225    559.321    559.225
 19.270    575.000    559.392     15.608    558.975    559.296    558.975    559.072    558.975
 19.370    590.632    559.146     31.486    558.723    559.048    558.723    558.821    558.723
 19.470    523.869    558.898    -35.029    558.470    558.800    558.470    558.568    558.470
 19.570    566.248    558.649      7.599    558.216    558.550    558.216    558.315    558.216
 19.670    569.000    558.401     10.599    557.959    558.301    557.959    558.059    557.959
 19.770    515.000    558.163    -43.163    557.702    558.062    557.702    557.803    557.702
 19.870    518.000    557.926    -39.926    557.443    557.819    557.443    557.550    557.443
 19.970    549.000    557.676     -8.676    557.183    557.566    557.183    557.293    557.183
 20.070    537.000    557.422    -20.422    556.921    557.311    556.921    557.032    556.921
 20.170    563.000    557.168      5.832    556.658    557.056    556.658    556.770    556.658
 20.270    539.000    556.912    -17.912    556.394    556.799    556.394    556.507    556.394
 20.370    515.000    556.656    -41.656    556.129    556.542    556.129    556.243    556.129
 20.470    512.000    556.399    -44.399    555.862    556.284    555.862    555.977    555.862
 20.570    530.000    556.142    -26.142    555.594    556.026    555.594    555.711    555.594
 20.670    559.000    555.884      3.116    555.325    555.766    555.325    555.443    555.325
 20.770    566.000    555.625     10.375    555.055    555.507    555.055    555.174    555.055
 20.870    581.465    555.367     26.098    554.784    555.247    554.784    554.904    554.784
 20.970    514.000    555.108    -41.108    554.512    554.987    554.512    554.633    554.512
 21.070    514.608    554.848    -40.241    554.239    554.726    554.239    554.361    554.239
 21.170    564.000    554.589      9.411    553.964    554.466    553.964    554.088    553.964
 21.270    596.000    554.330     41.670    553.689    554.205    553.689    553.814    553.689
 21.370    558.000    554.071      3.929    553.413    553.945    553.413    553.539    553.413
 21.470    547.000    553.812     -6.812    553.136    553.684    553.136    553.263    553.136
 21.570    593.000    553.553     39.447    552.858    553.424    552.858    552.987    552.858
 21.670    509.336    553.296    -43.960    552.579    553.165    552.579    552.709    552.579
 21.770    566.000    553.039     12.961    552.299    552.907    552.299    552.431    552.299
 21.870    573.795    552.783     21.012    552.018    552.649    552.018    552.152    552.018
 21.970    583.918    552.528     31.390    551.737    552.393    551.737    551.872    551.737
 22.070    539.000    552.276    -13.276    551.454    552.139    551.454    551.591    551.454
 22.170    539.000    552.026    -13.026    551.172    551.888    551.172    551.310    551.172
 22.270    582.000    551.782     30.218    550.888    551.641    550.888    551.028    550.888
 22.370    511.030    551.536    -40.506    550.603    551.394    550.603    550.746    550.603
 22.470    543.919    551.294     -7.375    550.318    551.150    550.318    550.463    550.318
 22.570    558.583    551.062      7.521    550.033    550.916    550.033    550.179    550.033
 22.670    600.000    550.899     49.101    549.746    550.751    549.746    549.895    549.746
 22.770    531.105    550.793    -19.688    549.460    550.643    549.460    549.610    549.460
 22.870    571.000    550.602     20.398    549.172    550.450    549.172    549.325    549.172
 22.970    527.225    550.394    -23.170    548.884    550.240    548.884    549.039    548.884
 23.070    561.000    550.196     10.804    548.596    550.039    548.596    548.753    548.596
 23.170    514.000    550.013    -36.013    548.307    549.853    548.307    548.466    548.307
 23.270    560.000    549.849     10.151    548.017    549.687    548.017    548.180    548.017
 23.370    507.601    549.706    -42.105    547.727    549.541    547.727    547.892    547.727
 23.470    553.000    549.591      3.409    547.437    549.424    547.437    547.605    547.437
 23.570    549.526    549.515      0.011    547.146    549.345    547.146    547.317    547.146
 23.670    561.922    549.493     12.429    546.855    549.318    546.855    547.031    546.855
 23.770    525.347    549.541    -24.194    546.563    549.362    546.563    546.744    546.563
 23.870    548.000    549.691     -1.691    546.272    549.508    546.272    546.456    546.272
 23.970    524.085    550.000    -25.915    545.979    549.814    545.979    546.167    545.979
 24.070    584.539    550.605     33.935    545.687    550.416    545.687    545.878    545.687
 24.170    554.000    551.877      2.123    545.394    551.686    545.394    545.589    545.394
 24.270    584.791    554.761     30.030    545.101    554.568    545.101    545.301    545.101
 24.370    589.000    561.131     27.869    544.808    560.938    544.808    545.012    544.808
 24.470    576.000    573.450      2.550    544.515    573.262    544.515    544.723    544.515
 24.570    583.972    592.798     -8.826    544.222    592.619    544.222    544.434    544.222
 24.670    614.000    615.406     -1.406    543.928    615.239    543.928    544.145    543.928
 24.770    564.000    630.397    -66.397    543.634    630.236    543.634    543.857    543.634
 24.870    648.000    626.960     21.040    543.340    626.791    543.340    543.568    543.340
 24.970    573.631    607.835    -34.204    543.046    607.647    543.046    543.280    543.046
 25.070    593.704    585.068      8.636    542.752    584.857    542.752    542.993    542.752
 25.170    531.000    567.314    -36.314    542.458    567.084    542.458    542.705    542.458
 25.270    574.000    556.515     17.485    542.164    556.271    542.164    542.418    542.164
 25.370    536.536    550.912    -14.377    541.870    550.656    541.870    542.132    541.870
 25.470    570.000    548.158     21.842    541.576    547.892    541.576    541.845    541.576
 25.570    551.000    546.675      4.325    541.282    546.399    541.282    541.560    541.282
 25.670    587.051    545.709     41.341    540.988    545.424    540.988    541.275    540.988
 25.770    571.578    544.992     26.586    540.694    544.697    540.694    540.991    540.694
 25.870    546.030    544.426      1.604    540.400    544.119    540.400    540.708    540.400
 25.970    556.000    543.957     12.043    540.106    543.639    540.106    540.426    540.106
 26.070    547.000    543.563      3.437    539.813    543.232    539.813    540.144    539.813
 26.170    563.000    543.232     19.768    539.520    542.887    539.520    539.864    539.520
 26.270    543.657    542.954      0.703    539.226    542.595    539.226    539.585    539.226
 26.370    568.000    542.725     25.275    538.933    542.350    538.933    539.308    538.933
 26.470    533.000    542.547     -9.547    538.641    542.155    538.641    539.033    538.641
 26.570    537.000    542.443     -5.443    538.348    542.032    538.348    538.759    538.348
 26.670    501.605    542.387    -40.782    538.056    541.956    538.056    538.487    538.056
 26.770    573.000    542.373     30.627    537.764    541.919    537.764    538.218    537.764
 26.870    563.000    542.440     20.560    537.472    541.961    537.472    537.951    537.472
 26.970    594.000    542.582     51.418    537.180    542.075    537.180    537.687    537.180
 27.070    509.000    542.826    -33.826    536.889    542.288    536.889    537.427    536.889
 27.170    562.000    543.211     18.789    536.599    542.638    536.599    537.170    536.599
 27.270    599.000    543.797     55.203    536.308    543.185    536.308    536.918    536.308
 27.370    506.795    544.662    -37.866    536.018    544.007    536.018    536.672    536.018
 27.470    567.000    545.906     21.094    535.729    545.201    535.729    536.432    535.729
 27.570    560.000    547.896     12.104    535.439    547.134    535.439    536.198    535.439
 27.670    559.000    551.891      7.109    535.151    551.064    535.151    535.974    535.151
 27.770    638.000    562.340     75.660    534.862    561.435    534.862    535.760    534.862
 27.870    580.000    591.013    -11.013    534.574    590.013    534.574    535.558    534.574
 27.970    633.288    657.043    -23.755    534.287    655.920    534.287    535.372    534.287
 28.070    709.000    769.938    -60.938    534.000    768.663    534.000    535.204    534.000
 28.170    930.000    897.891     32.109    533.714    896.445    533.714    535.060    533.714
 28.270    902.762    961.602    -58.841    533.428    959.987    533.428    534.945    533.428
 28.370    865.991    908.204    -42.213    533.143    906.417    533.143    534.869    533.143
 28.470    800.000    792.527      7.473    532.858    790.518    532.858    534.843    532.858
 28.570    744.899    703.038     41.861    532.574    700.715    532.574    534.887    532.574
 28.670    677.000    684.770     -7.770    532.290    682.014    532.290    535.032    532.290
 28.770    718.000    732.060    -14.060    532.007    728.709    532.007    535.339    532.007
 28.870    802.180    803.498     -1.318    531.725    799.291    531.725    535.919    531.725
 28.970    752.000    837.921    -85.921    531.443    832.401    531.443    536.966    531.443
 29.070    751.000    799.073    -48.073    531.162    791.470    531.162    538.777    531.162
 29.170    685.000    718.773    -33.773    530.882    707.934    530.882    541.733    530.882
 29.270    632.000    646.174    -14.174    530.602    630.593    530.602    546.190    530.602
 29.370    590.000    603.200    -13.200    530.323    581.268    530.323    552.257    530.323
 29.470    628.799    586.388     42.410    530.045    557.023    530.045    559.409    530.045
 29.570    635.000    582.936     52.064    529.768    546.785    529.768    565.916    529.768
 29.670    613.000    581.698     31.302    529.491    542.335    529.491    568.850    529.491
 29.770    561.291    577.068    -15.777    529.215    539.955    529.215    566.325    529.215
 29.870    534.078    569.210    -35.131    528.940    538.404    528.940    559.743    528.940
 29.970    568.000    560.672      7.328    528.665    537.314    528.665    552.020    528.665
 30.070    592.059    553.315     38.744    528.392    536.569    528.392    545.136    528.392
 30.170    529.000    547.840    -18.840    528.119    536.147    528.119    539.810    528.119
 30.270    580.000    544.338     35.662    527.847    536.153    527.847    536.029    527.847
 30.370    521.000    542.908    -21.908    527.576    537.013    527.576    533.467    527.576
 30.470    512.188    544.317    -32.129    527.305    539.875    527.305    531.741    527.305
 30.570    618.000    550.423     67.577    527.036    546.914    527.036    530.533    527.036
 30.670    597.000    563.458     33.542    526.767    560.572    526.767    529.631    526.767
 30.770    603.140    583.321     19.819    526.500    580.876    526.500    528.908    526.500
 30.870    648.000    604.095     43.905    526.233    601.980    526.233    528.297    526.233
 30.970    607.000    613.696     -6.696    525.967    611.847    525.967    527.762    525.967
 31.070    610.000    604.052      5.948    525.702    602.429    525.702    527.281    525.702
 31.170    571.117    582.487    -11.370    525.438    581.056    525.438    526.841    525.438
 31.270    548.000    561.098    -13.098    525.175    559.826    525.175    526.432    525.175
 31.370    511.000    546.149    -35.149    524.913    545.007    524.913    526.048    524.913
 31.470    506.000    537.900    -31.900    524.652    536.864    524.652    525.684    524.652
 31.570    524.000    533.974     -9.974    524.392    533.026    524.392    525.337    524.392
 31.670    551.021    532.130     18.891    524.133    531.259    524.133    525.003    524.133
 31.770    533.000    531.137      1.863    523.875    530.330    523.875    524.680    523.875
 31.870    534.000    530.500      3.500    523.618    529.749    523.618    524.367    523.618
 31.970    538.126    530.053      8.073    523.362    529.351    523.362    524.062    523.362
 32.070    601.000    529.738     71.262    523.107    529.080    523.107    523.764    523.107
 32.170    535.760    529.535      6.225    522.853    528.915    522.853    523.473    522.853
 32.270    536.000    529.437      6.563    522.600    528.850    522.600    523.186    522.600
 32.370    527.000    529.442     -2.442    522.348    528.885    522.348    522.905    522.348
 32.470    565.289    529.560     35.729    522.098    529.029    522.098    522.628    522.098
 32.570    557.805    529.805     28.000    521.848    529.298    521.848    522.354    521.848
 32.670    527.000    530.203     -3.203    521.600    529.718    521.600    522.084    521.600
 32.770    563.000    530.789     32.211    521.352    530.323    521.352    521.818    521.352
 32.870    542.000    531.619     10.381    521.106    531.170    521.106    521.554    521.106
 32.970    511.000    532.768    -21.768    520.861    532.334    520.861    521.294    520.861
 33.070    542.000    534.355      7.645    520.617    533.936    520.617    521.035    520.617
 33.170    591.000    536.602     54.398    520.375    536.195    520.375    520.780    520.375
 33.270    565.000    540.014     24.986    520.133    539.618    520.133    520.526    520.133
 33.370    571.497    545.968     25.529    519.893    545.582    519.893    520.275    519.893
 33.470    539.000    558.119    -19.119    519.653    557.741    519.653    520.026    519.653
 33.570    538.877    584.459    -45.582    519.415    584.084    519.415    519.779    519.415
 33.670    606.231    637.753    -31.522    519.178    637.378    519.178    519.534    519.178
 33.770    793.000    729.745     63.255    518.943    729.363    518.943    519.291    518.943
 33.870    875.000    857.077     17.923    518.708    856.686    518.708    519.050    518.708
 33.970    993.000    985.332      7.668    518.475    984.938    518.475    518.811    518.475
 34.070   1063.862   1048.909     14.953    518.243   1048.530    518.243    518.573    518.243
 34.170   1047.349   1002.802     44.547    518.013   1002.453    518.013    518.337    518.013
 34.270    937.183    881.238     55.945    517.783    880.917    517.783    518.103    517.783
 34.370    747.000    750.290     -3.290    517.555    749.983    517.555    517.870    517.555
 34.470    605.000    650.553    -45.553    517.328    650.251    517.328    517.640    517.328
 34.570    613.000    590.153     22.847    517.103    589.851    517.103    517.410    517.103
 34.670    595.417    559.112     36.306    516.878    558.810    516.878    517.183    516.878
 34.770    516.000    544.359    -28.359    516.655    544.059    516.655    516.957    516.655
 34.870    514.000    536.999    -22.999    516.434    536.700    516.434    516.732    516.434
 34.970    565.960    532.697     33.262    516.213    532.401    516.213    516.509    516.213
 35.070    530.000    529.750      0.250    515.994    529.456    515.994    516.288    515.994
 35.170    542.000    527.532     14.468    515.776    527.239    515.776    516.068    515.776
 35.270    518.000    525.781     -7.781    515.560    525.491    515.560    515.850    515.560
 35.370    479.000    524.362    -45.362    515.345    524.074    515.345    515.633    515.345
 35.470    547.136    523.188     23.948    515.131    522.901    515.131    515.418    515.131
 35.570    521.319    522.198     -0.879    514.919    521.912    514.919    515.205    514.919
 35.670    498.000    521.351    -23.351    514.708    521.066    514.708    514.992    514.708
 35.770    546.326    520.617     25.709    514.498    520.333    514.498    514.782    514.498
 35.870    506.000    519.972    -13.972    514.290    519.689    514.290    514.573    514.290
 35.970    526.000    519.401      6.599    514.083    519.118    514.083    514.365    514.083
 36.070    542.787    518.890     23.897    513.877    518.608    513.877    514.159    513.877
 36.170    544.272    518.431     25.841    513.673    518.149    513.673    513.955    513.673
 36.270    534.842    518.016     16.826    513.470    517.734    513.470    513.752    513.470
 36.370    538.000    517.641     20.359    513.269    517.360    513.269    513.551    513.269
 36.470    561.000    517.303     43.697    513.069    517.021    513.069    513.351    513.069
 36.570    528.000    517.001     10.999    512.871    516.719    512.871    513.152    512.871
 36.670    518.000    516.736      1.264    512.673    516.454    512.673    512.956    512.673
 36.770    508.000    516.515     -8.515    512.478    516.232    512.478    512.760    512.478
 36.870    537.000    516.357     20.643    512.283    516.074    512.283    512.566    512.283
 36.970    511.000    516.313     -5.313    512.091    516.030    512.091    512.374    512.091
 37.070    509.633    516.504     -6.871    511.899    516.220    511.899    512.184    511.899
 37.170    540.000    517.151     22.849    511.709    516.866    511.709    511.994    511.709
 37.270    514.000    518.562     -4.562    511.521    518.277    511.521    511.807    511.521
 37.370    537.000    520.987     16.013    511.334    520.701    511.334    511.621    511.334
 37.470    492.441    524.331    -31.890    511.148    524.044    511.148    511.436    511.148
 37.570    517.249    527.839    -10.590    510.964    527.552    510.964    511.253    510.964
 37.670    522.000    530.058     -8.058    510.781    529.772    510.781    511.072    510.781
 37.770    548.000    529.754     18.246    510.600    529.469    510.600    510.892    510.600
 37.870    512.000    527.211    -15.211    510.420    526.926    510.420    510.714    510.420
 37.970    515.528    523.757     -8.230    510.242    523.472    510.242    510.537    510.242
 38.070    553.240    520.452     32.788    510.065    520.166    510.065    510.362    510.065
 38.170    503.000    517.733    -14.733    509.890    517.444    509.890    510.188    509.890
 38.270    509.000    515.712     -6.712    509.716    515.419    509.716    510.016    509.716
 38.370    519.000    514.321      4.679    509.544    514.023    509.544    509.846    509.544
 38.470    514.976    513.402      1.574    509.373    513.101    509.373    509.677    509.373
 38.570    515.000    512.796      2.204    509.204    512.492    509.204    509.510    509.204
 38.670    497.000    512.378    -15.378    509.036    512.071    509.036    509.344    509.036
 38.770    504.000    512.066     -8.066    508.870    511.757    508.870    509.180    508.870
 38.870    510.565    511.811     -1.246    508.705    511.499    508.705    509.018    508.705
 38.970    473.000    511.587    -38.587    508.542    511.272    508.542    508.857    508.542
 39.070    480.000    511.384    -31.384    508.380    511.067    508.380    508.698    508.380
 39.170    509.840    511.196     -1.356    508.220    510.876    508.220    508.540    508.220
 39.270    552.057    511.020     41.036    508.061    510.698    508.061    508.384    508.061
 39.370    522.000    510.855     11.145    507.904    510.530    507.904    508.229    507.904
 39.470    503.000    510.699     -7.699    507.748    510.371    507.748    508.077    507.748
 39.570    502.000    510.552     -8.552    507.594    510.220    507.594    507.925    507.594
 39.670    475.915    510.412    -34.497    507.441    510.078    507.441    507.776    507.441
 39.770    513.000    510.280      2.720    507.290    509.943    507.290    507.628    507.290
 39.870    480.082    510.156    -30.074    507.141    509.815    507.141    507.482    507.141
 39.970    485.207    510.040    -24.833    506.993    509.696    506.993    507.337    506.993
 40.070    497.307    509.931    -12.624    506.846    509.584    506.846    507.194    506.846
 40.170    495.157    509.831    -14.674    506.701    509.480    506.701    507.053    506.701
 40.270    529.479    509.740     19.739    506.558    509.385    506.558    506.913    506.558
 40.370    455.000    509.658    -54.658    506.416    509.299    506.416    506.775    506.416
 40.470    560.000    509.587     50.413    506.276    509.224    506.276    506.639    506.276
 40.570    532.159    509.528     22.632    506.137    509.161    506.137    506.504    506.137
 40.670    547.828    509.482     38.346    506.000    509.111    506.000    506.371    506.000
 40.770    511.178    509.452      1.726    505.864    509.076    505.864    506.240    505.864
 40.870    528.500    509.440     19.060    505.730    509.060    505.730    506.111    505.730
 40.970    491.330    509.449    -18.119    505.597    509.065    505.597    505.983    505.597
 41.070    507.000    509.485     -2.485    505.466    509.095    505.466    505.856    505.466
 41.170    579.000    509.552     69.448    505.337    509.157    505.337    505.732    505.337
 41.270    462.000    509.659    -47.659    505.209    509.259    505.209    505.609    505.209
 41.370    525.860    509.816     16.045    505.083    509.411    505.083    505.488    505.083
 41.470    519.000    510.038      8.962    504.958    509.628    504.958    505.369    504.958
 41.570    520.000    510.350      9.650    504.834    509.935    504.834    505.251    504.834
 41.670    488.000    510.794    -22.794    504.713    510.373    504.713    505.136    504.713
 41.770    494.000    511.466    -17.466    504.593    511.039    504.593    505.021    504.593
 41.870    550.704    512.596     38.108    504.474    512.163    504.474    504.909    504.474
 41.970    552.799    514.710     38.089    504.357    514.272    504.357    504.799    504.357
 42.070    524.000    518.857      5.143    504.241    518.414    504.241    504.690    504.241
 42.170    494.000    526.705    -32.705    504.127    526.259    504.127    504.583    504.127
 42.270    557.874    540.163     17.711    504.015    539.716    504.015    504.478    504.015
 42.370    512.000    560.230    -48.230    503.904    559.786    503.904    504.374    503.904
 42.470    606.486    585.277     21.209    503.795    584.838    503.795    504.273    503.795
 42.570    622.210    609.536     12.675    503.687    609.102    503.687    504.173    503.687
 42.670    660.596    623.576     37.020    503.581    623.144    503.581    504.075    503.581
 42.770    640.000    620.099     19.901    503.476    619.660    503.476    503.979    503.476
 42.870    581.000    601.140    -20.140    503.373    600.684    503.373    503.885    503.373
 42.970    589.000    575.652     13.348    503.272    575.173    503.272    503.793    503.272
 43.070    507.000    551.928    -44.928    503.172    551.426    503.172    503.703    503.172
 43.170    533.000    534.128     -1.128    503.073    533.604    503.073    503.615    503.073
 43.270    508.601    522.742    -14.141    502.976    522.200    502.976    503.528    502.976
 43.370    543.663    516.288     27.374    502.881    515.732    502.881    503.444    502.881
 43.470    510.000    512.877     -2.877    502.787    512.307    502.787    503.362    502.787
 43.570    483.000    511.062    -28.062    502.695    510.479    502.695    503.281    502.695
 43.670    488.000    510.007    -22.007    502.604    509.410    502.604    503.203    502.604
 43.770    498.000    509.311    -11.311    502.515    508.700    502.515    503.127    502.515
 43.870    499.926    508.803     -8.877    502.427    508.179    502.427    503.053    502.427
 43.970    522.000    508.412     13.588    502.341    507.773    502.341    502.981    502.341
 44.070    531.948    508.102     23.846    502.257    507.448    502.257    502.912    502.257
 44.170    466.000    507.854    -41.854    502.174    507.184    502.174    502.845    502.174
 44.270    504.873    507.655     -2.783    502.092    506.969    502.092    502.780    502.092
 44.370    501.000    507.496     -6.496    502.012    506.792    502.012    502.717    502.012
 44.470    487.000    507.369    -20.369    501.934    506.647    501.934    502.657    501.934
 44.570    521.000    507.270     13.730    501.857    506.528    501.857    502.599    501.857
 44.670    508.000    507.195      0.805    501.781    506.433    501.781    502.544    501.781
 44.770    484.999    507.142    -22.143    501.707    506.358    501.707    502.491    501.707
 44.870    528.749    507.108     21.641    501.635    506.302    501.635    502.441    501.635
 44.970    508.000    507.092      0.908    501.564    506.261    501.564    502.395    501.564
 45.070    525.119    507.093     18.026    501.495    506.237    501.495    502.351    501.495
 45.170    473.133    507.110    -33.977    501.427    506.228    501.427    502.310    501.427
 45.270    530.000    507.144     22.856    501.361    506.233    501.361    502.272    501.361
 45.370    564.000    507.194     56.806    501.296    506.252    501.296    502.237    501.296
 45.470    471.000    507.261    -36.261    501.233    506.287    501.233    502.206    501.233
 45.570    496.572    507.345    -10.773    501.171    506.337    501.171    502.179    501.171
 45.670    476.953    507.448    -30.496    501.110    506.402    501.110    502.156    501.110
 45.770    524.050    507.571     16.480    501.051    506.485    501.051    502.137    501.051
 45.870    528.702    507.715     20.988    500.994    506.586    500.994    502.122    500.994
 45.970    514.000    507.882      6.118    500.938    506.708    500.938    502.112    500.938
 46.070    540.932    508.076     32.856    500.884    506.853    500.884    502.107    500.884
 46.170    500.000    508.300     -8.300    500.831    507.023    500.831    502.108    500.831
 46.270    498.927    508.559     -9.632    500.779    507.223    500.779    502.114    500.779
 46.370    549.195    508.857     40.338    500.729    507.458    500.729    502.128    500.729
 46.470    517.000    509.203      7.797    500.681    507.735    500.681    502.148    500.681
 46.570    508.000    509.606     -1.606    500.634    508.063    500.634    502.176    500.634
 46.670    487.000    510.082    -23.082    500.588    508.456    500.588    502.213    500.588
 46.770    489.068    510.656    -21.588    500.544    508.940    500.544    502.259    500.544
 46.870    466.000    511.383    -45.383    500.502    509.567    500.502    502.316    500.502
 46.970    513.000    512.381      0.619    500.460    510.453    500.460    502.386    500.460
 47.070    518.000    513.905      4.095    500.421    511.853    500.421    502.469    500.421
 47.170    534.727    516.446     18.282    500.382    514.255    500.382    502.568    500.382
 47.270    539.706    520.791     18.915    500.345    518.442    500.345    502.686    500.345
 47.370    545.000    527.924     17.076    500.310    525.396    500.310    502.824    500.310
 47.470    542.000    538.657      3.343    500.276    535.924    500.276    502.987    500.276
 47.570    532.000    552.904    -20.904    500.243    549.937    500.243    503.180    500.243
 47.670    590.000    568.975     21.025    500.212    565.738    500.212    503.406    500.212
 47.770    549.427    583.141    -33.714    500.182    579.597    500.182    503.674    500.182
 47.870    568.000    590.398    -22.398    500.154    586.505    500.154    503.993    500.154
 47.970    608.000    587.729     20.271    500.127    583.433    500.127    504.373    500.127
 48.070    583.074    577.072      6.002    500.101    572.303    500.101    504.830    500.101
 48.170    595.000    563.294     31.706    500.077    557.954    500.077    505.388    500.077
 48.270    558.000    550.658      7.342    500.054    544.608    500.054    506.084    500.054
 48.370    532.000    541.500     -9.500    500.033    534.540    500.033    506.979    500.033
 48.470    491.822    536.440    -44.618    500.013    528.260    500.013    508.185    500.013
 48.570    541.000    535.104      5.896    499.994    525.199    499.994    509.893    499.994
 48.670    546.000    536.889      9.111    499.977    524.442    499.977    512.420    499.977
 48.770    541.000    541.498     -0.498    499.961    525.208    499.961    516.247    499.961
 48.870    545.000    549.109     -4.109    499.946    527.033    499.946    522.019    499.946
 48.970    568.000    560.301      7.699    499.933    529.762    499.933    530.466    499.933
 49.070    534.696    575.825    -41.129    499.921    533.525    499.921    542.214    499.921
 49.170    552.000    596.450    -44.450    499.911    538.881    499.911    557.471    499.911
 49.270    660.145    623.148     36.997    499.902    547.416    499.902    575.622    499.902
 49.370    694.412    658.110     36.302    499.894    563.260    499.894    594.726    499.894
 49.470    743.877    707.174     36.703    499.887    595.926    499.887    611.106    499.887
 49.570    773.138    783.946    -10.808    499.882    663.838    499.882    619.942    499.882
 49.670    870.000    913.535    -43.535    499.878    795.420    499.878    617.912    499.878
 49.770   1124.688   1128.209     -3.521    499.876   1022.080    499.876    605.880    499.876
 49.870   1467.000   1447.492     19.508    499.874   1359.123    499.874    588.078    499.874
 49.970   1793.000   1848.818    -55.818    499.874   1779.466    499.874    569.045    499.874
 50.070   2272.089   2248.469     23.620    499.876   2196.386    499.876    551.814    499.876
 50.170   2652.000   2514.951    137.049    499.878   2476.980    499.878    537.802    499.878
 50.270   2474.000   2532.780    -58.780    499.882   2505.454    499.882    527.287    499.882
 50.370   2339.000   2288.641     50.359    499.887   2268.827    499.887    519.873    499.887
 50.470   1882.000   1884.404     -2.404    499.894   1869.627    499.894    514.875    499.894
 50.570   1528.180   1457.152     71.028    499.901   1445.658    499.901    511.579    499.901
 50.670   1052.594   1105.098    -52.503    499.910   1095.751    499.910    509.396    499.910
 50.770    889.155    865.648     23.507    499.921    857.758    499.921    507.905    499.921
 50.870    694.000    728.291    -34.291    499.932    721.448    499.932    506.839    499.932
 50.970    676.000    660.477     15.523    499.945    654.430    499.945    506.038    499.945
 51.070    635.077    629.211      5.866    499.959    623.796    499.959    505.412    499.959
 51.170    607.292    611.592     -4.300    499.974    606.690    499.974    504.909    499.974
 51.270    600.000    596.563      3.437    499.990    592.083    499.990    504.499    499.990
 51.370    547.461    581.552    -34.091    500.008    577.423    500.008    504.160    500.008
 51.470    582.000    567.557     14.443    500.026    563.722    500.026    503.879    500.026
 51.570    565.000    555.929      9.071    500.046    552.342    500.046    503.645    500.046
 51.670    512.000    547.303    -35.303    500.068    543.928    500.068    503.451    500.068
 51.770    547.000    541.566      5.434    500.090    538.372    500.090    503.289    500.090
 51.870    571.903    538.161     33.742    500.113    535.123    500.113    503.156    500.113
 51.970    581.000    536.438     44.562    500.138    533.534    500.138    503.046    500.138
 52.070    548.438    535.893     12.545    500.164    533.102    500.164    502.958    500.164
 52.170    535.000    536.252     -1.252    500.191    533.559    500.191    502.887    500.191
 52.270    563.000    537.482     25.518    500.219    534.871    500.219    502.832    500.219
 52.370    561.000    539.805     21.195    500.248    537.263    500.248    502.792    500.248
 52.470    514.328    543.854    -29.526    500.279    541.370    500.279    502.764    500.279
 52.570    603.000    551.010     51.990    500.310    548.573    500.310    502.748    500.310
 52.670    607.000    563.917     43.083    500.343    561.519    500.343    502.742    500.343
 52.770    621.439    586.973     34.466    500.377    584.603    500.377    502.745    500.377
 52.870    664.000    626.271     37.729    500.411    623.923    500.411    502.758    500.411
 52.970    688.024    688.344     -0.320    500.447    686.010    500.447    502.779    500.447
 53.070    802.000    777.273     24.727    500.484    774.947    500.484    502.808    500.484
 53.170    929.264    890.656     38.608    500.523    888.334    500.523    502.844    500.523
 53.270   1042.483   1015.732     26.752    500.562   1013.410    500.562    502.888    500.562
 53.370   1087.799   1127.510    -39.711    500.602   1125.188    500.602    502.938    500.602
 53.470   1180.000   1193.086    -13.086    500.643   1190.760    500.643    502.996    500.643
 53.570   1185.000   1187.889     -2.889    500.686   1185.553    500.686    503.060    500.686
 53.670   1045.000   1114.288    -69.288    500.729   1111.931    500.729    503.130    500.729
 53.770   1009.000    999.388      9.612    500.774    996.997    500.774    503.208    500.774
 53.870    861.364    875.468    -14.104    500.819    873.032    500.819    503.292    500.819
 53.970    812.000    765.761     46.239    500.866    763.271    500.866    503.383    500.866
 54.070    692.000    681.361     10.639    500.913    678.814    500.913    503.481    500.913
 54.170    630.000    623.499      6.501    500.962    620.887    500.962    503.586    500.962
 54.270    618.000    587.528     30.472    501.011    584.850    501.011    503.698    501.011
 54.370    600.000    566.865     33.135    501.062    564.114    501.062    503.818    501.062
 54.470    537.328    555.625    -18.297    501.113    552.796    501.113    503.946    501.113
 54.570    577.000    549.680     27.320    501.165    546.766    501.165    504.083    501.165
 54.670    541.000    546.593     -5.593    501.219    543.585    501.219    504.228    501.219
 54.770    582.410    545.103     37.307    501.273    541.995    501.273    504.383    501.273
 54.870    573.000    544.627     28.373    501.329    541.409    501.329    504.548    501.329
 54.970    500.165    544.916    -44.752    501.385    541.578    501.385    504.725    501.385
 55.070    576.000    545.877     30.123    501.442    542.408    501.442    504.913    501.442
 55.170    570.326    547.496     22.830    501.500    543.883    501.500    505.113    501.500
 55.270    575.000    549.807     25.193    501.559    546.039    501.559    505.328    501.559
 55.370    561.000    552.897      8.103    501.619    548.959    501.619    505.558    501.619
 55.470    570.000    556.924     13.076    501.680    552.800    501.680    505.805    501.680
 55.570    568.000    562.190      5.810    501.742    557.862    501.742    506.070    501.742
 55.670    540.791    569.324    -28.533    501.804    564.773    501.804    506.356    501.804
 55.770    563.000    579.696    -16.696    501.868    574.900    501.868    506.664    501.868
 55.870    580.000    596.230    -16.230    501.932    591.162    501.932    506.998    501.932
 55.970    606.000    624.704    -18.704    501.997    619.336    501.997    507.360    501.997
 56.070    680.000    675.309      4.691    502.063    669.607    502.063    507.754    502.063
 56.170    750.000    763.516    -13.516    502.130    757.441    502.130    508.185    502.130
 56.270    873.000    908.586    -35.586    502.198    902.094    502.198    508.657    502.198
 56.370   1019.000   1128.004   -109.004    502.266   1121.047    502.266    509.176    502.266
 56.470   1420.264   1427.704     -7.440    502.335   1420.236    502.335    509.750    502.335
 56.570   1720.000   1790.720    -70.720    502.405   1782.691    502.405    510.386    502.405
 56.670   2177.095   2168.854      8.240    502.476   2160.216    502.476    511.095    502.476
 56.770   2388.000   2482.795    -94.795    502.548   2473.493    502.548    511.890    502.548
 56.870   2539.000   2641.266   -102.266    502.620   2631.224    502.620    512.786    502.620
 56.970   2523.000   2588.591    -65.591    502.694   2577.692    502.694    513.801    502.694
 57.070   2328.000   2345.769    -17.769    502.768   2333.836    502.768    514.960    502.768
 57.170   1941.994   1992.836    -50.842    502.842   1979.650    502.842    516.294    502.842
 57.270   1659.000   1618.420     40.580    502.918   1603.728    502.918    517.845    502.918
 57.370   1266.768   1287.097    -20.329    502.994   1270.599    502.994    519.678    502.994
 57.470   1092.696   1031.098     61.598    503.071   1012.410    503.071    521.891    503.071
 57.570    882.000    855.076     26.924    503.149    833.660    503.149    524.650    503.149
 57.670    755.000    746.660      8.340    503.227    721.701    503.227    528.236    503.227
 57.770    709.000    687.687     21.313    503.306    657.904    503.306    533.115    503.306
 57.870    694.000    662.285     31.715    503.386    625.652    503.386    540.030    503.386
 57.970    665.556    660.589      4.967    503.466    613.972    503.466    550.083    503.466
 58.070    681.000    679.021      1.979    503.547    617.792    503.547    564.766    503.547
 58.170    695.995    718.656    -22.661    503.629    636.395    503.629    585.868    503.629
 58.270    826.354    782.751     43.603    503.711    671.217    503.711    615.211    503.711
 58.370    863.000    873.994    -10.994    503.794    723.575    503.794    654.166    503.794
 58.470    984.809    991.946     -7.136    503.878    792.742    503.878    703.022    503.878
 58.570   1151.000   1130.843     20.157    503.962    874.498    503.962    760.241    503.962
 58.670   1282.283   1278.595      3.688    504.047    960.941    504.047    821.637    504.047
 58.770   1350.252   1417.800    -67.548    504.132   1042.326    504.132    879.551    504.132
 58.870   1617.000   1528.910     88.090    504.218   1110.214    504.218    922.874    504.218
 58.970   1618.000   1593.955     24.045    504.305   1158.168    504.305    940.072    504.305
 59.070   1674.503   1601.236     73.267    504.392   1179.943    504.392    925.687    504.392
 59.170   1584.311   1551.322     32.989    504.480   1171.396    504.480    884.427    504.480
 59.270   1448.000   1459.095    -11.095    504.568   1136.142    504.568    827.549    504.568
 59.370   1388.000   1348.101     39.899    504.657   1086.443    504.657    766.334    504.657
 59.470   1233.000   1241.731     -8.731    504.746   1037.724    504.746    708.750    504.746
 59.570   1178.000   1158.996     19.004    504.836   1004.532    504.836    659.263    504.836
 59.670   1184.000   1115.195     68.805    504.926   1000.426    504.926    619.616    504.926
 59.770   1158.234   1121.399     36.835    505.017   1036.630    505.017    589.655    505.017
 59.870   1119.511   1180.087    -60.576    505.109   1116.932    505.109    568.077    505.109
 59.970   1337.152   1280.698     56.454    505.201   1232.575    505.201    553.085    505.201
 60.070   1460.000   1398.341     61.659    505.293   1360.482    505.293    542.873    505.293
 60.170   1530.207   1496.601     33.606    505.386   1465.775    505.386    535.921    505.386
 60.270   1625.000   1537.032     87.968    505.479   1511.150    505.479    531.094    505.479
 60.370   1526.019   1497.045     28.974    505.573   1474.783    505.573    527.621    505.573
 60.470   1521.000   1383.494    137.506    505.667   1363.993    505.667    525.019    505.667
 60.570   1163.091   1225.863    -62.772    505.762   1208.536    505.762    522.998    505.762
 60.670   1122.000   1058.427     63.573    505.857   1042.845    505.857    521.392    505.857
 60.770    924.000    907.871     16.129    505.952    893.695    505.952    520.109    505.952
 60.870    792.000    789.019      2.981    506.048    775.962    506.048    519.099    506.048
 60.970    730.000    705.710     24.290    506.144    693.514    506.144    518.337    506.144
 61.070    661.000    654.561      6.439    506.241    642.984    506.241    517.813    506.241
 61.170    705.000    629.646     75.354    506.338    618.452    506.338    517.521    506.338
 61.270    647.000    626.342     20.658    506.435    615.303    506.435    517.455    506.435
 61.370    600.323    643.408    -43.085    506.533    632.312    506.533    517.598    506.533
 61.470    668.000    683.141    -15.141    506.631    671.811    506.631    517.913    506.631
 61.570    787.276    749.805     37.471    506.729    738.130    506.729    518.334    506.729
 61.670    899.570    846.660     52.911    506.828    834.632    506.828    518.756    506.828
 61.770    948.000    972.252    -24.252    506.927    960.007    506.927    519.041    506.927
 61.870   1082.000   1117.100    -35.100    507.026   1104.922    507.026    519.044    507.026
 61.970   1239.288   1262.006    -22.719    507.126   1250.269    507.126    518.686    507.126
 62.070   1337.000   1379.295    -42.295    507.226   1368.347    507.226    517.999    507.226
 62.170   1362.000   1439.368    -77.368    507.326   1429.444    507.326    517.100    507.326
 62.270   1388.000   1424.010    -36.010    507.426   1415.202    507.426    516.126    507.426
 62.370   1322.000   1337.741    -15.741    507.527   1330.020    507.527    515.185    507.527
 62.470   1149.000   1204.600    -55.600    507.628   1197.859    507.628    514.343    507.628
 62.570   1025.000   1054.568    -29.568    507.729   1048.661    507.729    513.636    507.729
 62.670    872.000    912.586    -40.586    507.830    907.359    507.830    513.069    507.830
 62.770    846.183    794.130     52.052    507.932    789.442    507.932    512.635    507.932
 62.870    655.000    705.101    -50.101    508.033    700.834    508.033    512.314    508.033
 62.970    608.000    644.076    -36.076    508.135    640.137    508.135    512.083    508.135
 63.070    617.000    605.564     11.436    508.237    601.886    508.237    511.920    508.237
 63.170    576.000    583.023     -7.023    508.340    579.555    508.340    511.808    508.340
 63.270    533.853    570.827    -36.974    508.442    567.536    508.442    511.731    508.442
 63.370    555.000    565.103    -10.103    508.545    561.963    508.545    511.680    508.545
 63.470    592.039    563.785     28.254    508.648    560.778    508.648    511.649    508.648
 63.570    584.000    566.357     17.643    508.750    563.466    508.750    511.632    508.750
 63.670    561.000    573.554    -12.554    508.853    570.768    508.853    511.627    508.853
 63.770    564.000    587.103    -23.103    508.957    584.408    508.957    511.632    508.957
 63.870    585.450    609.369    -23.918    509.060    606.754    509.060    511.646    509.060
 63.970    689.942    642.785     47.157    509.163    640.240    509.163    511.667    509.163
 64.070    668.822    688.977    -20.155    509.266    686.491    509.266    511.695    509.266
 64.170    790.985    747.688     43.298    509.370    745.252    509.370    511.729    509.370
 64.270    810.000    815.740     -5.740    509.473    813.349    509.473    511.768    509.473
 64.370    911.000    886.348     24.652    509.577    883.999    509.577    511.813    509.577
 64.470    931.000    949.288    -18.288    509.681    946.984    509.681    511.862    509.681
 64.570    980.000    992.985    -12.985    509.784    990.736    509.784    511.913    509.784
 64.670   1016.000   1008.947      7.053    509.888   1006.759    509.888    511.970    509.888
 64.770   1054.000    995.485     58.515    509.992    993.363    509.992    512.030    509.992
 64.870    955.510    957.482     -1.972    510.095    955.426    510.095    512.095    510.095
 64.970    872.000    903.721    -31.721    510.199    901.728    510.199    512.162    510.199
 65.070    854.862    843.976     10.886    510.303    842.039    510.303    512.232    510.303
 65.170    840.000    786.282     53.718    510.406    784.394    510.406    512.305    510.406
 65.270    777.578    735.338     42.240    510.510    733.488    510.510    512.381    510.510
 65.370    725.051    692.664     32.387    510.614    690.845    510.614    512.459    510.614
 65.470    687.134    657.946     29.188    510.717    656.150    510.717    512.540    510.717
 65.570    629.000    630.310     -1.310    510.821    628.531    510.821    512.623    510.821
 65.670    644.377    608.821     35.555    510.924    607.056    510.924    512.708    510.924
 65.770    583.433    592.543     -9.110    511.027    590.788    511.027    512.795    511.027
 65.870    583.000    580.592      2.408    511.130    578.846    511.130    512.885    511.130
 65.970    567.887    572.196     -4.309    511.233    570.458    511.233    512.976    511.233
 66.070    599.000    566.700     32.300    511.336    564.970    511.336    513.069    511.336
 66.170    565.000    563.554      1.446    511.439    561.830    511.439    513.164    511.439
 66.270    575.732    562.303     13.429    511.542    560.584    511.542    513.261    511.542
 66.370    608.353    562.607     45.746    511.644    560.893    511.644    513.360    511.644
 66.470    518.000    564.278    -46.278    511.747    562.565    511.747    513.460    511.747
 66.570    575.000    567.337      7.663    511.849    565.624    511.849    513.563    511.849
 66.670    556.000    572.126    -16.126    511.951    570.412    511.951    513.667    511.951
 66.770    542.330    579.506    -37.176    512.053    577.788    512.053    513.773    512.053
 66.870    537.000    591.190    -54.190    512.155    589.465    512.155    513.881    512.155
 66.970    625.649    610.210     15.439    512.256    608.476    512.256    513.990    512.256
 67.070    666.017    641.440     24.577    512.357    639.693    512.357    514.102    512.357
 67.170    724.526    691.927     32.599    512.458    690.163    512.458    514.215    512.458
 67.270    807.111    770.662     36.449    512.559    768.880    512.559    514.331    512.559
 67.370    861.000    887.346    -26.346    512.660    885.543    512.660    514.449    512.660
 67.470   1040.000   1049.893     -9.893    512.760   1048.070    512.760    514.569    512.760
 67.570   1218.000   1260.884    -42.884    512.860   1259.046    512.860    514.691    512.860
 67.670   1525.000   1513.752     11.248    512.960   1511.907    512.960    514.815    512.960
 67.770   1821.000   1789.835     31.165    513.059   1787.997    513.059    514.942    513.059
 67.870   1975.185   2057.413    -82.227    513.159   2055.595    513.159    515.072    513.159
 67.970   2306.000   2274.155     31.845    513.258   2272.369    513.258    515.204    513.258
 68.070   2490.000   2395.929     94.071    513.356   2394.179    513.356    515.340    513.356
 68.170   2467.000   2393.352     73.648    513.454   2391.625    513.454    515.479    513.454
 68.270   2316.000   2267.162     48.838    513.552   2265.429    513.552    515.621    513.552
 68.370   1966.272   2047.758    -81.487    513.650   2045.981    513.650    515.767    513.650
 68.470   1849.000   1779.454     69.546    513.747   1777.599    513.747    515.917    513.747
 68.570   1525.000   1504.227     20.773    513.844   1502.270    513.844    516.071    513.844
 68.670   1268.677   1253.260     15.417    513.941   1251.187    513.941    516.230    513.941
 68.770    959.000   1044.665    -85.665    514.037   1042.471    514.037    516.394    514.037
 68.870    876.000    884.555     -8.555    514.133    882.240    514.133    516.564    514.133
 68.970    740.478    770.048    -29.570    514.228    767.615    514.228    516.741    514.228
 69.070    694.000    693.092      0.908    514.323    690.543    514.323    516.924    514.323
 69.170    665.000    643.976     21.024    514.418    641.313    514.418    517.114    514.418
 69.270    688.000    613.774     74.226    514.512    610.994    514.512    517.313    514.512
 69.370    571.000    595.520    -24.520    514.605    592.618    514.605    517.521    514.605
 69.470    591.000    584.410      6.590    514.699    581.378    514.699    517.740    514.699
 69.570    595.383    577.444     17.939    514.791    574.273    514.791    517.970    514.791
 69.670    587.000    572.899     14.101    514.884    569.575    514.884    518.213    514.884
 69.770    599.072    569.848     29.224    514.976    566.357    514.976    518.471    514.976
 69.870    557.565    567.815    -10.250    515.067    564.141    515.067    518.745    515.067
 69.970    568.947    566.568      2.379    515.158    562.691    515.158    519.037    515.158
 70.070    605.000    565.998     39.002    515.248    561.896    515.248    519.351    515.248
 70.170    575.452    566.071      9.382    515.338    561.720    515.338    519.689    515.338
 70.270    562.000    566.815     -4.815    515.428    562.187    515.428    520.054    515.428
 70.370    522.000    568.338    -46.338    515.516    563.401    515.516    520.452    515.516
 70.470    621.000    570.881     50.119    515.605    565.596    515.605    520.886    515.605
 70.570    578.000    574.916      3.084    515.692    569.240    515.692    521.364    515.692
 70.670    584.243    581.307      2.936    515.780    575.188    515.780    521.892    515.780
 70.770    599.516    591.538      7.978    515.866    584.912    515.866    522.481    515.866
 70.870    556.000    607.973    -51.973    515.952    600.764    515.952    523.145    515.952
 70.970    671.792    634.086     37.706    516.038    626.196    516.038    523.902    516.038
 71.070    629.000    674.508    -45.508    516.123    665.807    516.123    524.785    516.123
 71.170    707.000    734.699    -27.699    516.207    725.007    516.207    525.843    516.207
 71.270    854.488    820.094     34.394    516.291    809.149    516.291    527.155    516.291
 71.370    873.000    934.672    -61.672    516.374    922.083    516.374    528.855    516.374
 71.470   1041.000   1079.135    -38.135    516.456   1064.304    516.456    531.151    516.456
 71.570   1280.729   1249.094     31.636    516.538   1231.107    516.538    534.361    516.538
 71.670   1505.322   1433.767     71.555    516.619   1411.263    516.619    538.937    516.619
 71.770   1564.945   1615.633    -50.688    516.700   1586.648    516.700    545.488    516.700
 71.870   1775.416   1771.598      3.818    516.780   1733.428    516.780    554.759    516.780
 71.970   1854.314   1876.918    -22.605    516.859   1826.039    516.859    567.569    516.859
 72.070   1996.264   1912.922     83.342    516.938   1845.038    516.938    584.686    516.938
 72.170   1917.000   1875.678     41.322    517.016   1785.952    517.016    606.644    517.016
 72.270   1774.000   1778.282     -4.282    517.093   1661.797    517.093    633.515    517.093
 72.370   1699.000   1644.039     54.961    517.169   1496.489    517.169    664.682    517.169
 72.470   1582.000   1496.952     85.048    517.245   1315.544    517.245    698.634    517.245
 72.570   1420.573   1355.626     64.947    517.320   1140.122    517.320    732.812    517.320
 72.670   1182.000   1230.953    -48.953    517.394    984.761    517.394    763.578    517.394
 72.770   1123.000   1126.201     -3.201    517.468    857.138    517.468    786.522    517.468
 72.870   1030.000   1038.970     -8.970    517.541    759.015    517.541    797.486    517.541
 72.970    912.385    964.483    -52.099    517.613    687.896    517.613    794.189    517.613
 73.070    858.527    898.650    -40.123    517.684    638.941    517.684    777.383    517.684
 73.170    782.000    839.319    -57.319    517.755    606.636    517.755    750.428    517.755
 73.270    751.000    785.887    -34.887    517.824    585.953    517.824    717.751    517.824
 73.370    718.809    738.491    -19.681    517.893    572.917    517.893    683.462    517.893
 73.470    608.000    697.470    -89.470    517.962    564.723    517.962    650.705    517.962
 73.570    694.602    663.090     31.511    518.029    559.576    518.029    621.543    518.029
 73.670    565.000    635.383    -70.383    518.096    556.428    518.096    597.052    518.096
 73.770    577.000    614.058    -37.058    518.161    554.718    518.161    577.506    518.161
 73.870    562.000    598.516    -36.516    518.226    554.158    518.226    562.593    518.226
 73.970    588.638    587.921      0.717    518.290    554.579    518.290    551.645    518.290
 74.070    623.000    581.312     41.688    518.354    555.828    518.354    543.855    518.354
 74.170    600.000    577.686     22.314    518.416    557.698    518.416    538.427    518.416
 74.270    588.000    576.067     11.933    518.478    559.898    518.478    534.676    518.478
 74.370    562.901    575.531    -12.630    518.538    562.038    518.538    532.066    518.538
 74.470    568.123    575.237     -7.113    518.598    563.666    518.598    530.209    518.598
 74.570    651.000    574.483     76.517    518.657    564.341    518.657    528.841    518.657
 74.670    608.000    572.818     35.182    518.715    563.782    518.715    527.793    518.715
 74.770    601.000    570.138     30.862    518.772    561.992    518.772    526.959    518.772
 74.870    567.025    566.670      0.355    518.829    559.262    518.829    526.274    518.829
 74.970    593.224    562.838     30.386    518.884    556.056    518.884    525.697    518.884
 75.070    668.000    559.128    108.872    518.939    552.887    518.939    525.205    518.939
 75.170    543.000    556.016    -13.016    518.992    550.247    518.992    524.780    518.992
 75.270    590.000    553.955     36.045    519.045    548.603    519.045    524.410    519.045
 75.370    555.336    553.394      1.942    519.096    548.411    519.096    524.087    519.096
 75.470    533.000    554.800    -21.800    519.147    550.146    519.147    523.803    519.147
 75.570    560.018    558.669      1.348    519.197    554.309    519.197    523.553    519.197
 75.670    561.000    565.502     -4.502    519.246    561.405    519.246    523.333    519.246
 75.770    572.000    575.723     -3.723    519.293    571.863    519.293    523.138    519.293
 75.870    626.000    589.557     36.443    519.340    585.909    519.340    522.965    519.340
 75.970    643.000    606.862     36.138    519.386    603.406    519.386    522.812    519.386
 76.070    626.000    626.980     -0.980    519.431    623.697    519.431    522.675    519.431
 76.170    627.000    648.627    -21.627    519.475    645.501    519.475    522.553    519.475
 76.270    650.000    669.866    -19.866    519.518    666.885    519.518    522.444    519.518
 76.370    655.000    688.202    -33.202    519.560    685.355    519.560    522.347    519.560
 76.470    731.000    700.890     30.110    519.601    698.170    519.601    522.260    519.601
 76.570    678.514    705.613    -27.099    519.640    703.013    519.640    522.183    519.640
 76.670    666.000    701.372    -35.372    519.679    698.885    519.679    522.113    519.679
 76.770    670.000    688.966    -18.966    519.717    686.587    519.717    522.050    519.717
 76.870    645.000    670.593    -25.593    519.754    668.316    519.754    521.994    519.754
 76.970    651.000    648.970      2.030    519.789    646.788    519.789    521.943    519.789
 77.070    625.000    626.621     -1.621    519.824    624.527    519.824    521.898    519.824
 77.170    620.000    605.527     14.473    519.858    603.513    519.858    521.857    519.858
 77.270    574.000    587.008    -13.008    519.890    585.068    519.890    521.820    519.890
 77.370    600.819    571.731     29.088    519.921    569.859    519.921    521.787    519.921
 77.470    557.832    559.813     -1.981    519.952    558.004    519.952    521.757    519.952
 77.570    582.000    550.971     31.029    519.981    549.220    519.981    521.730    519.981
 77.670    560.000    544.694     15.306    520.009    542.996    520.009    521.705    520.009
 77.770    575.271    540.381     34.890    520.036    538.733    520.036    521.683    520.036
 77.870    497.000    537.497    -40.497    520.062    535.895    520.062    521.662    520.062
 77.970    564.350    535.618     28.731    520.087    534.061    520.087    521.644    520.087
 78.070    499.000    534.386    -35.386    520.111    532.869    520.111    521.627    520.111
 78.170    520.000    533.565    -13.565    520.133    532.086    520.133    521.612    520.133
 78.270    552.648    533.004     19.644    520.155    531.561    520.155    521.598    520.155
 78.370    553.765    532.616     21.148    520.175    531.206    520.175    521.585    520.175
 78.470    508.000    532.352    -24.352    520.195    530.973    520.195    521.573    520.195
 78.570    532.000    532.191     -0.191    520.213    530.841    520.213    521.562    520.213
 78.670    522.000    532.126    -10.126    520.230    530.802    520.230    521.553    520.230
 78.770    509.000    532.170    -23.170    520.245    530.871    520.245    521.544    520.245
 78.870    498.000    532.339    -34.339    520.260    531.062    520.260    521.537    520.260
 78.970    541.919    532.658      9.261    520.273    531.399    520.273    521.531    520.273
 79.070    515.000    533.155    -18.155    520.286    531.913    520.286    521.527    520.286
 79.170    528.000    533.862     -5.862    520.297    532.632    520.297    521.525    520.297
 79.270    533.314    534.807     -1.492    520.307    533.584    520.307    521.527    520.307
 79.370    506.000    536.015    -30.015    520.315    534.794    520.315    521.534    520.315
 79.470    529.000    537.509     -8.509    520.323    536.282    520.323    521.546    520.323
 79.570    541.000    539.315      1.685    520.329    538.075    520.329    521.565    520.329
 79.670    511.000    541.476    -30.476    520.334    540.213    520.334    521.593    520.334
 79.770    501.000    544.063    -43.063    520.338    542.767    520.338    521.630    520.338
 79.870    529.000    547.205    -18.205    520.341    545.863    520.341    521.677    520.341
 79.970    551.000    551.107     -0.107    520.343    549.711    520.343    521.734    520.343
 80.070    585.000    556.085     28.915    520.343    554.624    520.343    521.800    520.343
 80.170    585.936    562.562     23.375    520.342    561.028    520.342    521.872    520.342
 80.270    551.295    571.022    -19.727    520.340    569.414    520.340    521.947    520.340
 80.370    590.993    581.918      9.074    520.336    580.238    520.336    522.018    520.336
 80.470    571.000    595.546    -24.546    520.332    593.804    520.332    522.078    520.332
 80.570    630.366    611.936     18.430    520.326    610.151    520.326    522.120    520.326
 80.670    606.000    630.768    -24.768    520.319    628.966    520.319    522.135    520.319
 80.770    647.598    651.331     -3.733    520.310    649.542    520.310    522.118    520.310
 80.870    641.489    672.542    -31.054    520.301    670.799    520.301    522.069    520.301
 80.970    677.000    693.073    -16.073    520.290    691.402    520.290    521.992    520.290
 81.070    733.000    711.535     21.465    520.278    709.955    520.278    521.896    520.278
 81.170    757.639    726.681     30.958    520.264    725.202    520.264    521.788    520.264
 81.270    737.000    737.510     -0.510    520.249    736.135    520.249    521.676    520.249
 81.370    756.000    743.352     12.648    520.233    742.077    520.233    521.566    520.233
 81.470    783.177    743.935     39.242    520.216    742.752    520.216    521.461    520.216
 81.570    774.000    739.395     34.605    520.198    738.293    520.198    521.365    520.198
 81.670    758.033    730.224     27.808    520.178    729.191    520.178    521.278    520.178
 81.770    737.000    717.239     19.761    520.157    716.262    520.157    521.201    520.157
 81.870    720.306    701.550     18.756    520.134    700.619    520.134    521.132    520.134
 81.970    726.000    684.416     41.584    520.111    683.519    520.111    521.071    520.111
 82.070    639.562    666.975    -27.413    520.086    666.105    520.086    521.017    520.086
 82.170    645.000    650.044     -5.044    520.059    649.193    520.059    520.968    520.059
 82.270    638.102    634.063      4.039    520.032    633.226    520.032    520.923    520.032
 82.370    591.000    619.204    -28.204    520.003    618.377    520.003    520.880    520.003
 82.470    601.000    605.543     -4.543    519.973    604.721    519.973    520.838    519.973
 82.570    591.000    593.181     -2.181    519.941    592.363    519.941    520.797    519.941
 82.670    556.297    582.274    -25.977    519.908    581.457    519.908    520.757    519.908
 82.770    522.000    572.995    -50.995    519.874    572.178    519.874    520.717    519.874
 82.870    547.950    565.495    -17.545    519.839    564.677    519.839    520.676    519.839
 82.970    560.000    559.891      0.109    519.802    559.070    519.802    520.634    519.802
 83.070    562.000    556.245      5.755    519.764    555.421    519.764    520.592    519.764
 83.170    578.000    554.554     23.446    519.724    553.727    519.724    520.550    519.724
 83.270    552.000    554.727     -2.727    519.683    553.895    519.683    520.506    519.683
 83.370    562.000    556.569      5.431    519.641    555.732    519.641    520.461    519.641
 83.470    529.000    559.770    -30.770    519.598    558.928    519.598    520.416    519.598
 83.570    574.465    563.906     10.559    519.553    563.059    519.553    520.369    519.553
 83.670    570.000    568.451      1.549    519.507    567.601    519.507    520.322    519.507
 83.770    514.000    572.805    -58.805    519.459    571.951    519.459    520.274    519.459
 83.870    550.321    576.338    -26.017    519.411    575.482    519.411    520.224    519.411
 83.970    588.000    578.470      9.530    519.360    577.612    519.360    520.174    519.360
 84.070    600.332    578.790     21.542    519.309    577.933    519.309    520.123    519.309
 84.170    575.000    577.169     -2.169    519.256    576.314    519.256    520.070    519.256
 84.270    553.000    573.791    -20.791    519.202    572.939    519.202    520.017    519.202
 84.370    536.000    569.077    -33.077    519.146    568.229    519.146    519.962    519.146
 84.470    550.000    563.552    -13.552    519.089    562.707    519.089    519.907    519.089
 84.570    531.057    557.735    -26.678    519.031    556.894    519.031    519.850    519.031
 84.670    517.000    552.069    -35.069    518.971    551.231    518.971    519.792    518.971
 84.770    577.000    546.890     30.110    518.910    546.053    518.910    519.734    518.910
 84.870    501.787    542.409    -40.622    518.848    541.573    518.848    519.674    518.848
 84.970    531.329    538.727     -7.398    518.784    537.890    518.784    519.613    518.784
 85.070    527.000    535.847     -8.847    518.719    535.009    518.719    519.551    518.719
 85.170    512.377    533.706    -21.329    518.653    532.866    518.653    519.488    518.653
 85.270    553.175    532.204     20.971    518.585    531.361    518.585    519.424    518.585
 85.370    516.131    531.230    -15.099    518.516    530.383    518.516    519.359    518.516
 85.470    539.279    530.685      8.594    518.445    529.834    518.445    519.293    518.445
 85.570    489.291    530.496    -41.205    518.374    529.640    518.374    519.225    518.374
 85.670    530.000    530.625     -0.625    518.300    529.763    518.300    519.157    518.300
 85.770    533.000    531.073      1.927    518.226    530.205    518.226    519.088    518.226
 85.870    568.418    531.883     36.536    518.150    531.008    518.150    519.018    518.150
 85.970    517.511    533.143    -15.631    518.073    532.260    518.073    518.946    518.073
 86.070    551.000    534.980     16.020    517.994    534.088    517.994    518.874    517.994
 86.170    531.478    537.558     -6.081    517.914    536.657    517.914    518.801    517.914
 86.270    542.062    541.066      0.996    517.833    540.153    517.833    518.726    517.833
 86.370    579.000    545.695     33.305    517.750    544.768    517.750    518.651    517.750
 86.470    566.000    551.613     14.387    517.666    550.671    517.666    518.575    517.666
 86.570    581.000    558.926     22.074    517.580    557.968    517.580    518.498    517.580
 86.670    513.000    567.641    -54.641    517.493    566.664    517.493    518.420    517.493
 86.770    589.000    577.621     11.379    517.405    576.624    517.405    518.341    517.405
 86.870    603.983    588.557     15.426    517.316    587.538    517.316    518.261    517.316
 86.970    616.000    599.951     16.049    517.225    598.910    517.225    518.180    517.225
 87.070    623.000    611.119     11.881    517.132    610.056    517.132    518.098    517.132
 87.170    657.000    621.218     35.782    517.039    620.136    517.039    518.016    517.039
 87.270    668.000    629.317     38.683    516.944    628.217    516.944    517.933    516.944
 87.370    619.438    634.568    -15.131    516.848    633.454    516.848    517.849    516.848
 87.470    612.319    636.375    -24.056    516.750    635.251    516.750    517.764    516.750
 87.570    684.000    634.562     49.438    516.651    633.431    516.651    517.679    516.651
 87.670    612.000    629.452    -17.452    516.551    628.317    516.551    517.592    516.551
 87.770    626.000    621.753      4.247    516.449    620.616    516.449    517.504    516.449
 87.870    626.000    612.380     13.620    516.346    611.241    516.346    517.416    516.346
 87.970    596.000    602.300     -6.300    516.241    601.158    516.241    517.328    516.241
 88.070    622.000    592.421     29.579    516.136    591.274    516.136    517.240    516.136
 88.170    624.999    583.529     41.470    516.029    582.375    516.029    517.151    516.029
 88.270    570.722    576.241     -5.519    515.920    575.078    515.920    517.062    515.920
 88.370    538.000    570.982    -32.982    515.810    569.809    515.810    516.973    515.810
 88.470    551.241    567.982    -16.742    515.699    566.796    515.699    516.883    515.699
 88.570    599.000    567.276     31.724    515.587    566.075    515.587    516.793    515.587
 88.670    612.000    568.719     43.281    515.473    567.502    515.473    516.703    515.473
 88.770    624.000    572.006     51.994    515.358    570.771    515.358    516.613    515.358
 88.870    649.000    576.692     72.308    515.242    575.438    515.242    516.523    515.242
 88.970    571.000    582.218    -11.218    515.124    580.943    515.124    516.434    515.124
 89.070    630.000    587.935     42.065    515.005    586.638    515.005    516.345    515.005
 89.170    653.000    593.148     59.852    514.885    591.826    514.885    516.256    514.885
 89.270    641.659    597.167     44.492    514.763    595.817    514.763    516.168    514.763
 89.370    590.000    599.400     -9.400    514.640    598.018    514.640    516.081    514.640
 89.470    569.000    599.462    -30.462    514.516    598.045    514.516    515.994    514.516
 89.570    576.620    597.263    -20.643    514.391    595.806    514.391    515.910    514.391
 89.670    576.116    593.020    -16.904    514.264    591.517    514.264    515.826    514.264
 89.770    576.000    587.177    -11.177    514.136    585.624    514.136    515.744    514.136
 89.870    566.000    580.288    -14.288    514.006    578.680    514.006    515.665    514.006
 89.970    560.000    572.913    -12.913    513.876    571.245    513.876    515.588    513.876
 90.070    586.166    565.550     20.616    513.744    563.818    513.744    515.513    513.744
 90.170    547.000    558.601    -11.601    513.610    556.800    513.610    515.442    513.610
 90.270    496.000    552.356    -56.356    513.476    550.482    513.476    515.375    513.476
 90.370    571.659    546.990     24.669    513.340    545.037    513.340    515.312    513.340
 90.470    582.858    542.574     40.284    513.203    540.537    513.203    515.255    513.203
 90.570    553.118    539.096     14.022    513.065    536.967    513.065    515.204    513.065
 90.670    509.968    536.485    -26.517    512.925    534.256    512.925    515.161    512.925
 90.770    554.000    534.635     19.365    512.785    532.296    512.785    515.129    512.785
 90.870    530.665    533.433     -2.768    512.643    530.968    512.643    515.110    512.643
 90.970    562.869    532.771     30.098    512.499    530.164    512.499    515.107    512.499
 91.070    562.502    532.565     29.937    512.355    529.792    512.355    515.128    512.355
 91.170    561.000    532.737     28.263    512.209    529.766    512.209    515.179    512.209
 91.270    525.032    533.340     -8.308    512.062    530.130    512.062    515.271    512.062
 91.370    523.000    534.404    -11.404    511.914    530.897    511.914    515.418    511.914
 91.470    538.000    535.993      2.007    511.765    532.116    511.765    515.638    511.765
 91.570    516.000    538.237    -22.237    511.614    533.890    511.614    515.955    511.614
 91.670    538.000    541.308     -3.308    511.462    536.366    511.462    516.398    511.462
 91.770    576.000    545.422     30.578    511.309    539.722    511.309    517.000    511.309
 91.870    503.000    550.825    -47.825    511.155    544.167    511.155    517.801    511.155
 91.970    609.000    557.774     51.226    511.000    549.918    511.000    518.839    511.000
 92.070    563.850    566.527     -2.677    510.843    557.188    510.843    520.162    510.843
 92.170    548.675    577.305    -28.630    510.686    566.155    510.686    521.810    510.686
 92.270    598.257    590.259      7.998    510.527    576.940    510.527    523.815    510.527
 92.370    563.000    605.446    -42.446    510.367    589.578    510.367    526.197    510.367
 92.470    647.836    622.792     25.044    510.206    603.992    510.206    528.961    510.206
 92.570    645.000    642.077      2.923    510.043    619.981    510.043    532.087    510.043
 92.670    689.000    662.918     26.082    509.880    637.210    509.880    535.529    509.880
 92.770    676.000    684.748     -8.748    509.715    655.192    509.715    539.207    509.715
 92.870    654.000    706.851    -52.851    509.550    673.323    509.550    543.008    509.550
 92.970    778.000    728.402     49.598    509.383    690.935    509.383    546.776    509.383
 93.070    815.000    748.571     66.429    509.215    707.389    509.215    550.320    509.215
 93.170    757.535    766.648     -9.113    509.046    722.204    509.046    553.413    509.046
 93.270    850.000    782.168     67.832    508.876    735.157    508.876    555.809    508.876
 93.370    780.000    794.962    -14.962    508.705    746.310    508.705    557.282    508.705
 93.470    845.000    805.139     39.861    508.533    755.931    508.533    557.666    508.533
 93.570    850.000    813.014     36.986    508.359    764.397    508.359    556.905    508.359
 93.670    847.000    819.059     27.941    508.185    772.112    508.185    555.063    508.185
 93.770    810.000    823.871    -13.871    508.009    779.502    508.009    552.312    508.009
 93.870    805.864    828.158    -22.294    507.833    787.045    507.833    548.882    507.833
 93.970    817.193    832.705    -15.511    507.656    795.281    507.656    545.017    507.656
 94.070    911.000    838.260     72.740    507.477    804.733    507.477    540.943    507.477
 94.170    848.250    845.364      2.887    507.298    815.752    507.298    536.851    507.298
 94.270    892.000    854.171     37.829    507.117    828.342    507.117    532.890    507.117
 94.370    857.905    864.337     -6.432    506.935    842.045    506.935    529.173    506.935
 94.470    918.947    874.998     43.949    506.753    855.923    506.753    525.777    506.753
 94.570    838.916    884.839    -45.924    506.569    868.616    506.569    522.747    506.569
 94.670    838.243    892.242    -53.999    506.385    878.487    506.385    520.099    506.385
 94.770    902.000    895.520      6.480    506.200    883.857    506.200    517.830    506.200
 94.870    838.008    893.230    -55.222    506.013    883.302    506.013    515.917    506.013
 94.970    864.351    884.502    -20.151    505.826    875.986    505.826    514.327    505.826
 95.070    870.000    869.267      0.733    505.638    861.880    505.638    513.018    505.638
 95.170    852.000    848.276      3.724    505.449    841.776    505.449    511.949    505.449
 95.270    863.000    822.979     40.021    505.258    817.166    505.258    511.078    505.258
 95.370    819.000    795.193     23.807    505.068    789.905    505.068    510.366    505.068
 95.470    801.000    766.894     34.106    504.876    762.003    504.876    509.779    504.876
 95.570    760.000    740.047     19.953    504.683    735.451    504.683    509.290    504.683
 95.670    729.000    716.488     12.512    504.489    712.111    504.489    508.876    504.489
 95.770    691.000    697.865     -6.865    504.295    693.648    504.295    508.519    504.295
 95.870    702.017    685.605     16.412    504.100    681.501    504.100    508.205    504.100
 95.970    677.000    680.911     -3.911    503.903    676.884    503.903    507.925    503.903
 96.070    643.450    684.773    -41.322    503.706    680.795    503.706    507.671    503.706
 96.170    699.242    697.975      1.267    503.509    694.024    503.509    507.437    503.509
 96.270    739.000    721.091     17.909    503.310    717.148    503.310    507.221    503.310
 96.370    783.273    754.444     28.829    503.111    750.492    503.111    507.019    503.111
 96.470    768.000    798.041    -30.041    502.911    794.066    502.911    506.831    502.911
 96.570    859.000    851.477      7.523    502.710    847.467    502.710    506.655    502.710
 96.670    898.282    913.832    -15.550    502.508    909.774    502.508    506.490    502.508
 96.770    946.773    983.576    -36.803    502.306    979.461    502.306    506.337    502.306
 96.870   1086.475   1058.509     27.966    502.102   1054.326    502.102    506.194    502.102
 96.970   1147.108   1135.735     11.374    501.899   1131.476    501.899    506.063    501.899
 97.070   1234.000   1211.710     22.290    501.694   1207.367    501.694    505.943    501.694
 97.170   1285.000   1282.342      2.658    501.489   1277.907    501.489    505.835    501.489
 97.270   1375.750   1343.240     32.510    501.283   1338.704    501.283    505.739    501.283
 97.370   1450.752   1390.122     60.630    501.076   1385.478    501.076    505.656    501.076
 97.470   1349.232   1419.411    -70.179    500.869   1414.646    500.869    505.587    500.869
 97.570   1419.000   1428.873     -9.873    500.661   1423.975    500.661    505.533    500.661
 97.670   1447.000   1418.078     28.922    500.453   1413.030    500.453    505.496    500.453
 97.770   1374.000   1388.428    -14.428    500.243   1383.209    500.243    505.478    500.243
 97.870   1389.000   1342.790     46.210    500.034   1337.377    500.034    505.481    500.034
 97.970   1328.000   1284.921     43.079    499.823   1279.284    499.823    505.508    499.823
 98.070   1242.000   1218.939     23.061    499.613   1213.044    499.613    505.565    499.613
 98.170   1148.000   1148.938     -0.938    499.401   1142.745    499.401    505.657    499.401
 98.270   1050.202   1078.744    -28.542    499.189   1072.203    499.189    505.793    499.189
 98.370   1019.000   1011.760      7.240    498.977   1004.813    498.977    505.984    498.977
 98.470    978.035    950.893     27.142    498.764    943.464    498.764    506.247    498.764
 98.570    909.000    898.529     10.471    498.550    890.524    498.550    506.603    498.550
 98.670    827.204    856.557    -29.352    498.336    847.852    498.336    507.079    498.336
 98.770    827.077    826.418      0.659    498.122    816.854    498.122    507.714    498.122
 98.870    803.000    809.169     -6.169    497.907    798.540    497.907    508.554    497.907
 98.970    829.927    805.605     24.323    497.691    793.644    497.691    509.660    497.691
 99.070    839.855    816.264     23.591    497.476    802.634    497.476    511.104    497.476
 99.170    856.000    841.482     14.518    497.259    825.758    497.259    512.974    497.259
 99.270    839.142    881.394    -42.252    497.043    863.051    497.043    515.370    497.043
 99.370    952.000    935.892     16.108    496.826    914.293    496.826    518.404    496.826
 99.470   1026.000   1004.542     21.458    496.608    978.930    496.608    522.197    496.608
 99.570   1147.000   1086.495     60.505    496.391   1055.992    496.391    526.871    496.391
 99.670   1182.000   1180.380      1.620    496.173   1143.991    496.173    532.542    496.173
 99.770   1263.000   1284.218    -21.218    495.954   1240.849    495.954    539.312    495.954
 99.870   1419.000   1395.353     23.647    495.736   1343.834    495.736    547.254    495.736
 99.970   1495.000   1510.440    -15.440    495.517   1449.570    495.517    556.402    495.517
100.070   1594.084   1625.512    -31.428    495.298   1554.106    495.298    566.739    495.298
100.170   1704.000   1736.176    -32.176    495.078   1653.130    495.078    578.182    495.078
100.270   1845.000   1837.935      7.065    494.859   1742.301    494.859    590.577    494.859
100.370   1844.192   1926.595    -82.403    494.639   1817.659    494.639    603.686    494.639
100.470   2069.000   1998.609     70.391    494.419   1875.985    494.419    617.181    494.419
100.570   2096.000   2051.244     44.756    494.199   1914.963    494.199    630.643    494.199
100.670   1997.179   2082.564    -85.385    493.978   1933.165    493.978    643.561    493.978
100.770   2153.000   2091.366     61.634    493.758   1929.984    493.758    655.341    493.758
100.870   2136.113   2077.267     58.847    493.537   1905.683    493.537    665.336    493.537
100.970   2143.000   2040.950    102.050    493.317   1861.594    493.317    672.896    493.317
101.070   1938.761   1984.436    -45.675    493.096   1800.301    493.096    677.456    493.096
101.170   1995.000   1911.126     83.874    492.875   1725.587    492.875    678.636    492.875
101.270   1805.000   1825.530    -20.530    492.654   1642.080    492.654    676.318    492.654
101.370   1784.623   1732.729     51.894    492.433   1554.687    492.433    670.677    492.433
101.470   1531.000   1637.782   -106.782    492.212   1468.042    492.212    662.140    492.212
101.570   1509.000   1545.232    -36.232    491.991   1386.097    491.991    651.297    491.991
101.670   1523.790   1458.767     65.023    491.770   1311.887    491.770    638.804    491.770
101.770   1379.000   1381.052     -2.052    491.549   1247.438    491.549    625.302    491.549
101.870   1295.000   1313.672    -18.672    491.329   1193.755    491.329    611.369    491.329
101.970   1215.000   1257.160    -42.160    491.108   1150.880    491.108    597.498    491.108
102.070   1163.000   1211.087    -48.087    490.887   1117.984    490.887    584.090    490.887
102.170   1206.638   1174.195     32.443    490.667   1093.502    490.667    571.452    490.667
102.270   1110.000   1144.569    -34.569    490.446   1075.297    490.446    559.805    490.446
102.370   1150.583   1119.856     30.728    490.226   1060.878    490.226    549.288    490.226
102.470   1112.515   1097.530     14.985    490.006   1047.651    490.006    539.969    490.006
102.570   1027.000   1075.204    -48.204    489.786   1033.221    489.786    531.854    489.786
102.670   1080.000   1050.935     29.065    489.567   1015.688    489.567    524.899    489.567
102.770    992.059   1023.462    -31.403    489.348    993.871    489.348    519.025    489.348
102.870   1042.919    992.292     50.627    489.129    967.382    489.129    514.125    489.129
102.970    925.200    957.627    -32.426    488.910    936.540    488.910    510.082    488.910
103.070    926.000    920.174      5.826    488.691    902.175    488.691    506.773    488.691
103.170    835.000    880.935    -45.935    488.473    865.408    488.473    504.078    488.473
103.270    796.719    841.028    -44.308    488.256    827.467    488.256    501.889    488.256
103.370    818.000    801.551     16.449    488.038    789.549    488.038    500.107    488.038
103.470    791.989    763.504     28.485    487.821    752.737    487.821    498.648    487.821
103.570    702.000    727.723    -25.723    487.605    717.940    487.605    497.441    487.605
103.670    752.000    694.854     57.146    487.389    685.860    487.389    496.429    487.389
103.770    685.575    665.332     20.242    487.173    656.976    487.173    495.568    487.173
103.870    639.000    639.388     -0.388    486.958    631.556    486.958    494.822    486.958
103.970    661.000    617.063     43.937    486.743    609.669    486.743    494.164    486.743
104.070    570.954    598.238    -27.284    486.529    591.214    486.529    493.575    486.529
104.170    557.000    582.672    -25.672    486.316    575.966    486.316    493.039    486.316
104.270    597.000    570.039     26.961    486.103    563.609    486.103    492.546    486.103
104.370    580.034    559.985     20.049    485.891    553.799    485.891    492.087    485.891
104.470    575.000    552.135     22.865    485.679    546.165    485.679    491.657    485.679
104.570    576.566    546.128     30.437    485.468    540.351    485.468    491.250    485.468
104.670    580.000    541.638     38.362    485.258    536.039    485.258    490.860    485.258
104.770    574.480    538.397     36.083    485.048    532.954    485.048    490.492    485.048
104.870    576.227    536.180     40.047    484.839    530.877    484.839    490.143    484.839
104.970    538.000    534.816      3.184    484.631    529.638    484.631    489.808    484.631
105.070    547.484    534.189     13.296    484.424    529.123    484.424    489.487    484.424
105.170    530.000    534.228     -4.228    484.217    529.263    484.217    489.178    484.217
105.270    541.000    534.911      6.089    484.011    530.035    484.011    488.881    484.011
105.370    513.346    536.252    -22.907    483.807    531.456    483.807    488.596    483.807
105.470    568.000    538.300     29.700    483.603    533.575    483.603    488.319    483.603
105.570    532.000    541.121     -9.121    483.399    536.468    483.399    488.042    483.399
105.670    573.000    544.829     28.171    483.197    540.230    483.197    487.784    483.197
105.770    510.483    549.516    -39.032    482.996    544.961    482.996    487.536    482.996
105.870    574.151    555.270     18.881    482.796    550.752    482.796    487.296    482.796
105.970    582.115    562.162     19.953    482.597    557.673    482.597    487.065    482.597
106.070    583.000    570.223     12.777    482.398    565.757    482.398    486.841    482.398
106.170    528.000    579.436    -51.436    482.201    574.986    482.201    486.625    482.201
106.270    569.000    589.723    -20.723    482.005    585.283    482.005    486.416    482.005
106.370    632.000    600.943     31.057    481.810    596.506    481.810    486.214    481.810
106.470    598.339    612.888    -14.549    481.617    608.450    481.617    486.019    481.617
106.570    635.000    625.282      9.718    481.424    620.837    481.424    485.831    481.424
106.670    658.000    637.790     20.210    481.233    633.333    481.233    485.649    481.233
106.770    628.000    650.029    -22.029    481.043    645.555    481.043    485.474    481.043
106.870    648.000    661.587    -13.587    480.854    657.091    480.854    485.306    480.854
106.970    678.000    672.043      5.957    480.666    667.522    480.666    485.144    480.666
107.070    689.893    681.010      8.882    480.480    676.459    480.480    484.989    480.480
107.170    662.000    688.180    -26.180    480.295    683.594    480.295    484.841    480.295
107.270    709.499    693.374     16.125    480.111    688.748    480.111    484.700    480.111
107.370    705.000    696.580      8.420    479.929    691.910    479.929    484.565    479.929
107.470    694.581    697.967     -3.386    479.748    693.248    479.748    484.437    479.748
107.570    659.000    697.856    -38.856    479.569    693.083    479.569    484.316    479.569
107.670    649.160    696.665    -47.506    479.391    691.833    479.391    484.202    479.391
107.770    634.000    694.850    -60.850    479.214    689.952    479.214    484.096    479.214
107.870    682.000    692.840    -10.840    479.040    687.870    479.040    483.997    479.040
107.970    737.669    690.999     46.670    478.866    685.951    478.866    483.906    478.866
108.070    660.009    689.591    -29.582    478.695    684.459    478.695    483.822    478.695
108.170    676.000    688.766    -12.766    478.525    683.543    478.525    483.747    478.525
108.270    672.000    688.547    -16.547    478.356    683.226    478.356    483.680    478.356
108.370    737.124    688.834     48.290    478.190    683.407    478.190    483.623    478.190
108.470    682.643    689.408     -6.765    478.025    683.869    478.025    483.574    478.025
108.570    664.000    689.952    -25.952    477.862    684.292    477.862    483.535    477.862
108.670    690.000    690.081     -0.081    477.700    684.291    477.700    483.506    477.700
108.770    676.000    689.382    -13.382    477.541    683.454    477.541    483.487    477.541
108.870    706.223    687.473     18.750    477.383    681.398    477.383    483.479    477.383
108.970    717.506    684.058     33.448    477.227    677.826    477.227    483.483    477.227
109.070    639.000    678.974    -39.974    477.073    672.573    477.073    483.499    477.073
109.170    664.000    672.212     -8.212    476.921    665.631    476.921    483.527    476.921
109.270    683.000    663.907     19.093    476.771    657.135    476.771    483.569    476.771
109.370    626.000    654.309    -28.309    476.624    647.332    476.624    483.625    476.624
109.470    677.271    643.737     33.534    476.478    636.543    476.478    483.696    476.478
109.570    674.000    632.540     41.460    476.334    625.113    476.334    483.783    476.334
109.670    620.000    621.046     -1.046    476.192    613.371    476.192    483.888    476.192
109.770    594.000    609.611    -15.611    476.052    601.672    476.052    484.011    476.052
109.870    624.000    598.551     25.449    475.915    590.329    475.915    484.153    475.915
109.970    595.000    588.094      6.906    475.780    579.571    475.780    484.318    475.780
110.070    581.034    578.441      2.593    475.647    569.595    475.647    484.505    475.647
110.170    591.332    569.738     21.594    475.516    560.546    475.516    484.719    475.516
110.270    566.000    562.083      3.917    475.388    552.518    475.388    484.961    475.388
110.370    546.000    555.524     -9.524    475.262    545.557    475.262    485.235    475.262
110.470    533.963    550.066    -16.103    475.138    539.663    475.138    485.545    475.138
110.570    576.000    545.681     30.319    475.017    534.802    475.017    485.898    475.017
110.670    550.000    542.310      7.690    474.898    530.910    474.898    486.299    474.898
110.770    534.328    539.881     -5.554    474.781    527.905    474.781    486.758    474.781
110.870    531.000    538.309     -7.309    474.668    525.690    474.668    487.285    474.668
110.970    550.679    537.508     13.171    474.556    524.165    474.556    487.896    474.556
111.070    578.986    537.395     41.592    474.448    523.231    474.448    488.608    474.448
111.170    545.554    537.897      7.657    474.342    522.791    474.342    489.443    474.342
111.270    512.019    538.956    -26.937    474.238    522.757    474.238    490.431    474.238
111.370    568.401    540.528     27.873    474.138    523.052    474.138    491.607    474.138
111.470    537.000    542.587     -5.587    474.040    523.606    474.040    493.013    474.040
111.570    521.000    545.129    -24.129    473.945    524.362    473.945    494.703    473.945
111.670    548.000    548.169     -0.169    473.852    525.274    473.852    496.739    473.852
111.770    573.000    551.744     21.256    473.763    526.304    473.763    499.194    473.763
111.870    534.000    555.914    -21.914    473.676    527.427    473.676    502.153    473.676
111.970    535.000    560.762    -25.762    473.592    528.629    473.592    505.716    473.592
112.070    618.000    566.392     51.608    473.512    529.904    473.512    509.989    473.512
112.170    554.000    572.927    -18.927    473.434    531.259    473.434    515.091    473.434
112.270    546.986    580.511    -33.524    473.359    532.707    473.359    521.151    473.359
112.370    551.000    589.295    -38.295    473.287    534.270    473.287    528.300    473.287
112.470    594.000    599.444     -5.444    473.219    535.979    473.219    536.672    473.219
112.570    574.299    611.124    -36.825    473.153    537.870    473.153    546.394    473.153
112.670    608.000    624.498    -16.498    473.091    539.991    473.091    557.584    473.091
112.770    625.192    639.726    -14.534    473.032    542.400    473.032    570.342    473.032
112.870    636.000    656.956    -20.956    472.977    545.174    472.977    584.741    472.977
112.970    693.000    676.325     16.675    472.924    548.409    472.924    600.821    472.924
113.070    712.000    697.957     14.043    472.875    552.234    472.875    618.577    472.875
113.170    708.000    721.967    -13.967    472.829    556.819    472.829    637.956    472.829
113.270    766.285    748.468     17.817    472.787    562.385    472.787    658.845    472.787
113.370    732.000    777.578    -45.578    472.748    569.229    472.748    681.069    472.748
113.470    821.000    809.439     11.561    472.713    577.738    472.713    704.383    472.713
113.570    841.000    844.234     -3.234    472.681    588.410    472.681    728.469    472.681
113.670    892.415    882.211     10.204    472.653    601.891    472.653    752.933    472.653
113.770    923.000    923.712     -0.712    472.629    618.991    472.629    777.303    472.629
113.870    981.719    969.204     12.515    472.608    640.723    472.608    801.035    472.608
113.970   1039.000   1019.310     19.690    472.591    668.325    472.591    823.513    472.591
114.070   1104.564   1074.851     29.712    472.577    703.287    472.577    844.067    472.577
114.170   1165.000   1136.885     28.115    472.568    747.368    472.568    861.996    472.568
114.270   1213.000   1206.750      6.250    472.562    802.597    472.562    876.610    472.562
114.370   1258.000   1286.111    -28.111    472.560    871.262    472.560    887.283    472.560
114.470   1391.000   1376.986     14.014    472.562    955.880    472.562    893.518    472.562
114.570   1460.000   1481.751    -21.751    472.568   1059.135    472.568    895.006    472.568
114.670   1679.000   1603.094     75.906    472.578   1183.788    472.578    891.673    472.578
114.770   1818.000   1743.909     74.091    472.592   1332.567    472.592    883.687    472.592
114.870   1870.841   1907.122    -36.281    472.610   1508.010    472.610    871.433    472.610
114.970   2062.000   2095.463    -33.463    472.632   1712.294    472.632    855.467    472.632
115.070   2360.000   2311.212     48.788    472.659   1947.039    472.659    836.447    472.659
115.170   2586.000   2555.924     30.076    472.689   2213.103    472.689    815.075    472.689
115.270   2856.000   2830.180     25.820    472.724   2510.374    472.724    792.043    472.724
115.370   3228.394   3133.365     95.029    472.764   2837.587    472.764    768.003    472.764
115.470   3360.000   3463.486   -103.486    472.807   3192.162    472.807    743.545    472.807
115.570   3748.000   3817.057    -69.057    472.855   3570.097    472.855    719.187    472.855
115.670   4148.110   4189.038    -40.928    472.908   3965.913    472.908    695.368    472.908
115.770   4554.964   4572.846    -17.883    472.965   4372.667    472.965    672.454    472.965
115.870   5009.587   4960.449     49.138    473.026   4782.037    473.026    650.735    473.026
115.970   5105.000   5342.523   -237.523    473.092   5184.485    473.092    630.428    473.092
116.070   5534.000   5708.697   -174.697    473.163   5569.492    473.163    611.683    473.163
116.170   5994.000   6047.895    -53.895    473.238   5925.892    473.238    594.590    473.238
116.270   6438.000   6348.769     89.231    473.318   6242.306    473.318    579.182    473.318
116.370   6539.813   6600.275    -60.461    473.403   6507.702    473.403    565.446    473.403
116.470   6711.000   6792.366    -81.366    473.493   6712.086    473.493    553.328    473.493
116.570   7047.039   6916.785    130.254    473.588   6847.282    473.588    542.743    473.588
116.670   6864.000   6967.838   -103.838    473.687   6907.701    473.687    533.586    473.687
116.770   6964.000   6942.995     21.005    473.791   6890.929    473.791    525.731    473.791
116.870   7001.000   6843.178    157.822    473.901   6798.014    473.901    519.050    473.901
116.970   6794.000   6672.670    121.330    474.015   6633.369    474.015    513.409    474.015
117.070   6433.000   6438.524     -5.524    474.135   6404.170    474.135    508.677    474.135
117.170   6021.933   6149.906   -127.973    474.260   6119.707    474.260    504.729    474.260
117.270   5645.000   5817.298   -172.298    474.390   5790.574    474.390    501.452    474.390
117.370   5426.000   5451.762    -25.762    474.525   5427.937    474.525    498.740    474.525
117.470   5152.659   5064.342     88.317    474.665   5042.932    474.665    496.501    474.665
117.570   4604.000   4665.579    -61.579    474.811   4646.181    474.811    494.653    474.811
117.670   4464.000   4265.153    198.847    474.962   4247.436    474.962    493.129    474.962
117.770   3760.270   3871.615   -111.344    475.119   3855.307    475.119    491.869    475.119
117.870   3692.000   3492.206    199.794    475.281   3477.086    475.281    490.825    475.281
117.970   3193.000   3132.758     60.242    475.449   3118.647    475.449    489.957    475.449
118.070   2868.900   2797.665     71.235    475.622   2784.419    475.622    489.233    475.622
118.170   2617.000   2489.932    127.068    475.801   2477.435    475.801    488.626    475.801
118.270   2279.226   2211.276     67.950    475.985   2199.435    475.985    488.115    475.985
118.370   2007.000   1962.270     44.730    476.176   1951.010    476.176    487.686    476.176
118.470   1778.000   1742.519     35.481    476.372   1731.779    476.372    487.323    476.372
118.570   1600.955   1550.844     50.111    476.574   1540.575    476.574    487.019    476.574
118.670   1418.400   1385.476     32.923    476.782   1375.637    476.782    486.764    476.782
118.770   1183.000   1244.234    -61.234    476.995   1234.791    476.995    486.552    476.995
118.870   1134.000   1124.696      9.304    477.215   1115.621    477.215    486.379    477.215
118.970    975.000   1024.346    -49.346    477.441   1015.613    477.441    486.242    477.441
119.070    935.936    940.693     -4.757    477.673    932.280    477.673    486.136    477.673
119.170    872.000    871.363      0.637    477.911    863.250    477.911    486.060    477.911
119.270    834.349    814.166     20.183    478.156    806.335    478.156    486.012    478.156
119.370    777.000    767.137      9.863    478.406    759.570    478.406    485.991    478.406
119.470    661.000    728.550    -67.550    478.663    721.230    478.663    485.995    478.663
119.570    670.000    696.922    -26.922    478.926    689.832    478.926    486.023    478.926
119.670    640.676    671.001    -30.325    479.196    664.126    479.196    486.076    479.196
119.770    608.357    649.748    -41.391    479.472    643.070    479.472    486.153    479.472
119.870    638.445    632.310      6.135    479.755    625.814    479.755    486.253    479.755
119.970    588.191    617.999    -29.807    480.045    611.668    480.045    486.377    480.045
120.070    577.572    606.262    -28.690    480.341    600.079    480.341    486.525    480.341
120.170    602.000    596.662      5.338    480.643    590.609    480.643    486.698    480.643
120.270    546.000    588.853    -42.853    480.953    582.912    480.953    486.896    480.953
120.370    548.000    582.566    -34.566    481.269    576.717    481.269    487.120    481.269
120.470    612.000    577.589     34.411    481.592    571.814    481.592    487.371    481.592
120.570    551.400    573.760    -22.361    481.922    568.036    481.922    487.650    481.922
120.670    570.127    570.952     -0.826    482.259    565.258    482.259    487.958    482.259
120.770    614.673    569.068     45.605    482.603    563.379    482.603    488.296    482.603
120.870    541.000    568.029    -27.029    482.954    562.323    482.954    488.666    482.954
120.970    619.000    567.776     51.224    483.313    562.026    483.313    489.068    483.313
121.070    560.000    568.256     -8.256    483.678    562.438    483.678    489.504    483.678
121.170    599.000    569.426     29.574    484.051    563.511    484.051    489.974    484.051
121.270    579.739    571.242      8.497    484.431    565.205    484.431    490.479    484.431
121.370    596.211    573.663     22.549    484.818    567.475    484.818    491.018    484.818
121.470    558.547    576.640    -18.093    485.213    570.274    485.213    491.592    485.213
121.570    585.000    580.122      4.878    485.616    573.552    485.616    492.201    485.616
121.670    573.000    584.049    -11.049    486.026    577.250    486.026    492.842    486.026
121.770    624.000    588.352     35.648    486.443    581.300    486.443    493.515    486.443
121.870    549.593    592.954    -43.361    486.868    585.629    486.868    494.216    486.868
121.970    614.479    597.768     16.712    487.301    590.151    487.301    494.943    487.301
122.070    567.000    602.698    -35.698    487.742    594.776    487.742    495.692    487.742
122.170    648.380    607.639     40.740    488.191    599.404    488.191    496.457    488.191
122.270    581.637    612.485    -30.847    488.647    603.929    488.647    497.236    488.647
122.370    622.000    617.119      4.881    489.112    608.244    489.112    498.023    489.112
122.470    604.000    621.428    -17.428    489.584    612.240    489.584    498.810    489.584
122.570    625.000    625.298     -0.298    490.065    615.812    490.065    499.590    490.065
122.670    610.000    628.626    -18.626    490.553    618.865    490.553    500.357    490.553
122.770    590.000    631.324    -41.324    491.050    621.317    491.050    501.101    491.050
122.870    660.000    633.321     26.679    491.555    623.108    491.555    501.814    491.555
122.970    622.000    634.575    -12.575    492.069    624.199    492.069    502.491    492.069
123.070    647.000    635.065     11.935    492.591    624.580    492.591    503.122    492.591
123.170    663.880    634.801     29.079    493.121    624.265    493.121    503.703    493.121
123.270    657.000    633.816     23.184    493.660    623.291    493.660    504.231    493.660
123.370    683.000    632.165     50.835    494.208    621.714    494.208    504.704    494.208
123.470    613.000    629.916    -16.916    494.764    619.601    494.764    505.122    494.764
123.570    652.000    627.150     24.850    495.329    617.031    495.329    505.488    495.329
123.670    586.636    623.953    -37.317    495.902    614.085    495.902    505.809    495.902
123.770    641.000    620.414     20.586    496.485    610.845    496.485    506.090    496.485
123.870    631.000    616.619     14.381    497.076    607.391    497.076    506.338    497.076
123.970    608.000    612.651     -4.651    497.677    603.796    497.677    506.562    497.677
124.070    627.000    608.586     18.414    498.286    600.130    498.286    506.769    498.286
124.170    572.527    604.489    -31.962    498.904    596.451    498.904    506.967    498.904
124.270    600.000    600.417     -0.417    499.532    592.807    499.532    507.163    499.532
124.370    619.000    596.416     22.584    500.169    589.238    500.169    507.365    500.169
124.470    632.101    592.518     39.583    500.815    585.772    500.815    507.577    500.815
124.570    581.000    588.748     -7.748    501.470    582.427    501.470    507.805    501.470
124.670    641.000    585.120     55.880    502.135    579.213    502.135    508.054    502.135
124.770    569.000    581.641    -12.641    502.810    576.133    502.810    508.327    502.810
124.870    601.000    578.311     22.689    503.494    573.185    503.494    508.627    503.494
124.970    614.324    575.129     39.195    504.187    570.365    504.187    508.957    504.187
