neutron_powder_diffraction_0217
R_wp: 4.021
Temperature (K): 1074.000
Counts: 83977.00
Wavelength (Ã…): 2.52098
COMMENTS
Test file for demonstrating the .xyy file format in Reel1.0
END OF HEADER
   tth       Y_obs     Y_calc      Y_res    Background    Phase_1_Nuc    Phase_1_Mag    Phase_2_Nuc    Phase_2_Mag
  9.970    602.000    578.171     23.829    577.550    578.143    577.550    577.577    577.550
 10.070    584.000    578.184      5.816    577.494    578.157    577.494    577.522    577.494
 10.170    592.000    578.188     13.812    577.434    578.160    577.434    577.462    577.434
 10.270    608.000    578.194     29.806    577.370    578.165    577.370    577.398    577.370
 10.370    538.469    578.206    -39.737    577.301    578.177    577.301    577.329    577.301
 10.470    617.000    578.228     38.772    577.229    578.199    577.229    577.257    577.229
 10.570    626.000    578.263     47.737    577.152    578.234    577.152    577.180    577.152
 10.670    609.614    578.316     31.298    577.071    578.286    577.071    577.099    577.071
 10.770    603.000    578.392     24.608    576.985    578.363    576.985    577.014    576.985
 10.870    652.000    578.500     73.500    576.896    578.471    576.896    576.925    576.896
 10.970    613.000    578.652     34.348    576.803    578.622    576.803    576.832    576.803
 11.070    598.734    578.863     19.871    576.706    578.833    576.706    576.735    576.706
 11.170    610.000    579.158     30.842    576.605    579.128    576.605    576.634    576.605
 11.270    573.467    579.575     -6.108    576.500    579.543    576.500    576.530    576.500
 11.370    582.000    580.175      1.825    576.391    580.141    576.391    576.422    576.391
 11.470    596.000    581.093     14.907    576.278    581.059    576.278    576.310    576.278
 11.570    571.000    582.714    -11.714    576.162    582.679    576.162    576.194    576.162
 11.670    594.000    586.172      7.828    576.042    586.134    576.042    576.074    576.042
 11.770    642.000    594.215     47.785    575.918    594.173    575.918    575.950    575.918
 11.870    632.000    611.471     20.529    575.791    611.419    575.791    575.823    575.791
 11.970    640.585    641.759     -1.174    575.660    641.690    575.660    575.693    575.660
 12.070    679.433    681.330     -1.897    575.526    681.238    575.526    575.559    575.526
 12.170    634.000    712.657    -78.657    575.388    712.547    575.388    575.422    575.388
 12.270    680.000    713.558    -33.558    575.246    713.436    575.246    575.292    575.246
 12.370    730.475    683.074     47.401    575.102    682.967    575.102    575.149    575.102
 12.470    605.000    643.020    -38.020    574.954    642.934    574.954    575.002    574.954
 12.570    640.311    611.728     28.583    574.802    611.660    574.802    574.850    574.802
 12.670    583.000    593.571    -10.571    574.647    593.512    574.647    574.696    574.647
 12.770    557.000    584.907    -27.907    574.489    584.853    574.489    574.538    574.489
 12.870    553.841    581.030    -27.189    574.328    580.977    574.328    574.377    574.328
 12.970    587.000    579.077      7.923    574.164    579.025    574.164    574.213    574.164
 13.070    529.739    577.860    -48.121    573.996    577.808    573.996    574.046    573.996
 13.170    557.195    576.978    -19.782    573.825    576.920    573.825    573.881    573.825
 13.270    544.433    576.279    -31.846    573.652    576.221    573.652    573.709    573.652
 13.370    551.000    575.703    -24.703    573.475    575.645    573.475    573.532    573.475
 13.470    566.000    575.214     -9.214    573.295    575.155    573.295    573.353    573.295
 13.570    582.000    574.786      7.214    573.113    574.727    573.113    573.170    573.113
 13.670    557.000    574.403    -17.403    572.927    574.344    572.927    572.985    572.927
 13.770    612.157    574.054     38.103    572.739    573.995    572.739    572.797    572.739
 13.870    614.000    573.730     40.270    572.547    573.671    572.547    572.606    572.547
 13.970    580.608    573.426      7.183    572.353    573.366    572.353    572.412    572.353
 14.070    585.000    573.136     11.864    572.156    573.076    572.156    572.216    572.156
 14.170    586.000    572.857     13.143    571.957    572.797    571.957    572.017    571.957
 14.270    548.000    572.587    -24.587    571.755    572.527    571.755    571.815    571.755
 14.370    597.436    572.324     25.112    571.550    572.264    571.550    571.610    571.550
 14.470    548.000    572.066    -24.066    571.342    572.005    571.342    571.403    571.342
 14.570    591.282    571.812     19.469    571.132    571.751    571.132    571.193    571.132
 14.670    544.000    571.561    -27.561    570.920    571.500    570.920    570.981    570.920
 14.770    592.627    571.313     21.314    570.705    571.251    570.705    570.766    570.705
 14.870    592.000    571.068     20.932    570.487    571.006    570.487    570.549    570.487
 14.970    571.953    570.824      1.129    570.267    570.761    570.267    570.330    570.267
 15.070    595.973    570.578     25.395    570.045    570.515    570.045    570.108    570.045
 15.170    547.000    570.332    -23.332    569.820    570.269    569.820    569.883    569.820
 15.270    594.267    570.087     24.180    569.593    570.023    569.593    569.657    569.593
 15.370    556.000    569.842    -13.842    569.364    569.777    569.364    569.428    569.364
 15.470    549.588    569.598    -20.010    569.132    569.530    569.132    569.200    569.132
 15.570    613.959    569.351     44.608    568.898    569.282    568.898    568.967    568.898
 15.670    602.000    569.104     32.896    568.662    569.034    568.662    568.732    568.662
 15.770    588.912    568.855     20.056    568.424    568.785    568.424    568.495    568.424
 15.870    580.000    568.606     11.394    568.184    568.535    568.184    568.255    568.184
 15.970    569.178    568.355      0.823    567.941    568.283    567.941    568.013    567.941
 16.070    557.000    568.103    -11.103    567.697    568.031    567.697    567.769    567.697
 16.170    582.352    567.850     14.502    567.451    567.777    567.451    567.523    567.451
 16.270    548.143    567.596    -19.452    567.202    567.522    567.202    567.275    567.202
 16.370    544.000    567.341    -23.341    566.952    567.267    566.952    567.025    566.952
 16.470    549.000    567.085    -18.085    566.699    567.011    566.699    566.774    566.699
 16.570    524.000    566.827    -42.827    566.445    566.753    566.445    566.520    566.445
 16.670    541.000    566.568    -25.568    566.189    566.492    566.189    566.264    566.189
 16.770    579.000    566.307     12.693    565.931    566.231    565.931    566.007    565.931
 16.870    596.000    566.044     29.956    565.672    565.968    565.672    565.748    565.672
 16.970    569.000    565.781      3.219    565.410    565.704    565.410    565.487    565.410
 17.070    596.000    565.516     30.484    565.147    565.439    565.147    565.224    565.147
 17.170    590.000    565.250     24.750    564.882    565.172    564.882    564.960    564.882
 17.270    574.264    564.982      9.282    564.616    564.904    564.616    564.694    564.616
 17.370    553.000    564.713    -11.713    564.348    564.634    564.348    564.426    564.348
 17.470    560.279    564.443     -4.165    564.078    564.364    564.078    564.157    564.078
 17.570    549.028    564.172    -15.144    563.806    564.093    563.806    563.886    563.806
 17.670    588.000    563.902     24.098    563.534    563.822    563.534    563.614    563.534
 17.770    575.000    563.629     11.371    563.259    563.548    563.259    563.340    563.259
 17.870    518.244    563.356    -45.111    562.983    563.272    562.983    563.066    562.983
 17.970    522.979    563.080    -40.101    562.706    562.996    562.706    562.790    562.706
 18.070    540.000    562.802    -22.802    562.427    562.718    562.427    562.512    562.427
 18.170    594.051    562.524     31.527    562.147    562.439    562.147    562.232    562.147
 18.270    550.000    562.245    -12.245    561.866    562.159    561.866    561.951    561.866
 18.370    578.000    561.964     16.036    561.583    561.878    561.583    561.669    561.583
 18.470    596.014    561.683     34.331    561.299    561.596    561.299    561.386    561.299
 18.570    517.239    561.400    -44.161    561.013    561.312    561.013    561.101    561.013
 18.670    594.620    561.117     33.503    560.726    561.028    560.726    560.815    560.726
 18.770    580.142    560.832     19.310    560.439    560.743    560.439    560.528    560.439
 18.870    572.000    560.547     11.453    560.149    560.457    560.149    560.239    560.149
 18.970    581.000    560.261     20.739    559.859    560.170    559.859    559.950    559.859
 19.070    599.115    559.974     39.141    559.568    559.883    559.568    559.659    559.568
 19.170    603.906    559.686     44.220    559.275    559.594    559.275    559.367    559.275
 19.270    583.000    559.398     23.602    558.982    559.305    558.982    559.075    558.982
 19.370    526.000    559.108    -33.108    558.687    559.015    558.687    558.781    558.687
 19.470    596.814    558.818     37.995    558.391    558.724    558.391    558.486    558.391
 19.570    550.000    558.529     -8.529    558.095    558.433    558.095    558.190    558.095
 19.670    525.000    558.243    -33.243    557.797    558.142    557.797    557.898    557.797
 19.770    573.000    557.953     15.047    557.499    557.849    557.499    557.602    557.499
 19.870    532.000    557.661    -25.661    557.199    557.556    557.199    557.304    557.199
 19.970    566.000    557.368      8.632    556.899    557.262    556.899    557.005    556.899
 20.070    602.294    557.074     45.220    556.598    556.968    556.598    556.704    556.598
 20.170    573.000    556.782     16.218    556.296    556.674    556.296    556.403    556.296
 20.270    556.000    556.501     -0.501    555.993    556.392    555.993    556.101    555.993
 20.370    590.341    556.216     34.124    555.689    556.107    555.689    555.799    555.689
 20.470    513.000    555.923    -42.923    555.385    555.812    555.385    555.495    555.385
 20.570    558.000    555.628      2.372    555.079    555.516    555.079    555.191    555.079
 20.670    552.000    555.333     -3.333    554.774    555.220    554.774    554.886    554.774
 20.770    536.847    555.038    -18.191    554.467    554.924    554.467    554.581    554.467
 20.870    516.000    554.743    -38.743    554.160    554.628    554.160    554.275    554.160
 20.970    570.205    554.449     15.756    553.852    554.333    553.852    553.968    553.852
 21.070    582.247    554.154     28.093    553.543    554.037    553.543    553.661    553.543
 21.170    592.265    553.860     38.405    553.234    553.742    553.234    553.353    553.234
 21.270    585.567    553.567     32.001    552.925    553.447    552.925    553.045    552.925
 21.370    540.205    553.273    -13.068    552.615    553.152    552.615    552.736    552.615
 21.470    561.000    552.981      8.019    552.304    552.858    552.304    552.427    552.304
 21.570    549.000    552.689     -3.689    551.993    552.565    551.993    552.117    551.993
 21.670    588.000    552.398     35.602    551.681    552.273    551.681    551.807    551.681
 21.770    536.000    552.117    -16.117    551.369    551.990    551.369    551.496    551.369
 21.870    548.000    551.913     -3.913    551.057    551.784    551.057    551.185    551.057
 21.970    546.000    551.650     -5.650    550.744    551.520    550.744    550.874    550.744
 22.070    570.000    551.388     18.612    550.431    551.257    550.431    550.562    550.431
 22.170    563.000    551.134     11.866    550.117    551.001    550.117    550.250    550.117
 22.270    573.000    550.857     22.143    549.803    550.723    549.803    549.938    549.803
 22.370    582.000    550.581     31.419    549.489    550.445    549.489    549.626    549.489
 22.470    577.000    550.309     26.691    549.175    550.170    549.175    549.313    549.175
 22.570    568.068    550.041     18.028    548.860    549.900    548.860    549.000    548.860
 22.670    575.000    549.782     25.218    548.545    549.640    548.545    548.687    548.545
 22.770    551.000    549.572      1.428    548.230    549.427    548.230    548.374    548.230
 22.870    496.000    549.344    -53.344    547.914    549.198    547.914    548.061    547.914
 22.970    586.000    549.105     36.895    547.599    548.957    547.599    547.748    547.599
 23.070    547.888    548.876     -0.988    547.283    548.725    547.283    547.434    547.283
 23.170    523.000    548.659    -25.659    546.967    548.506    546.967    547.121    546.967
 23.270    594.407    548.460     45.948    546.651    548.304    546.651    546.807    546.651
 23.370    511.995    548.282    -36.287    546.335    548.124    546.335    546.494    546.335
 23.470    515.000    548.134    -33.134    546.019    547.971    546.019    546.183    546.019
 23.570    580.000    548.021     31.979    545.703    547.854    545.703    545.870    545.703
 23.670    571.000    547.956     23.044    545.387    547.786    545.387    545.557    545.387
 23.770    555.000    547.958      7.042    545.071    547.786    545.071    545.244    545.071
 23.870    537.498    548.058    -10.560    544.755    547.883    544.755    544.931    544.755
 23.970    591.000    548.303     42.697    544.438    548.124    544.438    544.619    544.438
 24.070    508.427    548.815    -40.389    544.122    548.634    544.122    544.306    544.122
 24.170    605.000    549.948     55.052    543.806    549.764    543.806    543.994    543.806
 24.270    562.358    552.673      9.686    543.491    552.487    543.491    543.682    543.491
 24.370    596.000    559.093     36.907    543.175    558.908    543.175    543.370    543.175
 24.470    564.000    572.224     -8.224    542.859    572.045    542.859    543.059    542.859
 24.570    606.538    593.675     12.863    542.544    593.507    542.544    542.748    542.544
 24.670    597.000    619.277    -22.277    542.228    619.123    542.228    542.437    542.228
 24.770    617.000    636.304    -19.304    541.913    636.157    541.913    542.127    541.913
 24.870    610.000    632.120    -22.120    541.598    631.965    541.598    541.818    541.598
 24.970    605.917    610.162     -4.245    541.284    609.986    541.284    541.509    541.284
 25.070    589.000    584.609      4.391    540.969    584.408    540.969    541.200    540.969
 25.170    546.185    565.346    -19.161    540.655    565.125    540.655    540.893    540.655
 25.270    551.000    554.159     -3.159    540.341    553.924    540.341    540.585    540.341
 25.370    510.426    548.674    -38.248    540.028    548.427    540.028    540.279    540.028
 25.470    520.102    546.075    -25.973    539.714    545.819    539.714    539.974    539.714
 25.570    558.000    544.678     13.322    539.402    544.413    539.402    539.669    539.402
 25.670    524.000    543.761    -19.761    539.089    543.487    539.089    539.365    539.089
 25.770    584.000    543.074     40.926    538.777    542.789    538.777    539.062    538.777
 25.870    579.000    542.528     36.472    538.465    542.233    538.465    538.761    538.465
 25.970    556.000    542.081     13.919    538.154    541.775    538.154    538.460    538.154
 26.070    546.668    541.703      4.964    537.843    541.385    537.843    538.161    537.843
 26.170    587.745    541.386     46.359    537.532    541.055    537.532    537.864    537.532
 26.270    525.940    541.124    -15.183    537.222    540.779    537.222    537.567    537.222
 26.370    535.676    540.911     -5.235    536.913    540.550    536.913    537.273    536.913
 26.470    550.083    540.750      9.333    536.603    540.373    536.603    536.980    536.603
 26.570    512.501    540.665    -28.164    536.295    540.270    536.295    536.690    536.295
 26.670    560.000    540.635     19.365    535.987    540.220    535.987    536.402    535.987
 26.770    521.821    540.648    -18.827    535.679    540.212    535.679    536.116    535.679
 26.870    520.000    540.739    -20.739    535.372    540.278    535.372    535.833    535.372
 26.970    549.000    540.926      8.074    535.066    540.438    535.066    535.553    535.066
 27.070    532.667    541.236     -8.569    534.760    540.719    534.760    535.277    534.760
 27.170    560.000    541.712     18.288    534.455    541.161    534.455    535.005    534.455
 27.270    528.876    542.408    -13.532    534.150    541.820    534.150    534.737    534.150
 27.370    549.000    543.411      5.589    533.846    542.781    533.846    534.475    533.846
 27.470    519.671    544.897    -25.226    533.543    544.219    533.543    534.219    533.543
 27.570    557.000    547.261      9.739    533.240    546.528    533.240    533.971    533.240
 27.670    565.000    551.907     13.093    532.938    551.111    532.938    533.731    532.938
 27.770    570.828    563.594      7.234    532.637    562.723    532.637    533.501    532.637
 27.870    632.897    594.058     38.839    532.337    593.094    532.337    533.283    532.337
 27.970    656.000    661.157     -5.157    532.037    660.075    532.037    533.081    532.037
 28.070    794.000    772.367     21.633    531.738    771.140    531.738    532.896    531.738
 28.170    916.540    896.287     20.252    531.439    894.898    531.439    532.735    531.439
 28.270    938.000    957.445    -19.445    531.142    955.894    531.142    532.602    531.142
 28.370    892.212    905.892    -13.679    530.845    904.174    530.845    532.506    530.845
 28.470    766.164    794.851    -28.687    530.549    792.919    530.549    532.459    530.549
 28.570    703.000    708.963     -5.963    530.254    706.727    530.254    532.480    530.254
 28.670    681.000    691.903    -10.903    529.959    689.250    529.959    532.599    529.959
 28.770    787.301    739.025     48.276    529.666    735.799    529.666    532.875    529.666
 28.870    786.000    809.781    -23.781    529.373    805.730    529.373    533.413    529.373
 28.970    810.000    843.280    -33.280    529.081    837.967    529.081    534.400    529.081
 29.070    832.000    803.444     28.556    528.790    796.133    528.790    536.116    528.790
 29.170    724.000    722.086      1.914    528.500    711.685    528.500    538.916    528.500
 29.270    666.000    648.090     17.910    528.210    633.181    528.210    543.129    528.210
 29.370    571.000    603.392    -32.392    527.922    582.471    527.922    548.847    527.922
 29.470    551.000    584.963    -33.963    527.635    557.033    527.635    555.565    527.635
 29.570    601.000    580.321     20.679    527.348    546.023    527.348    561.645    527.348
 29.670    552.000    578.417    -26.417    527.063    541.139    527.063    564.339    527.063
 29.770    542.000    573.626    -31.626    526.778    538.506    526.778    561.896    526.778
 29.870    566.000    565.950      0.050    526.494    536.788    526.494    555.655    526.494
 29.970    560.481    557.720      2.760    526.212    535.576    526.212    548.354    526.212
 30.070    557.000    550.651      6.349    525.930    534.737    525.930    541.842    525.930
 30.170    550.365    545.387      4.978    525.649    534.243    525.649    536.791    525.649
 30.270    570.000    542.017     27.983    525.370    534.196    525.370    533.188    525.370
 30.370    518.533    540.671    -22.137    525.091    535.026    525.091    530.732    525.091
 30.470    497.477    542.140    -44.663    524.813    537.881    524.813    529.066    524.813
 30.570    543.000    548.294     -5.294    524.537    544.928    524.537    527.892    524.537
 30.670    566.000    561.337      4.663    524.261    558.568    524.261    527.009    524.261
 30.770    585.832    581.132      4.701    523.987    578.784    523.987    526.298    523.987
 30.870    591.356    601.759    -10.404    523.714    599.727    523.714    525.695    523.714
 30.970    617.000    611.186      5.814    523.441    609.408    523.441    525.165    523.441
 31.070    604.000    601.432      2.568    523.170    599.872    523.170    524.686    523.170
 31.170    605.000    579.899     25.101    522.900    578.524    522.900    524.247    522.900
 31.270    529.000    558.618    -29.618    522.631    557.396    522.631    523.838    522.631
 31.370    530.000    543.756    -13.756    522.363    542.658    522.363    523.453    522.363
 31.470    505.580    535.543    -29.963    522.097    534.548    522.097    523.088    522.097
 31.570    554.000    531.620     22.380    521.831    530.710    521.831    522.738    521.831
 31.670    540.000    529.767     10.233    521.567    528.929    521.567    522.402    521.567
 31.770    552.000    528.762     23.238    521.304    527.987    521.304    522.077    521.304
 31.870    534.000    528.115      5.885    521.042    527.394    521.042    521.761    521.042
 31.970    553.000    527.661     25.339    520.781    526.987    520.781    521.453    520.781
 32.070    574.000    527.346     46.654    520.521    526.713    520.521    521.153    520.521
 32.170    537.000    527.143      9.857    520.263    526.546    520.263    520.858    520.263
 32.270    515.000    527.044    -12.044    520.005    526.480    520.005    520.568    520.005
 32.370    571.486    527.052     44.434    519.749    526.516    519.749    520.284    519.749
 32.470    532.000    527.174      4.826    519.494    526.664    519.494    520.003    519.494
 32.570    552.000    527.428     24.572    519.241    526.941    519.241    519.727    519.241
 32.670    533.621    527.838      5.783    518.989    527.371    518.989    519.454    518.989
 32.770    549.000    528.441     20.559    518.738    527.993    518.738    519.185    518.738
 32.870    574.319    529.292     45.027    518.488    528.860    518.488    518.918    518.488
 32.970    540.000    530.471      9.529    518.239    530.054    518.239    518.655    518.239
 33.070    537.145    532.103      5.043    517.992    531.699    517.992    518.394    517.992
 33.170    516.000    534.411    -18.411    517.746    534.020    517.746    518.135    517.746
 33.270    507.936    537.913    -29.977    517.501    537.533    517.501    517.879    517.501
 33.370    558.000    544.024     13.976    517.258    543.653    517.258    517.626    517.258
 33.470    546.000    556.530    -10.530    517.016    556.167    517.016    517.374    517.016
 33.570    560.790    583.794    -23.003    516.775    583.433    516.775    517.125    516.775
 33.670    670.381    639.278     31.103    516.536    638.916    516.536    516.878    516.536
 33.770    732.000    735.462     -3.462    516.297    735.092    516.297    516.632    516.297
 33.870    920.000    868.885     51.115    516.061    868.505    516.061    516.389    516.061
 33.970   1015.000   1003.181     11.819    515.825   1002.798    515.825    516.148    515.825
 34.070   1008.717   1069.104    -60.387    515.591   1068.737    515.591    515.908    515.591
 34.170   1017.000   1019.591     -2.591    515.358   1019.255    515.358    515.670    515.358
 34.270    917.315    891.524     25.791    515.127    891.217    515.127    515.434    515.127
 34.370    790.726    754.611     36.115    514.897    754.318    514.897    515.200    514.897
 34.470    598.000    651.071    -53.071    514.668    650.782    514.668    514.968    514.668
 34.570    582.000    588.872     -6.872    514.441    588.583    514.441    514.737    514.441
 34.670    568.000    557.178     10.822    514.215    556.888    514.215    514.508    514.215
 34.770    547.154    542.216      4.938    513.991    541.927    513.991    514.280    513.991
 34.870    543.000    534.763      8.237    513.768    534.476    513.768    514.055    513.768
 34.970    537.000    530.395      6.605    513.546    530.111    513.546    513.831    513.546
 35.070    526.725    527.394     -0.670    513.326    527.112    513.326    513.608    513.326
 35.170    487.081    525.132    -38.051    513.107    524.851    513.107    513.387    513.107
 35.270    535.000    523.347     11.653    512.890    523.068    512.890    513.168    512.890
 35.370    525.000    521.900      3.100    512.674    521.623    512.674    512.951    512.674
 35.470    528.000    520.702      7.298    512.459    520.426    512.459    512.735    512.459
 35.570    477.389    519.694    -42.305    512.246    519.419    512.246    512.520    512.246
 35.670    495.000    518.831    -23.831    512.034    518.557    512.034    512.308    512.034
 35.770    472.000    518.083    -46.083    511.824    517.810    511.824    512.097    511.824
 35.870    489.830    517.426    -27.596    511.615    517.154    511.615    511.887    511.615
 35.970    547.000    516.844     30.156    511.408    516.573    511.408    511.679    511.408
 36.070    499.612    516.324    -16.712    511.202    516.053    511.202    511.473    511.202
 36.170    545.000    515.856     29.144    510.997    515.585    510.997    511.268    510.997
 36.270    524.000    515.433      8.567    510.794    515.163    510.794    511.065    510.794
 36.370    498.000    515.050    -17.050    510.593    514.780    510.593    510.863    510.593
 36.470    476.227    514.705    -38.478    510.393    514.434    510.393    510.663    510.393
 36.570    501.000    514.394    -13.394    510.194    514.124    510.194    510.465    510.194
 36.670    522.835    514.120      8.715    509.997    513.849    509.997    510.268    509.997
 36.770    535.670    513.888     21.782    509.802    513.617    509.802    510.073    509.802
 36.870    518.000    513.715      4.285    509.608    513.443    509.608    509.880    509.608
 36.970    518.000    513.649      4.351    509.415    513.377    509.415    509.688    509.415
 37.070    513.606    513.812     -0.207    509.224    513.539    509.224    509.497    509.224
 37.170    529.000    514.444     14.556    509.034    514.170    509.034    509.308    509.034
 37.270    520.000    515.897      4.103    508.846    515.623    508.846    509.121    508.846
 37.370    485.507    518.479    -32.972    508.660    518.205    508.660    508.936    508.660
 37.470    521.682    522.114     -0.432    508.475    521.839    508.475    508.752    508.475
 37.570    499.000    525.963    -26.963    508.291    525.689    508.291    508.569    508.291
 37.670    485.700    528.398    -42.698    508.109    528.124    508.109    508.388    508.109
 37.770    526.000    528.054     -2.054    507.929    527.780    507.929    508.209    507.929
 37.870    492.000    525.280    -33.280    507.750    525.008    507.750    508.031    507.750
 37.970    490.000    521.567    -31.567    507.572    521.294    507.572    507.856    507.572
 38.070    528.000    518.068      9.932    507.396    517.794    507.396    507.681    507.396
 38.170    538.531    515.234     23.297    507.222    514.957    507.222    507.508    507.222
 38.270    523.000    513.151      9.849    507.049    512.870    507.049    507.337    507.049
 38.370    467.000    511.726    -44.726    506.878    511.441    506.878    507.168    506.878
 38.470    517.000    510.789      6.211    506.708    510.500    506.708    507.000    506.708
 38.570    471.000    510.176    -39.176    506.540    509.883    506.540    506.833    506.540
 38.670    492.000    509.758    -17.758    506.373    509.463    506.373    506.669    506.373
 38.770    497.000    509.449    -12.449    506.208    509.152    506.208    506.506    506.208
 38.870    485.000    509.198    -24.198    506.044    508.898    506.044    506.344    506.044
 38.970    517.000    508.979      8.021    505.882    508.676    505.882    506.185    505.882
 39.070    533.063    508.779     24.283    505.721    508.475    505.721    506.026    505.721
 39.170    463.314    508.595    -45.281    505.562    508.288    505.562    505.870    505.562
 39.270    517.289    508.423      8.867    505.405    508.113    505.405    505.715    505.405
 39.370    548.910    508.261     40.650    505.249    507.948    505.249    505.562    505.249
 39.470    464.909    508.108    -43.198    505.095    507.792    505.095    505.410    505.095
 39.570    495.714    507.963    -12.250    504.942    507.645    504.942    505.260    504.942
 39.670    478.310    507.826    -29.517    504.791    507.505    504.791    505.112    504.791
 39.770    467.000    507.698    -40.698    504.641    507.373    504.641    504.965    504.641
 39.870    474.000    507.576    -33.576    504.493    507.249    504.493    504.820    504.493
 39.970    475.580    507.463    -31.882    504.346    507.132    504.346    504.677    504.346
 40.070    528.000    507.357     20.643    504.201    507.023    504.201    504.536    504.201
 40.170    526.000    507.259     18.741    504.058    506.922    504.058    504.396    504.058
 40.270    492.000    507.171    -15.171    503.916    506.830    503.916    504.257    503.916
 40.370    524.158    507.092     17.066    503.776    506.748    503.776    504.121    503.776
 40.470    476.617    507.024    -30.407    503.637    506.676    503.637    503.986    503.637
 40.570    538.681    506.968     31.712    503.499    506.616    503.499    503.852    503.499
 40.670    507.932    506.926      1.006    503.364    506.569    503.364    503.721    503.364
 40.770    514.374    506.899      7.475    503.230    506.538    503.230    503.591    503.230
 40.870    503.480    506.890     -3.411    503.097    506.525    503.097    503.463    503.097
 40.970    497.000    506.904     -9.904    502.966    506.534    502.966    503.336    502.966
 41.070    447.000    506.943    -59.943    502.837    506.569    502.837    503.211    502.837
 41.170    551.069    507.015     44.054    502.709    506.636    502.709    503.088    502.709
 41.270    492.435    507.127    -14.692    502.582    506.743    502.582    502.967    502.582
 41.370    478.000    507.289    -29.289    502.458    506.901    502.458    502.847    502.458
 41.470    467.000    507.518    -40.518    502.334    507.125    502.334    502.729    502.334
 41.570    474.325    507.838    -33.513    502.213    507.439    502.213    502.613    502.213
 41.670    515.663    508.290      7.373    502.093    507.886    502.093    502.499    502.093
 41.770    473.000    508.973    -35.973    501.974    508.563    501.974    502.386    501.974
 41.870    498.511    510.119    -11.608    501.857    509.703    501.857    502.275    501.857
 41.970    539.562    512.281     27.281    501.742    511.860    501.742    502.166    501.742
 42.070    478.057    516.576    -38.519    501.628    516.151    501.628    502.059    501.628
 42.170    500.000    524.823    -24.823    501.515    524.395    501.515    501.953    501.515
 42.270    533.000    539.142     -6.142    501.404    538.713    501.404    501.849    501.404
 42.370    525.000    560.682    -35.682    501.295    560.256    501.295    501.747    501.295
 42.470    552.000    587.690    -35.690    501.187    587.271    501.187    501.647    501.187
 42.570    615.776    613.843      1.933    501.081    613.431    501.081    501.548    501.081
 42.670    599.000    628.827    -29.827    500.977    628.418    500.977    501.452    500.977
 42.770    602.000    624.768    -22.768    500.873    624.352    500.873    501.357    500.873
 42.870    604.000    604.064     -0.064    500.772    603.631    500.772    501.264    500.772
 42.970    573.562    576.538     -2.976    500.672    576.081    500.672    501.173    500.672
 43.070    520.000    551.159    -31.159    500.573    550.678    500.573    501.084    500.573
 43.170    511.000    532.335    -21.335    500.476    531.833    500.476    500.997    500.476
 43.270    502.000    520.468    -18.468    500.381    519.948    500.381    500.911    500.381
 43.370    579.000    513.851     65.149    500.287    513.316    500.287    500.828    500.287
 43.470    536.000    510.410     25.590    500.195    509.861    500.195    500.747    500.195
 43.570    467.785    508.600    -40.814    500.104    508.039    500.104    500.668    500.104
 43.670    553.526    507.552     45.975    500.014    506.978    500.014    500.590    500.014
 43.770    501.000    506.860     -5.860    499.927    506.273    499.927    500.515    499.927
 43.870    519.000    506.355     12.645    499.840    505.755    499.840    500.442    499.840
 43.970    505.802    505.966     -0.164    499.755    505.352    499.755    500.371    499.755
 44.070    490.000    505.659    -15.659    499.672    505.031    499.672    500.302    499.672
 44.170    502.784    505.415     -2.631    499.590    504.771    499.590    500.235    499.590
 44.270    543.999    505.220     38.779    499.510    504.560    499.510    500.171    499.510
 44.370    545.000    505.064     39.936    499.431    504.387    499.431    500.109    499.431
 44.470    500.031    504.942     -4.911    499.354    504.247    499.354    500.049    499.354
 44.570    553.000    504.848     48.152    499.278    504.134    499.278    499.992    499.278
 44.670    521.000    504.778     16.222    499.204    504.045    499.204    499.937    499.204
 44.770    532.000    504.729     27.271    499.131    503.976    499.131    499.885    499.131
 44.870    492.000    504.700    -12.700    499.060    503.925    499.060    499.835    499.060
 44.970    470.000    504.690    -34.690    498.990    503.892    498.990    499.789    498.990
 45.070    514.000    504.697      9.303    498.922    503.874    498.922    499.745    498.922
 45.170    531.170    504.721     26.449    498.855    503.872    498.855    499.704    498.855
 45.270    523.000    504.761     18.239    498.790    503.885    498.790    499.666    498.790
 45.370    503.000    504.818     -1.818    498.726    503.913    498.726    499.631    498.726
 45.470    515.000    504.893     10.107    498.663    503.956    498.663    499.600    498.663
 45.570    524.000    504.985     19.015    498.602    504.015    498.602    499.572    498.602
 45.670    515.000    505.096      9.904    498.543    504.090    498.543    499.548    498.543
 45.770    481.862    505.227    -23.365    498.484    504.183    498.484    499.528    498.484
 45.870    512.000    505.380      6.620    498.428    504.295    498.428    499.513    498.428
 45.970    533.000    505.558     27.442    498.373    504.429    498.373    499.502    498.373
 46.070    545.000    505.762     39.238    498.319    504.585    498.319    499.496    498.319
 46.170    507.000    505.997      1.003    498.267    504.769    498.267    499.495    498.267
 46.270    518.000    506.268     11.732    498.216    504.983    498.216    499.500    498.216
 46.370    502.547    506.579     -4.032    498.166    505.233    498.166    499.511    498.166
 46.470    488.530    506.938    -18.408    498.118    505.526    498.118    499.529    498.118
 46.570    460.831    507.356    -46.525    498.072    505.871    498.072    499.555    498.072
 46.670    518.000    507.847     10.153    498.026    506.284    498.026    499.589    498.026
 46.770    477.000    508.438    -31.438    497.983    506.787    497.983    499.633    497.983
 46.870    471.000    509.180    -38.180    497.940    507.432    497.940    499.686    497.940
 46.970    505.000    510.196     -5.196    497.899    508.341    497.899    499.752    497.899
 47.070    501.000    511.751    -10.751    497.860    509.777    497.860    499.831    497.860
 47.170    486.000    514.363    -28.363    497.821    512.254    497.821    499.925    497.821
 47.270    530.000    518.885     11.115    497.785    516.625    497.785    500.037    497.785
 47.370    512.000    526.412    -14.412    497.749    523.979    497.749    500.169    497.749
 47.470    521.000    537.845    -16.845    497.715    535.213    497.715    500.325    497.715
 47.570    554.000    553.126      0.874    497.683    550.266    497.683    500.509    497.683
 47.670    618.203    570.410     47.793    497.651    567.291    497.651    500.727    497.651
 47.770    610.000    585.613     24.387    497.621    582.197    497.621    500.984    497.621
 47.870    558.470    593.277    -34.807    497.593    589.524    497.593    501.289    497.593
 47.970    549.879    590.165    -40.286    497.566    586.024    497.566    501.654    497.566
 48.070    553.815    578.496    -24.681    497.540    573.900    497.540    502.093    497.540
 48.170    543.000    563.590    -20.590    497.515    558.444    497.515    502.630    497.515
 48.270    543.000    550.051     -7.051    497.492    544.223    497.492    503.300    497.492
 48.370    534.547    540.357     -5.810    497.470    533.650    497.470    504.164    497.470
 48.470    555.060    535.091     19.969    497.450    527.204    497.450    505.329    497.450
 48.570    510.000    533.760    -23.760    497.430    524.206    497.430    506.979    497.430
 48.670    523.803    535.647    -11.844    497.412    523.636    497.412    509.420    497.412
 48.770    519.000    540.370    -21.370    497.396    524.656    497.396    513.107    497.396
 48.870    546.000    548.060     -2.060    497.380    526.788    497.380    518.649    497.380
 48.970    588.446    559.261     29.185    497.366    529.892    497.366    526.732    497.366
 49.070    563.000    574.716    -11.716    497.354    534.136    497.354    537.929    497.354
 49.170    591.000    595.243     -4.243    497.342    540.159    497.342    552.420    497.342
 49.270    637.000    621.983     15.017    497.332    549.703    497.332    569.604    497.332
 49.370    649.000    657.468     -8.468    497.323    567.152    497.323    587.627    497.323
 49.470    743.000    707.967     35.033    497.316    602.261    497.316    602.998    497.316
 49.570    827.000    787.241     39.759    497.309    673.329    497.309    611.179    497.309
 49.670    886.000    919.564    -33.564    497.304    807.705    497.304    609.091    497.304
 49.770   1117.494   1134.928    -17.434    497.300   1034.498    497.300    597.619    497.300
 49.870   1461.000   1450.000     11.000    497.298   1366.376    497.298    580.774    497.298
 49.970   1830.000   1841.173    -11.173    497.296   1775.499    497.296    562.813    497.296
 50.070   2174.717   2227.334    -52.617    497.296   2177.949    497.296    546.563    497.296
 50.170   2465.000   2482.413    -17.413    497.297   2446.347    497.297    533.342    497.297
 50.270   2406.000   2496.358    -90.358    497.300   2470.352    497.300    523.405    497.300
 50.370   2333.000   2258.038     74.962    497.303   2239.145    497.303    516.385    497.303
 50.470   1869.589   1866.374      3.215    497.308   1852.258    497.308    511.639    497.308
 50.570   1512.678   1452.430     60.248    497.314   1441.435    497.314    508.500    497.314
 50.670   1082.000   1109.622    -27.622    497.321   1100.674    497.321    506.414    497.321
 50.770    866.000    874.187     -8.187    497.329    866.629    497.329    504.986    497.329
 50.870    692.000    737.206    -45.206    497.338    730.648    497.338    503.964    497.338
 50.970    631.000    668.216    -37.216    497.349    662.420    497.349    503.195    497.349
 51.070    667.984    635.418     32.566    497.361    630.226    497.361    502.594    497.361
 51.170    579.000    616.221    -37.221    497.374    611.520    497.374    502.111    497.374
 51.270    615.219    599.602     15.618    497.388    595.304    497.388    501.716    497.388
 51.370    608.000    583.083     24.917    497.403    579.121    497.403    501.390    497.403
 51.470    582.314    567.805     14.508    497.419    564.124    497.419    501.119    497.419
 51.570    598.000    555.220     42.780    497.437    551.777    497.437    500.893    497.437
 51.670    594.049    545.968     48.082    497.455    542.727    497.455    500.705    497.455
 51.770    578.000    539.856     38.144    497.475    536.789    497.475    500.548    497.475
 51.870    576.000    536.232     39.768    497.496    533.314    497.496    500.419    497.496
 51.970    563.000    534.374     28.626    497.518    531.583    497.518    500.312    497.518
 52.070    526.000    533.736     -7.736    497.541    531.054    497.541    500.225    497.541
 52.170    533.000    534.018     -1.018    497.565    531.430    497.565    500.155    497.565
 52.270    520.918    535.164    -14.246    497.590    532.655    497.590    500.101    497.590
 52.370    506.800    537.376    -30.576    497.616    534.934    497.616    500.061    497.616
 52.470    590.195    541.274     48.921    497.644    538.887    497.644    500.032    497.644
 52.570    597.000    548.251     48.749    497.672    545.909    497.672    500.014    497.672
 52.670    559.639    561.033     -1.394    497.701    558.728    497.701    500.007    497.701
 52.770    587.485    584.239      3.246    497.732    581.961    497.732    500.009    497.732
 52.870    648.870    624.381     24.489    497.763    622.124    497.763    500.019    497.763
 52.970    733.452    688.557     44.895    497.796    686.312    497.796    500.037    497.796
 53.070    731.059    781.317    -50.258    497.829    779.079    497.829    500.063    497.829
 53.170    977.000    900.223     76.777    497.864    897.988    497.864    500.095    497.864
 53.270   1047.000   1031.607     15.393    497.899   1029.373    497.899    500.135    497.899
 53.370   1212.480   1148.689     63.791    497.935   1146.455    497.935    500.182    497.935
 53.470   1156.106   1216.471    -60.365    497.973   1214.234    497.973    500.235    497.973
 53.570   1213.662   1209.297      4.366    498.011   1207.052    498.011    500.294    498.011
 53.670   1095.000   1130.401    -35.401    498.051   1128.137    498.051    500.360    498.051
 53.770   1027.894   1008.890     19.004    498.091   1006.593    498.091    500.432    498.091
 53.870    825.000    878.918    -53.918    498.132    876.577    498.132    500.510    498.132
 53.970    784.553    764.853     19.700    498.175    762.461    498.175    500.595    498.175
 54.070    685.469    678.050      7.419    498.218    675.601    498.218    500.687    498.218
 54.170    594.000    619.327    -25.327    498.262    616.817    498.262    500.785    498.262
 54.270    546.000    583.384    -37.384    498.307    580.808    498.307    500.891    498.307
 54.370    639.000    563.083     75.917    498.353    560.437    498.353    501.004    498.353
 54.470    584.000    552.229     31.771    498.400    549.507    498.400    501.125    498.400
 54.570    588.018    546.582     41.436    498.447    543.778    498.447    501.253    498.447
 54.670    584.337    543.701     40.636    498.496    540.808    498.496    501.391    498.496
 54.770    536.000    542.357     -6.357    498.546    539.367    498.546    501.537    498.546
 54.870    580.000    541.991     38.009    498.596    538.895    498.596    501.693    498.596
 54.970    566.000    542.373     23.627    498.647    539.161    498.647    501.860    498.647
 55.070    602.000    543.419     58.581    498.699    540.081    498.699    502.038    498.699
 55.170    548.393    545.119      3.274    498.752    541.644    498.752    502.228    498.752
 55.270    571.000    547.515     23.485    498.806    543.890    498.806    502.432    498.806
 55.370    551.000    550.695      0.305    498.861    546.906    498.861    502.651    498.861
 55.470    519.000    554.822    -35.822    498.916    550.854    498.916    502.885    498.916
 55.570    587.884    560.204     27.679    498.972    556.040    498.972    503.137    498.972
 55.670    582.000    567.482     14.518    499.029    563.103    499.029    503.409    499.029
 55.770    603.132    578.049     25.084    499.087    573.433    499.087    503.703    499.087
 55.870    559.000    594.881    -35.881    499.145    590.004    499.145    504.021    499.145
 55.970    626.000    623.864      2.136    499.205    618.699    499.205    504.366    499.205
 56.070    703.242    675.382     27.860    499.265    669.895    499.265    504.742    499.265
 56.170    712.000    765.199    -53.199    499.326    759.353    499.326    505.154    499.326
 56.270    880.000    912.926    -32.926    499.387    906.677    499.387    505.605    499.387
 56.370   1192.000   1136.317     55.683    499.450   1129.621    499.450    506.101    499.450
 56.470   1331.000   1441.282   -110.282    499.513   1434.092    499.513    506.650    499.513
 56.570   1777.000   1810.305    -33.305    499.577   1802.576    499.577    507.259    499.577
 56.670   2137.000   2193.999    -56.999    499.641   2185.686    499.641    507.939    499.641
 56.770   2423.837   2511.306    -87.469    499.706   2502.357    499.706    508.701    499.706
 56.870   2680.094   2669.286     10.809    499.772   2659.628    499.772    509.560    499.772
 56.970   2632.000   2612.081     19.919    499.839   2601.600    499.839    510.534    499.839
 57.070   2280.811   2362.507    -81.696    499.906   2351.033    499.906    511.647    499.906
 57.170   1950.231   2002.844    -52.613    499.974   1990.163    499.974    512.928    499.974
 57.270   1700.000   1623.082     76.918    500.043   1608.946    500.043    514.419    500.043
 57.370   1273.235   1288.233    -14.997    500.112   1272.352    500.112    516.183    500.112
 57.470   1071.000   1030.346     40.654    500.182   1012.349    500.182    518.315    500.182
 57.570    904.000    853.584     50.416    500.253    832.948    500.253    520.977    500.253
 57.670    748.084    745.061      3.023    500.324    720.997    500.324    524.440    500.324
 57.770    741.000    686.243     54.757    500.395    657.512    500.395    529.156    500.395
 57.870    688.490    661.058     27.433    500.468    625.703    500.468    535.836    500.468
 57.970    646.000    659.530    -13.530    500.541    614.539    500.541    545.534    500.541
 58.070    727.231    677.968     49.263    500.614    618.914    500.614    559.662    500.614
 58.170    736.146    717.270     18.876    500.688    638.035    500.688    579.907    500.688
 58.270    785.000    780.536      4.464    500.763    673.306    500.763    607.966    500.763
 58.370    843.000    870.356    -27.356    500.838    726.056    500.838    645.101    500.838
 58.470    987.884    986.358      1.526    500.914    795.688    500.914    691.538    500.914
 58.570   1169.309   1123.118     46.191    500.991    878.282    500.991    745.778    500.991
 58.670   1316.417   1269.036     47.382    501.067    966.242    501.067    803.817    501.067
 58.770   1402.415   1407.286     -4.871    501.145   1050.022    501.145    858.377    501.145
 58.870   1550.000   1518.899     31.101    501.223   1121.171    501.223    898.937    501.223
 58.970   1576.000   1586.224    -10.224    501.301   1172.884    501.301    914.649    501.301
 59.070   1597.000   1597.312     -0.312    501.380   1198.217    501.380    900.504    501.380
 59.170   1564.000   1551.977     12.023    501.459   1192.369    501.459    861.113    501.459
 59.270   1517.000   1464.314     52.686    501.539   1158.725    501.539    807.177    501.539
 59.370   1435.000   1357.318     77.682    501.620   1109.668    501.620    749.306    501.620
 59.470   1252.000   1254.003     -2.003    501.700   1060.768    501.700    694.945    501.700
 59.570   1211.000   1173.186     37.814    501.782   1026.696    501.782    648.244    501.782
 59.670   1119.214   1130.285    -11.072    501.863   1021.262    501.863    610.813    501.863
 59.770   1078.135   1136.728    -58.593    501.945   1056.052    501.945    582.496    501.945
 59.870   1195.000   1195.369     -0.369    502.028   1135.145    502.028    562.069    502.028
 59.970   1331.000   1295.869     35.131    502.111   1249.898    502.111    547.846    502.111
 60.070   1386.000   1413.348    -27.348    502.194   1377.133    502.194    538.136    502.194
 60.170   1600.000   1511.137     88.863    502.278   1481.621    502.278    531.509    502.278
 60.270   1603.000   1550.410     52.590    502.362   1525.615    502.362    526.896    502.362
 60.370   1579.000   1508.523     70.477    502.446   1487.190    502.446    523.571    502.446
 60.470   1442.613   1392.786     49.827    502.531   1374.099    502.531    521.075    502.531
 60.570   1180.306   1233.177    -52.871    502.616   1216.574    502.616    519.134    502.616
 60.670   1131.000   1064.122     66.878    502.702   1049.193    502.702    517.589    502.702
 60.770    929.000    912.217     16.783    502.787    898.636    502.787    516.352    502.787
 60.870    766.558    792.183    -25.624    502.874    779.678    502.874    515.375    502.874
 60.970    726.854    707.840     19.014    502.960    696.166    502.960    514.633    502.960
 61.070    703.000    655.856     47.144    503.047    644.784    503.047    514.114    503.047
 61.170    626.316    630.366     -4.049    503.134    619.675    503.134    513.814    503.134
 61.270    655.000    626.779     28.221    503.221    616.257    503.221    513.725    503.221
 61.370    660.000    643.847     16.153    503.309    633.296    503.309    513.830    503.309
 61.470    650.000    683.812    -33.812    503.397    673.069    503.397    514.093    503.397
 61.570    779.000    750.836     28.164    503.485    739.797    503.485    514.453    503.485
 61.670    821.309    848.032    -26.723    503.573    836.691    503.573    514.816    503.573
 61.770    968.000    973.794     -5.794    503.662    962.275    503.662    515.051    503.662
 61.870   1054.473   1118.518    -64.045    503.750   1107.083    503.750    515.029    503.750
 61.970   1172.000   1262.941    -90.941    503.839   1251.930    503.839    514.677    503.839
 62.070   1427.314   1379.351     47.962    503.929   1369.083    503.929    514.026    503.929
 62.170   1390.000   1438.195    -48.195    504.018   1428.881    504.018    513.186    504.018
 62.270   1386.553   1421.513    -34.960    504.108   1413.236    504.108    512.281    504.108
 62.370   1273.489   1334.256    -60.766    504.198   1326.987    504.198    511.407    504.198
 62.470   1194.000   1200.730     -6.730    504.288   1194.368    504.288    510.627    504.288
 62.570   1021.000   1050.854    -29.854    504.378   1045.265    504.378    509.969    504.378
 62.670    955.417    909.321     46.096    504.468    904.363    504.468    509.440    504.468
 62.770    734.022    791.352    -57.330    504.558    786.895    504.558    509.032    504.558
 62.870    667.463    702.691    -35.228    504.649    698.626    504.649    508.728    504.649
 62.970    652.149    641.865     10.284    504.740    638.107    504.740    508.507    504.740
 63.070    601.000    603.410     -2.410    504.830    599.895    504.830    508.349    504.830
 63.170    590.000    580.837      9.163    504.921    577.522    504.921    508.237    504.921
 63.270    575.000    568.576      6.424    505.012    565.428    505.012    508.158    505.012
 63.370    614.000    562.797     51.203    505.103    559.792    505.103    508.104    505.103
 63.470    587.000    561.475     25.525    505.194    558.595    505.194    508.068    505.194
 63.570    559.000    564.142     -5.142    505.286    561.373    505.286    508.045    505.286
 63.670    581.000    571.613      9.387    505.377    568.944    505.377    508.033    505.377
 63.770    636.670    585.728     50.942    505.468    583.146    505.468    508.031    505.468
 63.870    577.000    608.990    -31.990    505.559    606.483    505.559    508.037    505.559
 63.970    620.000    643.955    -23.955    505.651    641.513    505.651    508.050    505.651
 64.070    686.000    692.294     -6.294    505.742    689.907    505.742    508.069    505.742
 64.170    757.000    753.642      3.358    505.833    751.301    505.833    508.094    505.833
 64.270    795.000    824.513    -29.513    505.925    822.213    505.925    508.124    505.925
 64.370    947.000    897.616     49.384    506.016    895.356    506.016    508.159    506.016
 64.470    952.128    962.104     -9.975    506.107    959.886    506.107    508.198    506.107
 64.570   1028.000   1005.874     22.126    506.199   1003.707    506.199    508.241    506.199
 64.670   1013.000   1020.319     -7.319    506.290   1018.211    506.290    508.287    506.290
 64.770    955.000   1004.200    -49.200    506.381   1002.159    506.381    508.336    506.381
 64.870   1003.000    963.150     39.850    506.472    961.175    506.472    508.389    506.472
 64.970    947.000    906.620     40.380    506.563    904.708    506.563    508.445    506.563
 65.070    900.628    844.764     55.865    506.654    842.907    506.654    508.504    506.654
 65.170    770.000    785.685    -15.685    506.745    783.875    506.745    508.566    506.745
 65.270    767.000    733.932     33.068    506.836    732.160    506.836    508.630    506.836
 65.370    649.000    690.792    -41.792    506.926    689.050    506.926    508.696    506.926
 65.470    608.000    655.751    -47.751    507.017    654.031    507.017    508.765    507.017
 65.570    605.000    627.823    -22.823    507.107    626.119    507.107    508.835    507.107
 65.670    575.000    606.041    -31.041    507.197    604.349    507.197    508.908    507.197
 65.770    576.000    589.489    -13.489    507.287    587.806    507.287    508.983    507.287
 65.870    583.000    577.318      5.682    507.377    575.643    507.377    509.059    507.377
 65.970    598.000    568.775     29.225    507.467    567.108    507.467    509.138    507.467
 66.070    541.000    563.203    -22.203    507.557    561.543    507.557    509.218    507.557
 66.170    570.000    560.029      9.971    507.646    558.376    507.646    509.300    507.646
 66.270    550.585    558.778     -8.193    507.735    557.130    507.735    509.383    507.735
 66.370    551.000    559.094     -8.094    507.824    557.449    507.824    509.469    507.824
 66.470    593.000    560.779     32.221    507.913    559.137    507.913    509.556    507.913
 66.570    570.000    563.855      6.145    508.002    562.214    508.002    509.644    508.002
 66.670    529.114    568.673    -39.558    508.090    567.029    508.090    509.735    508.090
 66.770    577.917    576.104      1.813    508.178    574.457    508.178    509.827    508.178
 66.870    557.000    587.886    -30.886    508.266    586.232    508.266    509.920    508.266
 66.970    622.000    607.096     14.904    508.353    605.434    508.353    510.016    508.353
 67.070    633.000    638.688     -5.688    508.441    637.013    508.441    510.113    508.441
 67.170    671.000    689.828    -18.828    508.528    688.137    508.528    510.212    508.528
 67.270    730.000    769.665    -39.665    508.614    767.957    508.614    510.313    508.614
 67.370    845.000    888.066    -43.066    508.701    886.337    508.701    510.415    508.701
 67.470   1046.000   1053.060     -7.060    508.787   1051.312    508.787    510.520    508.787
 67.570   1213.428   1267.213    -53.784    508.873   1265.451    508.873    510.627    508.873
 67.670   1481.000   1523.734    -42.734    508.958   1521.967    508.958    510.736    508.958
 67.770   1776.000   1803.487    -27.487    509.043   1801.729    509.043    510.848    509.043
 67.870   2073.000   2074.039     -1.039    509.128   2072.303    509.128    510.961    509.128
 67.970   2371.000   2292.229     78.771    509.212   2290.527    509.212    511.078    509.212
 68.070   2410.395   2413.293     -2.898    509.296   2411.630    509.296    511.197    509.296
 68.170   2395.000   2407.864    -12.864    509.380   2406.226    509.380    511.320    509.380
 68.270   2399.000   2277.440    121.560    509.463   2275.797    509.463    511.446    509.463
 68.370   2118.000   2053.447     64.553    509.546   2051.762    509.546    511.575    509.546
 68.470   1897.000   1781.011    115.989    509.629   1779.250    509.629    511.708    509.629
 68.570   1604.000   1502.577    101.423    509.711   1500.715    509.711    511.845    509.711
 68.670   1271.000   1249.480     21.520    509.792   1247.504    509.792    511.986    509.792
 68.770   1035.000   1039.743     -4.743    509.874   1037.648    509.874    512.133    509.874
 68.870    914.910    879.235     35.675    509.954    877.022    509.954    512.285    509.954
 68.970    735.398    764.781    -29.384    510.035    762.453    510.035    512.442    510.035
 69.070    694.000    688.077      5.923    510.115    685.638    510.115    512.607    510.115
 69.170    664.608    639.245     25.363    510.194    636.695    510.194    512.778    510.194
 69.270    648.417    609.271     39.146    510.273    606.608    510.273    512.957    510.273
 69.370    554.293    591.167    -36.873    510.352    588.387    510.352    513.146    510.352
 69.470    617.000    580.137     36.863    510.430    577.233    510.430    513.344    510.430
 69.570    587.000    573.204     13.796    510.507    570.165    510.507    513.553    510.507
 69.670    550.000    568.661    -18.661    510.584    565.476    510.584    513.774    510.584
 69.770    568.000    565.596      2.404    510.660    562.251    510.660    514.010    510.660
 69.870    552.000    563.543    -11.543    510.736    560.022    510.736    514.260    510.736
 69.970    550.153    562.271    -12.118    510.812    558.556    510.812    514.529    510.812
 70.070    586.779    561.675     25.104    510.887    557.745    510.887    514.818    510.887
 70.170    559.969    561.722     -1.754    510.961    557.554    510.961    515.130    510.961
 70.270    538.048    562.441    -24.393    511.035    558.006    511.035    515.469    511.035
 70.370    573.000    563.939      9.061    511.108    559.207    511.108    515.838    511.108
 70.470    544.000    566.459    -22.459    511.180    561.394    511.180    516.242    511.180
 70.570    573.908    570.476      3.432    511.252    565.036    511.252    516.688    511.252
 70.670    546.591    576.871    -30.280    511.324    571.005    511.324    517.183    511.324
 70.770    560.759    587.153    -26.395    511.395    580.802    511.395    517.735    511.395
 70.870    608.000    603.737      4.263    511.465    596.826    511.465    518.360    511.465
 70.970    598.979    630.177    -31.198    511.534    622.611    511.534    519.075    511.534
 71.070    635.000    671.220    -36.220    511.603    662.873    511.603    519.911    511.603
 71.170    759.375    732.471     26.903    511.672    723.170    511.672    520.915    511.672
 71.270    802.000    819.514    -17.514    511.739    809.005    511.739    522.166    511.739
 71.370    888.000    936.424    -48.424    511.806    924.330    511.806    523.791    511.806
 71.470   1067.316   1083.886    -16.571    511.873   1069.627    511.873    525.991    511.873
 71.570   1230.145   1257.312    -27.167    511.938   1240.011    511.938    529.070    511.938
 71.670   1416.000   1445.506    -29.506    512.003   1423.859    512.003    533.459    512.003
 71.770   1672.404   1630.334     42.070    512.068   1602.463    512.068    539.736    512.068
 71.870   1788.000   1787.982      0.018    512.131   1751.313    512.131    548.603    512.131
 71.970   1891.000   1893.094     -2.094    512.194   1844.286    512.194    560.828    512.194
 72.070   1839.343   1926.779    -87.436    512.257   1861.771    512.257    577.125    512.257
 72.170   1865.000   1885.398    -20.398    512.318   1799.635    512.318    597.982    512.318
 72.270   1732.000   1782.675    -50.675    512.379   1671.546    512.379    623.447    512.379
 72.370   1619.506   1642.617    -23.111    512.439   1502.108    512.439    652.915    512.439
 72.470   1530.000   1489.843     40.157    512.498   1317.388    512.498    684.941    512.498
 72.570   1303.262   1343.447    -40.185    512.557   1138.908    512.557    717.094    512.557
 72.670   1163.603   1214.671    -51.069    512.614    981.360    512.614    745.929    512.614
 72.770   1084.000   1107.003    -23.003    512.671    852.391    512.671    767.287    512.671
 72.870   1051.390   1018.144     33.246    512.728    753.600    512.728    777.274    512.728
 72.970    912.134    943.300    -31.166    512.783    682.277    512.783    773.808    512.783
 73.070    803.000    878.210    -75.210    512.838    633.379    512.838    757.670    512.838
 73.170    754.000    820.424    -66.424    512.892    601.242    512.892    732.075    512.892
 73.270    814.695    768.995     45.700    512.945    580.746    512.945    701.196    512.945
 73.370    747.648    723.756     23.892    512.997    567.876    512.997    668.879    512.997
 73.470    672.151    684.825    -12.674    513.049    559.823    513.049    638.054    513.049
 73.570    613.000    652.334    -39.334    513.099    554.805    513.099    610.633    513.099
 73.670    574.000    626.252    -52.252    513.149    551.795    513.149    587.611    513.149
 73.770    608.000    606.282      1.718    513.198    550.255    513.198    569.233    513.198
 73.870    593.000    591.856      1.144    513.246    549.912    513.246    555.200    513.246
 73.970    625.034    582.189     42.845    513.293    550.609    513.293    544.888    513.293
 74.070    636.000    576.367     59.633    513.340    552.190    513.340    537.537    513.340
 74.170    584.000    573.423     10.577    513.385    554.432    513.385    532.402    513.385
 74.270    589.000    572.392     16.608    513.430    557.011    513.430    528.843    513.430
 74.370    572.000    572.341     -0.341    513.474    559.494    513.474    526.358    513.474
 74.470    630.000    572.396     57.604    513.516    561.373    513.516    524.582    513.516
 74.570    643.000    571.827     71.173    513.558    562.162    513.558    523.269    513.558
 74.670    604.239    570.168     34.072    513.599    561.554    513.599    522.259    513.599
 74.770    567.572    567.330      0.242    513.640    559.563    513.640    521.450    513.640
 74.870    535.486    563.584    -28.098    513.679    556.519    513.679    520.783    513.679
 74.970    611.000    559.411     51.589    513.717    552.942    513.717    520.220    513.717
 75.070    615.000    555.352     59.648    513.754    549.398    513.754    519.736    513.754
 75.170    587.000    551.931     35.069    513.791    546.426    513.791    519.316    513.791
 75.270    579.000    549.639     29.361    513.826    544.531    513.826    518.949    513.826
 75.370    515.000    548.956    -33.956    513.861    544.199    513.861    518.626    513.861
 75.470    564.000    550.379     13.621    513.894    545.934    513.894    518.341    513.894
 75.570    517.000    554.432    -37.432    513.927    550.267    513.927    518.088    513.927
 75.670    522.248    561.646    -39.398    513.959    557.732    513.959    517.863    513.959
 75.770    556.000    572.475    -16.475    513.989    568.787    513.989    517.662    513.989
 75.870    613.629    587.160     26.469    514.019    583.673    514.019    517.482    514.019
 75.970    654.761    605.550     49.211    514.048    602.245    514.048    517.320    514.048
 76.070    619.000    626.935     -7.935    514.075    623.794    514.075    517.175    514.075
 76.170    674.000    649.935     24.065    514.102    646.944    514.102    517.044    514.102
 76.270    709.308    672.469     36.838    514.128    669.616    514.128    516.925    514.128
 76.370    721.000    691.862     29.138    514.152    689.136    514.152    516.817    514.152
 76.470    735.000    705.184     29.816    514.176    702.579    514.176    516.718    514.176
 76.570    736.585    709.981     26.604    514.199    707.490    514.199    516.629    514.199
 76.670    714.000    705.227      8.773    514.220    702.845    514.220    516.546    514.220
 76.770    654.000    691.825    -37.825    514.241    689.547    514.241    516.471    514.241
 76.870    601.000    672.154    -71.154    514.260    669.974    514.260    516.402    514.260
 76.970    692.274    649.122     43.152    514.279    647.034    514.279    516.338    514.279
 77.070    578.878    625.413    -46.535    514.296    623.409    514.296    516.279    514.296
 77.170    582.000    603.120    -21.120    514.312    601.194    514.312    516.224    514.312
 77.270    533.000    583.626    -50.626    514.327    581.770    514.327    516.173    514.327
 77.370    552.000    567.614    -15.614    514.342    565.824    514.342    516.125    514.342
 77.470    591.661    555.181     36.480    514.355    553.451    514.355    516.081    514.355
 77.570    581.000    546.003     34.997    514.367    544.328    514.367    516.039    514.367
 77.670    494.902    539.521    -44.619    514.378    537.897    514.378    515.999    514.378
 77.770    523.000    535.108    -12.108    514.387    533.532    514.387    515.962    514.387
 77.870    495.000    532.183    -37.183    514.396    530.651    514.396    515.927    514.396
 77.970    549.859    530.269     19.590    514.404    528.778    514.404    515.893    514.404
 78.070    566.000    529.012     36.988    514.410    527.561    514.410    515.861    514.410
 78.170    572.707    528.171     44.537    514.415    526.755    514.415    515.830    514.415
 78.270    531.000    527.593      3.407    514.420    526.212    514.420    515.800    514.420
 78.370    482.000    527.169    -45.169    514.423    525.820    514.423    515.772    514.423
 78.470    487.000    526.865    -39.865    514.425    525.545    514.425    515.744    514.425
 78.570    506.173    526.689    -20.516    514.426    525.397    514.426    515.717    514.426
 78.670    544.000    526.615     17.385    514.425    525.348    514.425    515.692    514.425
 78.770    540.000    526.648     13.352    514.424    525.404    514.424    515.667    514.424
 78.870    528.000    526.807      1.193    514.421    525.584    514.421    515.643    514.421
 78.970    508.000    527.116    -19.116    514.417    525.911    514.417    515.621    514.417
 79.070    557.000    527.606     29.394    514.413    526.416    514.413    515.601    514.413
 79.170    534.000    528.308      5.692    514.406    527.130    514.406    515.583    514.406
 79.270    553.000    529.254     23.746    514.399    528.083    514.399    515.569    514.399
 79.370    520.000    530.473    -10.473    514.391    529.302    514.391    515.559    514.391
 79.470    544.000    531.992     12.008    514.381    530.816    514.381    515.554    514.381
 79.570    551.619    533.845     17.774    514.370    532.655    514.370    515.556    514.370
 79.670    507.000    536.083    -29.083    514.358    534.871    514.358    515.566    514.358
 79.770    521.324    538.795    -17.471    514.345    537.550    514.345    515.585    514.345
 79.870    538.000    542.125     -4.125    514.331    540.837    514.331    515.614    514.331
 79.970    536.000    546.304    -10.304    514.315    544.962    514.315    515.652    514.315
 80.070    571.000    551.672     19.328    514.299    550.268    514.299    515.698    514.299
 80.170    567.770    558.676      9.095    514.281    557.203    514.281    515.750    514.281
 80.270    563.538    567.823     -4.285    514.261    566.279    514.261    515.805    514.261
 80.370    558.000    579.578    -21.578    514.241    577.966    514.241    515.855    514.241
 80.470    587.000    594.243     -7.243    514.219    592.572    514.219    515.896    514.219
 80.570    571.038    611.842    -40.804    514.197    610.131    514.197    515.918    514.197
 80.670    628.000    632.033     -4.033    514.172    630.307    514.172    515.914    514.172
 80.770    675.583    654.060     21.523    514.147    652.349    514.147    515.879    514.147
 80.870    654.940    676.776    -21.836    514.121    675.110    514.121    515.814    514.121
 80.970    725.000    698.762     26.238    514.093    697.167    514.093    515.723    514.093
 81.070    704.000    718.537    -14.537    514.064    717.029    514.064    515.613    514.064
 81.170    767.000    734.754     32.246    514.034    733.344    514.034    515.493    514.034
 81.270    703.396    746.325    -42.929    514.002    745.015    514.002    515.368    514.002
 81.370    748.000    752.514     -4.514    513.969    751.299    513.969    515.245    513.969
 81.470    776.000    753.019     22.981    513.935    751.893    513.935    515.128    513.935
 81.570    717.000    747.997    -30.997    513.900    746.948    513.900    515.019    513.900
 81.670    803.000    737.996     65.004    513.864    737.013    513.864    514.918    513.864
 81.770    685.148    723.920    -38.772    513.826    722.991    513.826    514.826    513.826
 81.870    685.000    706.984    -21.984    513.787    706.098    513.787    514.743    513.787
 81.970    711.000    688.547     22.453    513.747    687.695    513.747    514.668    513.747
 82.070    694.000    669.835     24.165    513.705    669.006    513.705    514.598    513.705
 82.170    670.050    651.712     18.338    513.662    650.902    513.662    514.533    513.662
 82.270    622.000    634.647    -12.647    513.618    633.850    513.618    514.472    513.618
 82.370    602.000    618.818    -16.818    513.573    618.029    513.573    514.413    513.573
 82.470    621.000    604.302     16.698    513.526    603.519    513.526    514.356    513.526
 82.570    636.929    591.206     45.723    513.478    590.425    513.478    514.299    513.478
 82.670    570.000    579.690     -9.690    513.429    578.910    513.429    514.243    513.429
 82.770    529.000    569.936    -40.936    513.379    569.155    513.379    514.186    513.379
 82.870    552.000    562.105    -10.105    513.327    561.322    513.327    514.129    513.327
 82.970    591.000    556.317     34.683    513.274    555.532    513.274    514.072    513.274
 83.070    504.000    552.643    -48.643    513.220    551.854    513.220    514.014    513.220
 83.170    567.796    551.081     16.716    513.164    550.287    513.164    513.955    513.164
 83.270    534.000    551.534    -17.534    513.107    550.736    513.107    513.895    513.107
 83.370    507.243    553.793    -46.551    513.049    552.990    513.049    513.835    513.049
 83.470    579.000    557.521     21.479    512.989    556.712    512.989    513.773    512.989
 83.570    529.270    562.251    -32.981    512.929    561.437    512.929    513.711    512.929
 83.670    591.417    567.401     24.015    512.866    566.583    512.866    513.648    512.866
 83.770    596.015    572.304     23.711    512.803    571.481    512.803    513.583    512.803
 83.870    592.000    576.254     15.746    512.738    575.429    512.738    513.518    512.738
 83.970    557.000    578.606    -21.606    512.672    577.781    512.672    513.452    512.672
 84.070    615.383    578.907     36.476    512.605    578.082    512.605    513.385    512.605
 84.170    611.000    577.019     33.981    512.537    576.196    512.537    513.317    512.537
 84.270    590.000    573.159     16.841    512.467    572.340    512.467    513.247    512.467
 84.370    592.000    567.807     24.193    512.395    566.992    512.395    513.177    512.395
 84.470    543.785    561.557    -17.772    512.323    560.745    512.323    513.106    512.323
 84.570    599.000    554.989     44.011    512.249    554.181    512.249    513.034    512.249
 84.670    514.654    548.600    -33.946    512.174    547.795    512.174    512.961    512.174
 84.770    522.000    542.760    -20.760    512.098    541.957    512.098    512.886    512.098
 84.870    560.000    537.705     22.295    512.020    536.903    512.020    512.811    512.020
 84.970    544.859    533.546     11.313    511.941    532.744    511.941    512.735    511.941
 85.070    540.000    530.286      9.714    511.861    529.482    511.861    512.658    511.861
 85.170    507.000    527.852    -20.852    511.779    527.046    511.779    512.579    511.779
 85.270    553.207    526.132     27.075    511.696    525.324    511.696    512.500    511.696
 85.370    529.000    525.003      3.997    511.612    524.191    511.612    512.420    511.612
 85.470    491.848    524.350    -32.502    511.526    523.534    511.526    512.338    511.526
 85.570    546.621    524.089     22.532    511.439    523.268    511.439    512.256    511.439
 85.670    568.000    524.172     43.828    511.351    523.345    511.351    512.172    511.351
 85.770    512.066    524.590    -12.524    511.262    523.758    511.262    512.088    511.262
 85.870    502.000    525.381    -23.381    511.171    524.542    511.171    512.003    511.171
 85.970    533.483    526.627      6.856    511.079    525.780    511.079    511.917    511.079
 86.070    537.000    528.451      8.549    510.986    527.596    510.986    511.829    510.986
 86.170    537.569    531.015      6.555    510.891    530.149    510.891    511.741    510.891
 86.270    529.000    534.505     -5.505    510.795    533.629    510.795    511.652    510.795
 86.370    555.000    539.115     15.885    510.698    538.226    510.698    511.562    510.698
 86.470    550.000    545.017      4.983    510.599    544.112    510.599    511.471    510.599
 86.570    570.000    552.320     17.680    510.499    551.399    510.499    511.379    510.499
 86.670    550.000    561.035    -11.035    510.398    560.095    510.398    511.286    510.398
 86.770    570.403    571.018     -0.614    510.296    570.057    510.296    511.193    510.296
 86.870    574.000    581.973     -7.973    510.192    580.991    510.192    511.098    510.192
 86.970    574.000    593.404    -19.404    510.087    592.400    510.087    511.003    510.087
 87.070    653.000    604.609     48.391    509.981    603.584    509.981    510.907    509.981
 87.170    646.000    614.735     31.265    509.873    613.691    509.873    510.810    509.873
 87.270    679.000    622.851     56.149    509.764    621.790    509.764    510.712    509.764
 87.370    685.000    628.093     56.907    509.654    627.018    509.654    510.614    509.654
 87.470    652.000    629.859     22.141    509.543    628.775    509.543    510.515    509.543
 87.570    656.000    627.995     28.005    509.430    626.904    509.430    510.415    509.430
 87.670    646.722    622.832     23.890    509.316    621.739    509.316    510.315    509.316
 87.770    653.000    615.090     37.910    509.201    613.995    509.201    510.214    509.201
 87.870    649.705    605.694     44.011    509.084    604.597    509.084    510.113    509.084
 87.970    639.093    595.624     43.469    508.966    594.526    508.966    510.009    508.966
 88.070    539.940    585.809    -45.869    508.847    584.707    508.847    509.906    508.847
 88.170    595.000    577.052     17.948    508.727    575.945    508.727    509.804    508.727
 88.270    602.000    569.989     32.011    508.605    568.874    508.605    509.701    508.605
 88.370    579.000    565.057     13.943    508.482    563.932    508.482    509.597    508.482
 88.470    582.000    562.490     19.510    508.358    561.353    508.358    509.494    508.358
 88.570    569.000    562.322      6.678    508.233    561.172    508.233    509.390    508.233
 88.670    526.000    564.398    -38.398    508.106    563.233    508.106    509.286    508.106
 88.770    630.000    568.392     61.608    507.979    567.210    507.979    509.183    507.979
 88.870    565.978    573.827     -7.849    507.850    572.628    507.850    509.079    507.850
 88.970    616.000    580.102     35.898    507.719    578.883    507.719    508.976    507.719
 89.070    635.000    586.515     48.485    507.588    585.275    507.588    508.873    507.588
 89.170    629.832    592.314     37.518    507.455    591.051    507.455    508.771    507.455
 89.270    601.000    596.752      4.248    507.321    595.462    507.321    508.669    507.321
 89.370    552.919    599.188    -46.269    507.186    597.869    507.186    508.568    507.186
 89.470    595.000    599.213     -4.213    507.049    597.859    507.049    508.468    507.049
 89.570    626.000    596.743     29.257    506.912    595.350    506.912    508.370    506.912
 89.670    584.000    592.027     -8.027    506.773    590.590    506.773    508.273    506.773
 89.770    528.000    585.563    -57.563    506.633    584.078    506.633    508.177    506.633
 89.870    574.818    577.964     -3.146    506.491    576.425    506.491    508.084    506.491
 89.970    555.000    569.846    -14.846    506.349    568.249    506.349    507.993    506.349
 90.070    554.564    561.755     -7.192    506.205    560.096    506.205    507.904    506.205
 90.170    551.000    554.130     -3.130    506.060    552.403    506.060    507.819    506.060
 90.270    536.000    547.283    -11.283    505.914    545.485    505.914    507.738    505.914
 90.370    513.000    541.402    -28.402    505.767    539.529    505.767    507.661    505.767
 90.470    532.000    536.564     -4.564    505.619    534.608    505.619    507.590    505.619
 90.570    524.000    532.751     -8.751    505.469    530.707    505.469    507.525    505.469
 90.670    532.000    529.883      2.117    505.319    527.741    505.319    507.468    505.319
 90.770    516.689    527.842    -11.152    505.167    525.593    505.167    507.420    505.167
 90.870    495.106    526.502    -31.396    505.014    524.133    505.014    507.386    505.014
 90.970    558.000    525.743     32.257    504.860    523.236    504.860    507.368    504.860
 91.070    538.728    525.438     13.290    504.704    522.770    504.704    507.373    504.704
 91.170    552.683    525.602     27.082    504.548    522.742    504.548    507.407    504.548
 91.270    547.543    526.212     21.331    504.391    523.120    504.391    507.481    504.391
 91.370    572.000    527.288     44.712    504.232    523.910    504.232    507.608    504.232
 91.470    551.000    528.914     22.086    504.072    525.176    504.072    507.807    504.072
 91.570    494.537    531.220    -36.683    503.911    527.028    503.911    508.099    503.911
 91.670    533.000    534.389     -1.389    503.749    529.620    503.749    508.511    503.749
 91.770    527.000    538.648    -11.648    503.586    533.147    503.586    509.077    503.586
 91.870    533.000    544.248    -11.248    503.422    537.824    503.422    509.833    503.422
 91.970    540.217    551.459    -11.242    503.257    543.881    503.257    510.819    503.257
 92.070    569.000    560.544      8.456    503.091    551.540    503.091    512.074    503.091
 92.170    588.641    571.728     16.912    502.923    560.990    502.923    513.636    502.923
 92.270    596.000    585.166     10.834    502.755    572.356    502.755    515.533    502.755
 92.370    559.303    600.915    -41.612    502.585    585.675    502.585    517.788    502.585
 92.470    563.000    618.896    -55.896    502.415    600.864    502.415    520.402    502.415
 92.570    617.821    638.872    -21.051    502.243    617.707    502.243    523.356    502.243
 92.670    588.000    660.430    -72.430    502.071    635.838    502.071    526.603    502.071
 92.770    670.000    682.981    -12.981    501.897    654.744    501.897    530.069    501.897
 92.870    724.000    705.771     18.229    501.723    673.780    501.723    533.643    501.723
 92.970    749.000    727.936     21.064    501.547    692.230    501.547    537.178    501.547
 93.070    731.000    748.614    -17.614    501.370    709.414    501.370    540.494    501.370
 93.170    791.000    767.077     23.923    501.193    724.820    501.193    543.373    501.193
 93.270    791.000    782.842      8.158    501.014    738.193    501.014    545.586    501.014
 93.370    773.000    795.735    -22.735    500.835    749.573    500.835    546.922    500.835
 93.470    864.000    805.859     58.141    500.654    759.212    500.654    547.227    500.654
 93.570    847.975    813.516     34.459    500.473    767.465    500.473    546.453    500.473
 93.670    832.000    819.157     12.843    500.290    774.714    500.290    544.665    500.290
 93.770    820.725    823.351     -2.627    500.107    781.367    500.107    542.026    500.107
 93.870    901.000    826.791     74.209    499.923    787.898    499.923    538.754    499.923
 93.970    910.000    830.261     79.739    499.738    794.860    499.738    535.078    499.738
 94.070    809.711    834.529    -24.818    499.552    802.812    499.552    531.211    499.552
 94.170    899.000    840.174     58.826    499.365    812.154    499.365    527.329    499.365
 94.270    852.332    847.407      4.924    499.177    822.956    499.177    523.574    499.177
 94.370    865.000    855.953      9.047    498.988    834.838    498.988    520.052    498.988
 94.470    845.084    865.024    -19.940    498.798    846.943    498.798    516.832    498.798
 94.570    899.000    873.387     25.613    498.608    857.995    498.608    513.957    498.608
 94.670    896.244    879.497     16.747    498.417    866.434    498.417    511.442    498.417
 94.770    898.754    881.732     17.022    498.224    870.643    498.224    509.284    498.224
 94.870    848.428    878.695    -30.267    498.031    869.245    498.031    507.461    498.031
 94.970    857.000    869.550    -12.550    497.838    861.434    497.838    505.941    497.838
 95.070    886.000    854.243     31.757    497.643    847.195    497.643    504.687    497.643
 95.170    841.000    833.527      7.473    497.448    827.320    497.448    503.658    497.448
 95.270    837.000    808.789     28.211    497.251    803.232    497.251    502.816    497.251
 95.370    797.406    781.787     15.619    497.054    776.728    497.054    502.125    497.054
 95.470    803.000    754.411     48.589    496.857    749.729    496.857    501.552    496.857
 95.570    780.518    728.574     51.944    496.658    724.173    496.658    501.072    496.658
 95.670    683.750    706.035    -22.285    496.459    701.842    496.459    500.663    496.459
 95.770    727.000    688.379     38.621    496.259    684.337    496.259    500.308    496.259
 95.870    719.000    676.995     42.005    496.058    673.060    496.058    499.994    496.058
 95.970    691.707    673.072     18.634    495.857    669.211    495.857    499.713    495.857
 96.070    668.000    677.605     -9.605    495.655    673.790    495.655    499.456    495.655
 96.170    643.423    691.397    -47.974    495.452    687.606    495.452    499.219    495.452
 96.270    690.000    715.048    -25.048    495.248    711.264    495.248    498.999    495.248
 96.370    763.000    748.912     14.088    495.044    745.118    495.044    498.794    495.044
 96.470    771.605    793.027    -21.422    494.840    789.211    494.840    498.601    494.840
 96.570    812.392    847.003    -34.611    494.634    843.151    494.634    498.419    494.634
 96.670    901.000    909.921     -8.921    494.428    906.023    494.428    498.249    494.428
 96.770    977.000    980.242     -3.242    494.221    976.288    494.221    498.090    494.221
 96.870   1034.000   1055.736    -21.736    494.014   1051.716    494.014    497.941    494.014
 96.970   1081.000   1133.468    -52.468    493.806   1129.375    493.806    497.803    493.806
 97.070   1247.000   1209.838     37.162    493.598   1205.664    493.598    497.676    493.598
 97.170   1203.000   1280.701    -77.701    493.389   1276.438    493.389    497.561    493.389
 97.270   1339.862   1341.618     -1.756    493.180   1337.258    493.180    497.457    493.180
 97.370   1446.328   1388.276     58.052    492.970   1383.811    492.970    497.367    492.970
 97.470   1420.000   1417.094      2.906    492.759   1412.515    492.759    497.289    492.759
 97.570   1461.000   1425.876     35.124    492.548   1421.169    492.548    497.227    492.548
 97.670   1410.000   1414.253     -4.253    492.337   1409.403    492.337    497.180    492.337
 97.770   1412.000   1383.706     28.294    492.125   1378.692    492.125    497.152    492.125
 97.870   1412.000   1337.171     74.829    491.912   1331.970    491.912    497.145    491.912
 97.970   1223.962   1278.462    -54.500    491.699   1273.046    491.699    497.161    491.699
 98.070   1225.000   1211.737     13.263    491.486   1206.073    491.486    497.206    491.486
 98.170   1104.461   1141.119    -36.657    491.272   1135.167    491.272    497.285    491.272
 98.270   1070.000   1070.447     -0.447    491.058   1064.160    491.058    497.407    491.058
 98.370   1021.215   1003.129     18.086    490.843    996.449    490.843    497.583    490.843
 98.470   1001.030    942.063     58.967    490.629    934.917    490.629    497.829    490.629
 98.570    946.128    889.617     56.511    490.413    881.913    490.413    498.165    490.413
 98.670    838.000    847.657     -9.657    490.198    839.275    490.198    498.618    490.198
 98.770    840.000    817.597     22.403    489.982    808.383    489.982    499.225    489.982
 98.870    845.308    800.481     44.827    489.765    790.235    489.765    500.030    489.765
 98.970    784.000    797.058    -13.058    489.549    785.524    489.549    501.092    489.549
 99.070    813.780    807.842      5.938    489.332    794.695    489.332    502.480    489.332
 99.170    876.403    833.189     43.215    489.115    818.019    489.115    504.277    489.115
 99.270    832.685    873.237    -40.552    488.898    855.543    488.898    506.578    488.898
 99.370    949.000    927.881     21.119    488.680    907.053    488.680    509.490    488.680
 99.470   1049.205    996.706     52.499    488.462    972.022    488.462    513.125    488.462
 99.570   1070.000   1078.882     -8.882    488.244   1049.507    488.244    517.599    488.244
 99.670   1155.000   1173.066    -18.066    488.026   1138.056    488.026    523.020    488.026
 99.770   1216.531   1277.298    -60.767    487.808   1235.616    487.808    529.481    487.808
 99.870   1460.832   1388.935     71.897    487.590   1339.478    487.590    537.050    487.590
 99.970   1508.000   1504.631      3.369    487.371   1446.266    487.371    545.754    487.371
100.070   1682.000   1620.401     61.599    487.152   1552.018    487.152    555.575    487.152
100.170   1713.000   1731.819    -18.819    486.933   1652.385    486.933    566.431    486.933
100.270   1804.000   1834.342    -30.342    486.715   1742.974    486.715    578.171    486.715
100.370   1965.000   1923.719     41.281    486.496   1819.762    486.496    590.569    486.496
100.470   2037.000   1996.345     40.655    486.277   1879.454    486.277    603.311    486.277
100.570   2087.291   2049.423     37.868    486.058   1919.651    486.058    615.999    486.058
100.670   2036.347   2080.954    -44.607    485.839   1938.837    485.839    628.147    485.839
100.770   2065.000   2089.693    -24.693    485.620   1936.329    485.620    639.193    485.620
100.870   2054.634   2075.250    -20.615    485.401   1912.348    485.401    648.525    485.401
100.970   2092.000   2038.348     53.652    485.182   1868.225    485.182    655.535    485.182
101.070   1992.000   1981.092     10.908    484.963   1806.591    484.963    659.697    484.963
101.170   2027.000   1906.999    120.001    484.744   1731.312    484.744    660.661    484.744
101.270   1788.000   1820.694    -32.694    484.526   1647.113    484.526    658.329    484.526
101.370   1740.000   1727.363     12.637    484.307   1559.003    484.307    652.876    484.307
101.470   1692.231   1632.144     60.087    484.089   1471.716    484.089    644.711    484.089
101.570   1462.983   1539.636    -76.653    483.871   1389.289    483.871    634.395    483.871
101.670   1455.000   1453.558      1.442    483.653   1314.826    483.653    622.544    483.653
101.770   1414.874   1376.578     38.297    483.435   1250.393    483.435    609.762    483.435
101.870   1332.333   1310.253     22.080    483.217   1197.007    483.217    596.591    483.217
101.970   1233.000   1255.059    -22.059    483.000   1154.682    483.000    583.490    483.000
102.070   1184.818   1210.479    -25.661    482.783   1122.530    482.783    570.835    482.783
102.170   1198.000   1175.148     22.852    482.566   1098.896    482.566    558.912    482.566
102.270   1128.490   1147.027    -18.537    482.350   1081.539    482.350    547.927    482.350
102.370   1078.987   1123.640    -44.653    482.133   1067.853    482.133    538.007    482.133
102.470   1156.000   1102.353     53.647    481.918   1055.140    481.918    529.216    481.918
102.570   1141.339   1080.695     60.644    481.702   1040.925    481.702    521.558    481.702
102.670   1083.000   1056.682     26.318    481.487   1023.264    481.487    514.992    481.487
102.770    996.000   1029.052    -33.052    481.273   1000.971    481.273    509.442    481.273
102.870   1005.000    997.351      7.649    481.058    973.688    481.058    504.809    481.058
102.970    975.000    961.843     13.157    480.845    941.793    480.845    500.983    480.845
103.070    874.164    923.316    -49.152    480.631    906.185    480.631    497.847    480.631
103.170    865.544    882.854    -17.309    480.419    868.062    480.419    495.291    480.419
103.270    827.315    841.651    -14.336    480.206    828.721    480.206    493.211    480.206
103.370    830.511    800.878     29.632    479.995    789.427    479.995    491.515    479.995
103.470    790.921    761.592     29.329    479.784    751.314    479.784    490.124    479.784
103.570    764.000    724.676     39.324    479.573    715.332    479.573    488.972    479.573
103.670    708.883    690.804     18.079    479.363    682.210    479.363    488.005    479.363
103.770    632.189    660.428    -28.238    479.154    652.442    479.154    487.180    479.154
103.870    612.000    633.781    -21.781    478.945    626.295    478.945    486.466    478.945
103.970    618.000    610.899      7.101    478.737    603.830    478.737    485.835    478.737
104.070    613.000    591.643     21.357    478.530    584.926    478.530    485.269    478.530
104.170    598.000    575.767     22.233    478.324    569.354    478.324    484.755    478.324
104.270    568.156    562.927      5.229    478.118    556.778    478.118    484.281    478.118
104.370    530.000    552.739    -22.739    477.913    546.822    477.913    483.840    477.913
104.470    564.000    544.812     19.188    477.709    539.101    477.709    483.427    477.709
104.570    517.000    538.774    -21.774    477.505    533.247    477.505    483.038    477.505
104.670    516.000    534.291    -18.291    477.303    528.929    477.303    482.668    477.303
104.770    556.000    531.081     24.919    477.101    525.867    477.101    482.316    477.101
104.870    594.000    528.910     65.090    476.901    523.835    476.901    481.975    476.901
104.970    534.839    527.616      7.223    476.701    522.662    476.701    481.653    476.701
105.070    541.000    527.081     13.919    476.502    522.234    476.502    481.346    476.502
105.170    546.000    527.237     18.763    476.304    522.487    476.304    481.050    476.304
105.270    563.000    528.065     34.935    476.107    523.400    476.107    480.766    476.107
105.370    501.555    529.586    -28.030    475.911    524.997    475.911    480.493    475.911
105.470    546.000    531.858     14.142    475.717    527.335    475.717    480.230    475.717
105.570    541.000    534.963      6.037    475.523    530.498    475.523    479.976    475.523
105.670    539.000    539.002     -0.002    475.330    534.588    475.330    479.730    475.330
105.770    559.000    544.071     14.929    475.139    539.711    475.139    479.483    475.139
105.870    592.000    550.287     41.713    474.948    545.963    474.948    479.254    474.948
105.970    587.000    557.713     29.287    474.759    553.417    474.759    479.034    474.759
106.070    555.000    566.378    -11.378    474.571    562.104    474.571    478.821    474.571
106.170    599.000    576.262     22.738    474.385    572.003    474.385    478.616    474.385
106.270    549.000    587.280    -38.280    474.199    583.029    474.199    478.418    474.199
106.370    631.994    599.277     32.717    474.015    595.030    474.015    478.227    474.015
106.470    607.000    612.028     -5.028    473.832    607.780    473.832    478.043    473.832
106.570    593.000    625.238    -32.238    473.651    620.983    473.651    477.866    473.651
106.670    625.000    638.547    -13.547    473.471    634.281    473.471    477.695    473.471
106.770    654.000    651.547      2.453    473.292    647.264    473.292    477.531    473.292
106.870    629.000    663.795    -34.795    473.115    659.492    473.115    477.373    473.115
106.970    646.000    674.847    -28.847    472.939    670.519    472.939    477.223    472.939
107.070    661.786    684.291    -22.505    472.764    679.934    472.764    477.078    472.764
107.170    686.000    691.804     -5.804    472.592    687.414    472.592    476.940    472.592
107.270    665.283    697.202    -31.919    472.420    692.775    472.420    476.809    472.420
107.370    752.215    700.480     51.734    472.251    696.012    472.251    476.685    472.251
107.470    666.720    701.827    -35.107    472.083    697.312    472.083    476.567    472.083
107.570    690.000    701.589    -11.589    471.916    697.022    471.916    476.457    471.916
107.670    715.000    700.215     14.785    471.751    695.591    471.751    476.353    471.751
107.770    701.026    698.191      2.836    471.588    693.504    471.588    476.257    471.588
107.870    648.000    695.972    -47.972    471.427    691.217    471.427    476.168    471.427
107.970    729.321    693.941     35.380    471.267    689.112    471.267    476.087    471.267
108.070    686.915    692.376     -5.462    471.109    687.467    471.109    476.013    471.109
108.170    691.124    691.430     -0.306    470.953    686.434    470.953    475.948    470.953
108.270    657.000    691.122    -34.122    470.799    686.033    470.799    475.891    470.799
108.370    654.000    691.341    -37.341    470.647    686.151    470.647    475.843    470.647
108.470    662.000    691.851    -29.851    470.496    686.553    470.496    475.803    470.496
108.570    701.000    692.316      8.684    470.348    686.902    470.348    475.773    470.348
108.670    639.000    692.327    -53.327    470.201    686.790    470.201    475.753    470.201
108.770    726.398    691.454     34.944    470.057    685.785    470.057    475.744    470.057
108.870    708.140    689.301     18.839    469.914    683.491    469.914    475.744    469.914
108.970    655.534    685.565    -30.031    469.774    679.605    469.774    475.757    469.774
109.070    620.000    680.083    -60.083    469.635    673.962    469.635    475.780    469.635
109.170    669.000    672.854     -3.854    469.499    666.562    469.499    475.817    469.499
109.270    644.952    664.027    -19.075    469.365    657.551    469.365    475.866    469.365
109.370    665.623    653.867     11.756    469.233    647.196    469.233    475.930    469.233
109.470    592.163    642.711    -50.548    469.104    635.831    469.104    476.008    469.104
109.570    634.000    630.924      3.076    468.976    623.822    468.976    476.101    468.976
109.670    604.000    618.853    -14.853    468.851    611.514    468.851    476.212    468.851
109.770    595.000    606.872    -11.872    468.728    599.279    468.728    476.340    468.728
109.870    565.464    595.306    -29.842    468.608    587.443    468.608    476.488    468.608
109.970    546.561    584.396    -37.835    468.490    576.245    468.490    476.657    468.490
110.070    574.128    574.349     -0.221    468.374    565.888    468.374    476.848    468.374
110.170    574.000    565.315      8.685    468.261    556.522    468.261    477.065    468.261
110.270    559.000    557.392      1.608    468.150    548.243    468.150    477.309    468.150
110.370    550.622    550.626     -0.004    468.042    541.091    468.042    477.584    468.042
110.470    587.000    545.017     41.983    467.937    535.063    467.937    477.895    467.937
110.570    553.000    540.530     12.470    467.834    530.120    467.834    478.247    467.834
110.670    498.859    537.101    -38.241    467.733    526.190    467.733    478.646    467.733
110.770    518.000    534.648    -16.648    467.636    523.184    467.636    479.100    467.636
110.870    558.849    533.082     25.768    467.541    521.000    467.541    479.622    467.541
110.970    484.883    532.307    -47.425    467.448    519.530    467.448    480.224    467.448
111.070    546.000    532.238     13.762    467.359    518.670    467.359    480.924    467.359
111.170    561.317    532.794     28.522    467.272    518.319    467.272    481.744    467.272
111.270    500.742    533.914    -33.172    467.188    518.387    467.188    482.711    467.188
111.370    544.000    535.549      8.451    467.107    518.792    467.107    483.859    467.107
111.470    556.086    537.671     18.415    467.029    519.464    467.029    485.230    467.029
111.570    542.585    540.271      2.314    466.954    520.345    466.954    486.873    466.954
111.670    537.000    543.361     -6.361    466.882    521.387    466.882    488.849    466.882
111.770    537.228    546.975     -9.747    466.813    522.554    466.813    491.227    466.813
111.870    556.000    551.169      4.831    466.747    523.820    466.747    494.088    466.747
111.970    538.765    556.021    -17.256    466.684    525.171    466.684    497.525    466.684
112.070    547.902    561.629    -13.727    466.624    526.605    466.624    501.640    466.624
112.170    581.778    568.112     13.665    466.568    528.126    466.568    506.546    466.568
112.270    542.000    575.606    -33.606    466.515    529.750    466.515    512.361    466.515
112.370    586.976    584.257      2.719    466.464    531.502    466.464    519.210    466.464
112.470    607.000    594.221     12.779    466.418    533.412    466.418    527.217    466.418
112.570    573.000    605.656    -32.656    466.374    535.519    466.374    536.501    466.374
112.670    586.000    618.720    -32.720    466.334    537.873    466.334    547.171    466.334
112.770    633.000    633.566     -0.566    466.297    540.535    466.297    559.318    466.297
112.870    726.000    650.339     75.661    466.264    543.585    466.264    573.008    466.264
112.970    669.000    669.175     -0.175    466.234    547.123    466.234    588.275    466.234
113.070    687.296    690.198     -2.902    466.208    551.283    466.208    605.111    466.208
113.170    752.110    713.529     38.581    466.185    556.239    466.185    623.463    466.185
113.270    729.000    739.291    -10.291    466.166    562.222    466.166    643.221    466.166
113.370    752.434    767.617    -15.183    466.151    569.536    466.151    664.216    466.151
113.470    797.000    798.667     -1.667    466.139    578.574    466.139    686.215    466.139
113.570    808.000    832.651    -24.651    466.131    589.848    466.131    708.914    466.131
113.670    942.000    869.847     72.153    466.127    604.009    466.127    731.941    466.127
113.770    923.000    910.632     12.368    466.126    621.881    466.126    754.849    466.126
113.870    962.000    955.510      6.490    466.130    644.481    466.130    777.124    466.130
113.970   1041.000   1005.145     35.855    466.137    673.055    466.137    798.184    466.137
114.070   1081.115   1060.396     20.718    466.148    709.093    466.148    817.399    466.148
114.170   1158.000   1122.360     35.640    466.164    754.347    466.164    834.111    466.164
114.270   1127.531   1192.406    -64.875    466.183    810.833    466.183    847.675    466.183
114.370   1220.242   1272.218    -51.976    466.206    880.816    466.206    857.508    466.206
114.470   1340.000   1363.820    -23.820    466.233    966.777    466.233    863.152    466.233
114.570   1453.863   1469.568    -15.705    466.265   1071.351    466.265    864.332    466.265
114.670   1552.000   1592.107    -40.107    466.301   1197.238    466.301    860.987    466.301
114.770   1664.633   1734.256    -69.623    466.341   1347.090    466.341    853.288    466.341
114.870   1916.000   1898.841     17.159    466.385   1523.360    466.385    841.606    466.385
114.970   2182.000   2088.474     93.526    466.433   1728.135    466.433    826.468    466.433
115.070   2277.000   2305.303    -28.303    466.486   1962.942    466.486    808.496    466.486
115.170   2460.904   2550.753    -89.849    466.544   2228.549    466.544    788.346    466.544
115.270   2840.000   2825.286     14.714    466.605   2524.771    466.605    766.668    466.605
115.370   2977.000   3128.187   -151.187    466.672   2850.286    466.672    744.071    466.672
115.470   3346.227   3457.401   -111.173    466.742   3202.491    466.742    721.104    466.742
115.570   3828.000   3809.412     18.588    466.818   3577.391    466.818    698.250    466.818
115.670   4196.780   4179.195     17.585    466.898   3969.554    466.898    675.917    466.898
115.770   4361.000   4560.227   -199.227    466.982   4372.120    466.982    654.445    466.982
115.870   4814.946   4944.568   -129.622    467.072   4776.883    467.072    634.101    467.072
115.970   5138.000   5323.018   -185.018    467.166   5174.443    467.166    615.087    467.166
116.070   5567.000   5685.348   -118.348    467.265   5554.434    467.265    597.542    467.265
116.170   6099.180   6020.620     78.560    467.369   5905.840    467.369    581.547    467.369
116.270   6177.632   6317.624   -139.992    467.477   6217.420    467.477    567.133    467.477
116.370   6590.000   6565.439     24.561    467.591   6478.266    467.591    554.285    467.591
116.470   6655.000   6754.132    -99.132    467.710   6678.495    467.710    542.952    467.710
116.570   6795.550   6875.553    -80.003    467.833   6810.033    467.833    533.056    467.833
116.670   7100.000   6924.136    175.864    467.962   6867.412    467.962    524.496    467.962
116.770   6976.000   6897.538     78.462    468.096   6848.397    468.096    517.157    468.096
116.870   6952.000   6796.812    155.188    468.235   6754.160    468.235    510.916    468.235
116.970   6639.000   6626.334     12.666    468.379   6589.197    468.379    505.650    468.379
117.070   6504.000   6393.265    110.735    468.529   6360.784    468.529    501.235    468.529
117.170   6149.000   6106.796     42.204    468.684   6078.227    468.684    497.557    468.684
117.270   5519.000   5777.356   -258.356    468.844   5752.061    468.844    494.507    468.844
117.370   5302.311   5415.886   -113.575    469.010   5393.323    469.010    491.988    469.010
117.470   5167.060   5033.243    133.817    469.181   5012.958    469.181    489.913    469.181
117.570   4717.000   4639.748     77.252    469.357   4621.361    469.357    488.208    469.357
117.670   4320.000   4244.838     75.162    469.540   4228.038    469.540    486.806    469.540
117.770   3983.000   3856.828    126.172    469.727   3841.357    469.727    485.653    469.727
117.870   3451.023   3482.740    -31.717    469.921   3468.391    469.921    484.704    469.921
117.970   3178.942   3128.221     50.721    470.120   3114.825    470.120    483.922    470.120
118.070   2696.957   2797.523   -100.566    470.325   2784.944    470.325    483.276    470.325
118.170   2457.916   2493.555    -35.639    470.536   2481.683    470.536    482.741    470.536
118.270   2288.254   2217.981     70.273    470.753   2206.729    470.753    482.298    470.753
118.370   1980.000   1971.367      8.633    470.975   1960.664    470.975    481.932    470.975
118.470   1752.602   1753.343     -0.741    471.204   1743.132    471.204    481.630    471.204
118.570   1640.000   1562.784     77.216    471.438   1553.017    471.438    481.383    471.438
118.670   1373.000   1397.990    -24.990    471.679   1388.631    471.679    481.183    471.679
118.770   1196.246   1256.866    -60.620    471.926   1247.882    471.926    481.026    471.926
118.870   1178.000   1137.076     40.924    472.179   1128.439    472.179    480.906    472.179
118.970   1047.000   1036.188     10.812    472.438   1027.876    472.438    480.819    472.438
119.070    929.000    951.791    -22.791    472.703    943.783    472.703    480.764    472.703
119.170    928.814    881.583     47.230    472.975    873.859    472.975    480.737    472.975
119.270    778.000    823.435    -45.435    473.253    815.978    473.253    480.737    473.253
119.370    786.410    775.430     10.980    473.537    768.223    473.537    480.763    473.537
119.470    693.000    735.881    -42.881    473.829    728.909    473.829    480.814    473.829
119.570    686.027    703.335    -17.308    474.126    696.581    474.126    480.889    474.126
119.670    634.300    676.560    -42.260    474.430    670.010    474.430    480.987    474.430
119.770    699.274    654.530     44.745    474.741    648.167    474.741    481.108    474.741
119.870    651.000    636.398     14.602    475.059    630.208    475.059    481.252    475.059
119.970    586.000    621.479    -35.479    475.383    615.445    475.383    481.420    475.383
120.070    585.000    609.218    -24.218    475.714    603.324    475.714    481.610    475.714
120.170    566.000    599.175    -33.175    476.052    593.404    476.052    481.825    476.052
120.270    564.000    590.999    -26.999    476.397    585.334    476.397    482.065    476.397
120.370    553.187    584.415    -31.229    476.748    578.838    476.748    482.329    476.748
120.470    545.779    579.206    -33.427    477.107    573.698    477.107    482.620    477.107
120.570    545.000    575.204    -30.204    477.473    569.744    477.473    482.938    477.473
120.670    592.000    572.278     19.722    477.846    566.845    477.846    483.284    477.846
120.770    589.907    570.323     19.583    478.227    564.896    478.227    483.659    478.227
120.870    568.000    569.261     -1.261    478.614    563.817    478.614    484.065    478.614
120.970    547.000    569.026    -22.026    479.009    563.540    479.009    484.502    479.009
121.070    575.000    569.564      5.436    479.411    564.013    479.411    484.971    479.411
121.170    605.733    570.827     34.906    479.821    565.185    479.821    485.473    479.821
121.270    533.000    572.770    -39.770    480.238    567.011    480.238    486.008    480.238
121.370    577.000    575.347      1.653    480.662    569.445    480.662    486.577    480.662
121.470    579.721    578.507      1.214    481.094    572.437    481.094    487.179    481.094
121.570    599.000    582.194     16.806    481.534    575.931    481.534    487.814    481.534
121.670    585.000    586.345     -1.345    481.982    579.866    481.982    488.480    481.982
121.770    593.000    590.886      2.114    482.437    584.169    482.437    489.176    482.437
121.870    594.000    595.736     -1.736    482.900    588.760    482.900    489.900    482.900
121.970    553.709    600.800    -47.091    483.371    593.550    483.371    490.648    483.371
122.070    610.000    605.979      4.021    483.850    598.441    483.850    491.418    483.850
122.170    619.000    611.161      7.839    484.337    603.327    484.337    492.204    484.337
122.270    606.000    616.231    -10.231    484.832    608.095    484.832    493.003    484.832
122.370    617.000    621.065     -4.065    485.335    612.632    485.335    493.807    485.335
122.470    624.000    625.547     -1.547    485.847    616.822    485.847    494.612    485.847
122.570    660.000    629.557     30.443    486.366    620.555    486.366    495.412    486.366
122.670    593.000    632.989    -39.989    486.894    623.730    486.894    496.199    486.894
122.770    658.000    635.750     22.250    487.430    626.262    487.430    496.965    487.430
122.870    654.000    637.770     16.230    487.975    628.091    487.975    497.703    487.975
122.970    660.000    639.006     20.994    488.528    629.178    488.528    498.406    488.528
123.070    633.000    639.444     -6.444    489.090    629.517    489.090    499.066    489.090
123.170    668.000    639.098     28.902    489.660    629.127    489.660    499.680    489.660
123.270    607.118    638.009    -30.891    490.239    628.052    490.239    500.244    490.239
123.370    687.324    636.237     51.087    490.826    626.355    490.826    500.757    490.826
123.470    655.000    633.861     21.139    491.423    624.111    491.423    501.219    491.423
123.570    608.000    630.968    -22.968    492.028    621.406    492.028    501.633    492.028
123.670    633.199    627.650      5.549    492.642    618.329    492.642    502.005    492.642
123.770    632.000    624.002      7.998    493.266    614.965    493.266    502.341    493.266
123.870    602.000    620.113    -18.113    493.898    611.399    493.898    502.647    493.898
123.970    614.000    616.068     -2.068    494.539    607.708    494.539    502.931    494.539
124.070    569.411    611.944    -42.532    495.189    603.961    495.189    503.201    495.189
124.170    615.000    607.805      7.195    495.849    600.217    495.849    503.463    495.849
124.270    608.313    603.708      4.605    496.518    596.524    496.518    503.725    496.518
124.370    640.000    599.692     40.308    497.197    592.916    497.197    503.992    497.197
124.470    669.000    595.790     73.210    497.884    589.420    497.884    504.271    497.884
124.570    599.798    592.019      7.780    498.582    586.049    498.582    504.566    498.582
124.670    553.386    588.389    -35.004    499.288    582.810    499.288    504.880    499.288
124.770    569.312    584.903    -15.590    500.005    579.699    500.005    505.219    500.005
124.870    582.482    581.552      0.930    500.731    576.707    500.731    505.584    500.731
124.970    597.000    578.337     18.663    501.467    573.833    501.467    505.978    501.467
