neutron_powder_diffraction_0047
R_wp: 3.856
Temperature (K): 629.068
Counts: 83721.00
Wavelength (Ã…): 2.52098
COMMENTS
Test file for demonstrating the .xyy file format in Reel1.0
END OF HEADER
   tth       Y_obs     Y_calc      Y_res    Background    Phase_1_Nuc    Phase_1_Mag    Phase_2_Nuc    Phase_2_Mag
  9.970    694.000    680.066     13.934    678.650    679.655    679.061    678.650    678.650
 10.070    729.713    679.510     50.203    678.009    679.094    678.424    678.009    678.009
 10.170    698.573    678.965     19.608    677.367    678.545    677.787    677.367    677.367
 10.270    695.000    678.435     16.565    676.726    678.010    677.150    676.726    676.726
 10.370    710.000    677.921     32.079    676.085    677.492    676.514    676.085    676.085
 10.470    684.000    677.427      6.573    675.445    676.993    675.878    675.445    675.445
 10.570    744.000    676.958     67.042    674.805    676.520    675.243    674.805    674.805
 10.670    714.000    676.520     37.480    674.165    676.076    674.608    674.165    674.165
 10.770    682.000    676.120      5.880    673.525    675.671    673.973    673.525    673.525
 10.870    661.272    675.769    -14.497    672.886    675.315    673.339    672.886    672.886
 10.970    674.000    675.481     -1.481    672.248    675.022    672.706    672.248    672.248
 11.070    628.190    675.275    -47.085    671.610    674.811    672.073    671.610    671.610
 11.170    670.630    675.180     -4.550    670.972    674.710    671.440    670.972    670.972
 11.270    651.271    675.237    -23.966    670.335    674.761    670.808    670.335    670.335
 11.370    652.681    675.513    -22.833    669.699    675.032    670.177    669.699    669.699
 11.470    684.000    676.139      7.861    669.062    675.651    669.547    669.062    669.062
 11.570    702.964    677.403     25.561    668.427    676.909    668.917    668.427    668.427
 11.670    700.084    679.977     20.107    667.792    679.475    668.288    667.792    667.792
 11.770    635.551    685.245    -49.694    667.158    684.734    667.659    667.158    667.158
 11.870    784.000    695.479     88.521    666.524    694.956    667.031    666.524    666.524
 11.970    770.000    713.208     56.792    665.891    712.669    666.404    665.891    665.891
 12.070    833.000    739.187     93.813    665.259    738.627    665.778    665.259    665.259
 12.170    793.000    768.917     24.083    664.627    768.334    665.153    664.627    664.627
 12.270    765.450    789.794    -24.344    663.996    789.193    664.529    663.996    663.996
 12.370    766.653    788.064    -21.411    663.366    787.457    663.905    663.366    663.366
 12.470    797.000    764.624     32.376    662.737    764.023    663.282    662.737    662.737
 12.570    786.638    733.665     52.973    662.108    733.074    662.660    662.108    662.108
 12.670    703.000    707.076     -4.076    661.480    706.493    662.039    661.480    661.480
 12.770    662.000    688.790    -26.790    660.853    688.209    661.419    660.853    660.853
 12.870    608.000    677.806    -69.806    660.227    677.224    660.800    660.227    660.227
 12.970    699.772    671.576     28.197    659.602    670.989    660.182    659.602    659.602
 13.070    647.000    667.897    -20.897    658.977    667.305    659.565    658.977    658.977
 13.170    645.000    665.455    -20.455    658.354    664.856    658.949    658.354    658.354
 13.270    627.960    663.621    -35.660    657.731    663.015    658.334    657.731    657.731
 13.370    634.000    662.123    -28.123    657.110    661.510    657.720    657.110    657.110
 13.470    592.000    660.838    -68.838    656.489    660.218    657.107    656.489    656.489
 13.570    641.435    659.716    -18.281    655.869    659.088    656.495    655.869    655.869
 13.670    642.000    658.820    -16.820    655.250    658.183    655.885    655.250    655.250
 13.770    606.642    657.889    -51.247    654.632    657.245    655.275    654.632    654.632
 13.870    652.000    657.006     -5.006    654.016    656.353    654.667    654.016    654.016
 13.970    636.000    656.171    -20.171    653.400    655.510    654.060    653.400    653.400
 14.070    655.000    655.375     -0.375    652.785    654.705    653.455    652.785    652.785
 14.170    673.000    654.609     18.391    652.172    653.930    652.850    652.172    652.172
 14.270    659.466    653.869      5.597    651.559    653.181    652.247    651.559    651.559
 14.370    695.551    653.152     42.399    650.948    652.454    651.645    650.948    650.948
 14.470    667.791    652.454     15.337    650.338    651.747    651.045    650.338    650.338
 14.570    671.171    651.767     19.404    649.729    651.050    650.446    649.729    649.729
 14.670    660.182    651.093      9.089    649.121    650.365    649.848    649.121    649.121
 14.770    610.287    650.431    -40.144    648.514    649.693    649.251    648.514    648.514
 14.870    628.000    649.794    -21.794    647.909    649.046    648.657    647.909    647.909
 14.970    615.000    649.160    -34.160    647.304    648.401    648.063    647.304    647.304
 15.070    685.189    648.524     36.665    646.701    647.753    647.471    646.701    646.701
 15.170    624.600    647.894    -23.294    646.099    647.112    646.881    646.099    646.099
 15.270    687.611    647.268     40.344    645.499    646.474    646.292    645.499    645.499
 15.370    684.891    646.647     38.244    644.899    645.842    645.704    644.899    644.899
 15.470    623.686    646.032    -22.346    644.301    645.215    645.118    644.301    644.301
 15.570    669.929    645.421     24.508    643.705    644.592    644.534    643.705    643.705
 15.670    641.756    644.815     -3.059    643.109    643.973    643.951    643.109    643.109
 15.770    657.000    644.212     12.788    642.515    643.357    643.370    642.515    642.515
 15.870    656.861    643.614     13.247    641.923    642.745    642.791    641.923    641.923
 15.970    644.000    643.018      0.982    641.332    642.137    642.213    641.332    641.332
 16.070    620.000    642.427    -22.427    640.742    641.531    641.637    640.742    640.742
 16.170    666.632    641.839     24.793    640.153    640.929    641.063    640.153    640.153
 16.270    634.000    641.255     -7.255    639.566    640.331    640.490    639.566    639.566
 16.370    609.000    640.677    -31.677    638.981    639.738    639.919    638.981    638.981
 16.470    679.389    640.098     39.291    638.396    639.144    639.351    638.396    638.396
 16.570    603.816    639.522    -35.705    637.814    638.552    638.783    637.814    637.814
 16.670    614.000    638.948    -24.948    637.232    637.963    638.218    637.232    637.232
 16.770    645.354    638.378      6.976    636.653    637.376    637.655    636.653    636.653
 16.870    638.695    637.810      0.884    636.075    636.791    637.093    636.075    636.075
 16.970    616.046    637.245    -21.199    635.498    636.209    636.534    635.498    635.498
 17.070    596.000    636.683    -40.683    634.923    635.629    635.976    634.923    634.923
 17.170    639.460    636.124      3.337    634.349    635.051    635.421    634.349    634.349
 17.270    608.000    635.567    -27.567    633.777    634.476    634.868    633.777    633.777
 17.370    655.000    635.019     19.981    633.207    633.908    634.317    633.207    633.207
 17.470    649.000    634.471     14.529    632.638    633.341    633.768    632.638    632.638
 17.570    609.599    633.942    -24.343    632.070    632.792    633.221    632.070    632.070
 17.670    630.000    633.454     -3.454    631.505    632.283    632.676    631.505    631.505
 17.770    592.803    632.917    -40.114    630.941    631.724    632.134    630.941    630.941
 17.870    613.000    632.377    -19.377    630.378    631.162    631.593    630.378    630.378
 17.970    627.000    631.839     -4.839    629.817    630.602    631.055    629.817    629.817
 18.070    577.000    631.305    -54.305    629.258    630.044    630.519    629.258    629.258
 18.170    651.171    630.774     20.397    628.701    629.490    629.985    628.701    628.701
 18.270    591.424    630.255    -38.831    628.145    628.946    629.454    628.145    628.145
 18.370    584.000    629.733    -45.733    627.591    628.399    628.925    627.591    627.591
 18.470    637.606    629.210      8.396    627.039    627.850    628.398    627.039    627.039
 18.570    640.000    628.690     11.310    626.488    627.303    627.874    626.488    626.488
 18.670    609.000    628.172    -19.172    625.939    626.758    627.353    625.939    625.939
 18.770    591.000    627.658    -36.658    625.392    626.216    626.834    625.392    625.392
 18.870    623.000    627.150     -4.150    624.847    625.679    626.318    624.847    624.847
 18.970    579.000    626.669    -47.669    624.303    625.167    625.804    624.303    624.303
 19.070    674.629    626.166     48.462    623.762    624.634    625.294    623.762    623.762
 19.170    638.000    625.665     12.335    623.221    624.101    624.786    623.221    623.221
 19.270    591.464    625.176    -33.712    622.683    623.578    624.281    622.683    622.683
 19.370    642.000    624.728     17.272    622.147    623.087    623.788    622.147    622.147
 19.470    610.242    624.268    -14.026    621.612    622.586    623.295    621.612    621.612
 19.570    631.000    623.783      7.217    621.080    622.063    622.799    621.080    621.080
 19.670    560.000    623.299    -63.299    620.549    621.542    622.306    620.549    620.549
 19.770    597.000    622.818    -25.818    620.020    621.022    621.816    620.020    620.020
 19.870    610.000    622.342    -12.342    619.493    620.505    621.329    619.493    619.493
 19.970    586.000    621.869    -35.869    618.967    619.991    620.845    618.967    618.967
 20.070    574.255    621.399    -47.145    618.444    619.479    620.365    618.444    618.444
 20.170    601.902    620.934    -19.032    617.922    618.969    619.888    617.922    617.922
 20.270    665.216    620.474     44.743    617.403    618.462    619.414    617.403    617.403
 20.370    596.000    620.020    -24.020    616.885    617.960    618.945    616.885    616.885
 20.470    585.000    619.596    -34.596    616.369    617.483    618.483    616.369    616.369
 20.570    650.883    619.162     31.721    615.855    616.993    618.024    615.855    615.855
 20.670    634.000    618.750     15.250    615.344    616.522    617.571    615.344    615.344
 20.770    581.000    618.327    -37.327    614.834    616.043    617.117    614.834    614.834
 20.870    605.000    617.925    -12.925    614.326    615.583    616.667    614.326    614.326
 20.970    609.000    617.559     -8.559    613.820    615.157    616.221    613.820    613.820
 21.070    628.000    617.144     10.856    613.316    614.680    615.779    613.316    613.316
 21.170    587.394    616.732    -29.338    612.814    614.204    615.342    612.814    612.814
 21.270    658.000    616.341     41.659    612.314    613.745    614.909    612.314    612.314
 21.370    606.000    615.960     -9.960    611.816    613.294    614.482    611.816    611.816
 21.470    644.000    615.596     28.404    611.319    612.857    614.059    611.319    611.319
 21.570    584.000    615.221    -31.221    610.825    612.405    613.641    610.825    610.825
 21.670    629.000    614.839     14.161    610.333    611.945    613.228    610.333    610.333
 21.770    591.000    614.465    -23.465    609.844    611.487    612.821    609.844    609.844
 21.870    643.889    614.102     29.786    609.356    611.037    612.421    609.356    609.356
 21.970    623.000    613.751      9.249    608.870    610.593    612.028    608.870    608.870
 22.070    602.000    613.407    -11.407    608.386    610.155    611.638    608.386    608.386
 22.170    588.000    613.071    -25.071    607.904    609.720    611.255    607.904    607.904
 22.270    647.781    612.744     35.037    607.425    609.290    610.879    607.425    607.425
 22.370    633.000    612.427     20.573    606.947    608.864    610.509    606.947    606.947
 22.470    596.000    612.121    -16.121    606.472    608.446    610.147    606.472    606.472
 22.570    640.000    611.829     28.171    605.998    608.034    609.793    605.998    605.998
 22.670    603.000    611.552     -8.552    605.527    607.633    609.447    605.527    605.527
 22.770    634.505    611.299     23.206    605.058    607.246    609.111    605.058    605.058
 22.870    578.000    611.057    -33.057    604.591    606.865    608.782    604.591    604.591
 22.970    590.000    610.835    -20.835    604.126    606.498    608.463    604.126    604.126
 23.070    644.221    610.636     33.585    603.663    606.146    608.153    603.663    603.663
 23.170    635.000    610.464     24.536    603.202    605.812    607.854    603.202    603.202
 23.270    608.000    610.319     -2.319    602.744    605.496    607.567    602.744    602.744
 23.370    629.128    610.209     18.919    602.287    605.206    607.291    602.287    602.287
 23.470    599.000    610.141    -11.141    601.833    604.947    607.028    601.833    601.833
 23.570    616.460    610.122      6.337    601.381    604.726    606.778    601.381    601.381
 23.670    626.000    610.166     15.834    600.931    604.555    606.543    600.931    600.931
 23.770    650.000    610.286     39.714    600.483    604.448    606.323    600.483    600.483
 23.870    603.000    610.507     -7.507    600.038    604.426    606.119    600.038    600.038
 23.970    585.000    610.860    -25.860    599.594    604.521    605.935    599.594    599.594
 24.070    652.956    611.401     41.555    599.153    604.787    605.769    599.153    599.153
 24.170    564.831    612.240    -47.409    598.714    605.334    605.623    598.714    598.714
 24.270    598.000    613.628    -15.628    598.277    606.409    605.500    598.277    598.277
 24.370    663.000    616.127     46.873    597.842    608.573    605.402    597.842    597.842
 24.470    626.000    620.819      5.181    597.410    612.908    605.330    597.410    597.410
 24.570    655.000    629.312     25.688    596.980    621.021    605.287    596.980    596.980
 24.670    621.035    643.113    -22.079    596.552    634.415    605.276    596.552    596.552
 24.770    672.000    662.094      9.906    596.126    652.960    605.300    596.126    596.126
 24.870    755.000    682.171     72.829    595.702    672.564    605.362    595.702    595.702
 24.970    703.000    694.005      8.995    595.281    683.881    605.467    595.281    595.281
 25.070    686.000    689.666     -3.666    594.862    678.967    605.619    594.862    594.862
 25.170    715.000    672.729     42.271    594.445    661.397    605.823    594.445    594.445
 25.270    687.405    652.993     34.412    594.030    640.969    606.086    594.030    594.030
 25.370    628.000    637.027     -9.027    593.618    624.250    606.415    593.618    593.618
 25.470    666.000    626.609     39.391    593.208    613.011    606.817    593.208    593.208
 25.570    608.202    620.829    -12.627    592.800    606.333    607.303    592.800    592.800
 25.670    599.000    618.046    -19.046    592.394    602.561    607.884    592.394    592.394
 25.770    617.901    616.925      0.976    591.991    600.345    608.573    591.991    591.991
 25.870    637.582    616.694     20.888    591.589    598.899    609.386    591.589    591.589
 25.970    632.000    616.997     15.003    591.191    597.847    610.343    591.191    591.191
 26.070    635.000    617.694     17.306    590.794    597.024    611.465    590.794    590.794
 26.170    601.863    618.739    -16.876    590.400    596.359    612.781    590.400    590.400
 26.270    626.812    620.129      6.684    590.008    595.811    614.325    590.008    590.008
 26.370    645.005    621.882     23.123    589.618    595.361    616.138    589.618    589.618
 26.470    648.085    624.039     24.046    589.230    594.995    618.274    589.230    589.230
 26.570    661.000    626.660     34.340    588.845    594.706    620.798    588.845    588.845
 26.670    602.792    629.830    -27.039    588.462    594.495    623.796    588.462    588.462
 26.770    680.000    633.653     46.347    588.081    594.362    627.371    588.081    588.081
 26.870    587.439    638.287    -50.849    587.703    594.321    631.667    587.703    587.703
 26.970    625.000    643.920    -18.920    587.327    594.372    636.872    587.327    587.327
 27.070    676.000    650.830     25.170    586.953    594.541    643.239    586.953    586.953
 27.170    692.000    659.397     32.603    586.582    594.855    651.118    586.582    586.582
 27.270    673.000    670.153      2.847    586.212    595.356    661.004    586.212    586.212
 27.370    659.002    683.879    -24.877    585.845    596.102    673.614    585.845    585.845
 27.470    762.000    701.786     60.214    585.481    597.189    690.068    585.481    585.481
 27.570    742.000    726.115     15.885    585.119    598.789    712.431    585.119    585.119
 27.670    802.000    762.358     39.642    584.759    601.324    745.773    584.759    584.759
 27.770    830.481    826.685      3.796    584.401    606.036    805.018    584.401    584.401
 27.870    970.260    963.792      6.467    584.045    616.340    931.430    584.045    584.045
 27.970   1323.132   1270.828     52.304    583.692    639.665   1214.711    583.692    583.692
 28.070   1779.000   1890.680   -111.680    583.342    686.936   1786.807    583.342    583.342
 28.170   2700.000   2913.342   -213.342    582.993    765.050   2730.837    582.993    582.993
 28.270   4164.000   4184.065    -20.065    582.647    862.251   3903.905    582.647    582.647
 28.370   5061.000   5174.597   -113.597    582.303    938.341   4818.085    582.303    582.303
 28.470   5398.000   5271.086    126.914    581.962    946.775   4906.056    581.962    581.962
 28.570   4485.000   4455.330     29.670    581.622    886.905   4150.046    581.622    581.622
 28.670   3341.000   3374.132    -33.132    581.285    809.485   3145.997    581.285    581.285
 28.770   2563.000   2650.252    -87.252    580.951    763.754   2467.478    580.951    580.951
 28.870   2503.157   2496.620      6.536    580.619    766.692   2310.524    580.619    580.619
 28.970   2809.992   2758.852     51.140    580.289    804.153   2534.963    580.289    580.289
 29.070   3105.323   3064.794     40.530    579.961    840.835   2803.973    579.961    579.961
 29.170   3181.000   3042.625    138.375    579.636    840.199   2782.229    579.636    579.636
 29.270   2652.000   2611.544     40.456    579.313    795.081   2395.994    579.313    579.313
 29.370   2085.046   2005.012     80.034    578.992    730.899   1853.296    578.992    578.992
 29.470   1452.000   1469.627    -17.627    578.673    674.127   1374.305    578.673    578.673
 29.570   1137.693   1104.773     32.920    578.357    635.436   1047.769    578.357    578.357
 29.670    929.505    896.797     32.707    578.044    613.411    861.468    578.044    578.044
 29.770    838.812    790.093     48.719    577.732    602.153    765.691    577.732    577.732
 29.870    760.000    735.327     24.673    577.423    596.423    716.336    577.423    577.423
 29.970    750.000    703.955     46.045    577.116    593.200    687.877    577.116    577.116
 30.070    732.000    683.251     48.749    576.812    591.148    668.917    576.812    576.812
 30.170    713.000    668.262     44.738    576.509    589.770    655.003    576.509    576.509
 30.270    666.097    657.035      9.062    576.209    588.910    644.334    576.209    576.209
 30.370    668.410    648.772     19.638    575.912    588.601    636.081    575.912    575.912
 30.470    667.000    643.397     23.603    575.617    589.099    629.911    575.617    575.617
 30.570    629.971    641.656    -11.685    575.324    591.040    625.933    575.324    575.324
 30.670    655.606    645.223     10.383    575.033    595.535    624.708    575.033    575.033
 30.770    617.712    656.225    -38.513    574.745    603.916    627.030    574.745    574.745
 30.870    658.428    675.646    -17.217    574.459    616.831    633.235    574.459    574.459
 30.970    745.000    700.702     44.298    574.175    632.739    642.086    574.175    574.175
 31.070    746.000    722.426     23.574    573.893    646.523    649.734    573.893    573.893
 31.170    694.000    727.632    -33.632    573.614    650.628    650.557    573.614    573.614
 31.270    737.374    710.620     26.754    573.337    641.798    642.109    573.337    573.337
 31.370    701.028    681.011     20.017    573.063    625.596    628.442    573.063    573.063
 31.470    655.000    651.706      3.294    572.790    609.472    615.002    572.790    572.790
 31.570    668.762    629.343     39.419    572.520    597.263    604.587    572.520    572.520
 31.670    629.000    614.876     14.124    572.253    589.533    597.587    572.253    572.253
 31.770    618.342    606.421     11.921    571.987    585.209    593.193    571.987    571.987
 31.870    624.607    601.587     23.020    571.724    582.925    590.382    571.724    571.724
 31.970    589.000    598.640     -9.640    571.463    581.690    588.411    571.463    571.463
 32.070    615.000    596.645     18.355    571.205    580.973    586.874    571.205    571.205
 32.170    562.994    595.186    -32.192    570.949    580.544    585.589    570.949    570.949
 32.270    643.000    594.094     48.906    570.695    580.311    584.476    570.695    570.695
 32.370    547.720    593.296    -45.576    570.443    580.240    583.496    570.443    570.443
 32.470    597.000    592.761      4.239    570.193    580.323    582.629    570.193    570.193
 32.570    563.000    592.480    -29.480    569.946    580.563    581.861    569.946    569.946
 32.670    635.000    592.460     42.540    569.701    580.974    581.185    569.701    569.701
 32.770    554.000    592.723    -38.723    569.459    581.582    580.597    569.459    569.459
 32.870    601.000    593.308      7.692    569.218    582.426    580.098    569.218    569.218
 32.970    604.000    594.278      9.722    568.980    583.564    579.692    568.980    568.980
 33.070    613.536    595.726     17.810    568.744    585.077    579.391    568.744    568.744
 33.170    695.000    597.800     97.200    568.510    587.094    579.214    568.510    568.510
 33.270    603.000    600.748      2.252    568.279    589.827    579.197    568.279    568.279
 33.370    594.000    605.067    -11.067    568.050    593.699    579.415    568.050    568.050
 33.470    658.000    611.865     46.135    567.823    599.648    580.036    567.823    567.823
 33.570    581.000    623.590    -42.590    567.598    609.743    581.439    567.598    567.598
 33.670    613.000    645.069    -32.069    567.376    628.067    584.367    567.376    567.376
 33.770    648.271    684.069    -35.798    567.156    661.185    590.023    567.156    567.156
 33.870    800.000    749.740     50.260    566.938    716.832    599.819    566.938    566.938
 33.970    833.000    847.453    -14.453    566.722    799.548    614.587    566.722    566.722
 34.070    971.519    970.236      1.283    566.508    903.445    633.247    566.508    566.508
 34.170   1108.000   1088.820     19.180    566.297   1003.787    651.270    566.297    566.297
 34.270   1159.000   1150.989      8.011    566.088   1056.447    660.578    566.088    566.088
 34.370   1150.000   1118.952     31.048    565.881   1029.480    655.324    565.881    565.881
 34.470   1066.000   1013.879     52.121    565.676    940.768    638.780    565.676    565.676
 34.570    889.000    887.953      1.047    565.474    834.412    619.017    565.474    565.474
 34.670    725.000    779.095    -54.095    565.273    742.469    601.904    565.273    565.273
 34.770    748.000    701.330     46.670    565.075    676.798    589.611    565.075    565.075
 34.870    645.000    652.777     -7.777    564.879    635.812    581.847    564.879    564.879
 34.970    638.477    624.997     13.479    564.685    612.378    577.306    564.685    564.685
 35.070    584.802    609.476    -24.674    564.494    599.298    574.671    564.494    564.494
 35.170    674.000    600.347     73.653    564.304    591.617    573.034    564.304    564.304
 35.270    590.000    594.408     -4.408    564.117    586.625    571.899    564.117    564.117
 35.370    601.771    590.146     11.625    563.932    583.044    571.033    563.932    563.932
 35.470    633.152    586.884     46.268    563.749    580.301    570.331    563.749    563.749
 35.570    552.337    584.293    -31.956    563.568    578.118    569.743    563.568    563.568
 35.670    591.000    582.191      8.809    563.389    576.340    569.240    563.389    563.389
 35.770    591.000    580.460     10.540    563.213    574.867    568.805    563.213    563.213
 35.870    558.000    579.018    -21.018    563.038    573.631    568.426    563.038    563.038
 35.970    613.000    577.808     35.192    562.866    572.579    568.095    562.866    562.866
 36.070    526.000    576.787    -50.787    562.696    571.676    567.807    562.696    562.696
 36.170    592.000    575.924     16.076    562.528    570.894    567.558    562.528    562.528
 36.270    564.000    575.195    -11.195    562.362    570.211    567.346    562.362    562.362
 36.370    593.694    574.586     19.108    562.198    569.612    567.173    562.198    562.198
 36.470    582.000    574.086      7.914    562.037    569.085    567.038    562.037    562.037
 36.570    571.000    573.690     -2.690    561.877    568.620    566.946    561.877    561.877
 36.670    543.267    573.395    -30.128    561.720    568.213    566.901    561.720    561.720
 36.770    574.000    573.207      0.793    561.564    567.859    566.911    561.564    561.564
 36.870    548.000    573.135    -25.135    561.411    567.558    566.987    561.411    561.411
 36.970    574.000    573.198      0.802    561.259    567.314    567.144    561.259    561.259
 37.070    558.000    573.433    -15.433    561.110    567.139    567.403    561.110    561.110
 37.170    559.000    573.908    -14.908    560.963    567.068    567.802    560.963    560.963
 37.270    544.000    574.759    -30.759    560.818    567.174    568.403    560.818    560.818
 37.370    617.716    576.256     41.461    560.675    567.592    569.338    560.675    560.675
 37.470    599.000    578.881     20.119    560.534    568.529    570.886    560.534    560.534
 37.570    618.022    583.425     34.596    560.395    570.213    573.607    560.395    560.395
 37.670    638.000    590.998     47.002    560.258    572.767    578.488    560.258    560.258
 37.770    576.000    602.826    -26.826    560.123    576.012    586.936    560.123    560.123
 37.870    573.780    619.656    -45.875    559.990    579.235    600.409    559.990    559.990
 37.970    640.525    640.848     -0.323    559.859    581.171    619.533    559.859    559.859
 38.070    712.746    663.897     48.848    559.731    580.817    642.807    559.731    559.731
 38.170    628.000    684.002    -56.002    559.604    578.459    665.144    559.604    559.604
 38.270    675.000    693.617    -18.617    559.479    575.188    677.906    559.479    559.479
 38.370    693.681    686.873      6.808    559.356    571.916    674.314    559.356    559.356
 38.470    620.000    666.351    -46.351    559.235    569.141    656.449    559.235    559.235
 38.570    600.494    640.611    -40.117    559.116    567.051    632.681    559.116    559.116
 38.670    575.000    616.981    -41.981    558.999    565.603    610.381    558.999    558.999
 38.770    586.000    598.859    -12.859    558.884    564.643    593.104    558.884    558.884
 38.870    571.000    586.607    -15.607    558.771    564.005    581.374    558.771    558.771
 38.970    596.000    579.036     16.964    558.660    563.570    574.127    558.660    558.660
 39.070    568.000    574.569     -6.569    558.551    563.257    569.863    558.551    558.551
 39.170    571.000    571.900     -0.900    558.444    563.016    567.328    558.444    558.444
 39.270    567.000    570.192     -3.192    558.338    562.820    565.711    558.338    558.338
 39.370    586.000    568.995     17.005    558.235    562.653    564.577    558.235    558.235
 39.470    618.000    568.090     49.910    558.133    562.510    563.714    558.133    558.133
 39.570    585.000    567.371     17.629    558.034    562.384    563.021    558.034    558.034
 39.670    572.000    566.785      5.215    557.936    562.275    562.446    557.936    557.936
 39.770    588.000    566.299     21.701    557.840    562.179    561.960    557.840    557.840
 39.870    526.414    565.891    -39.477    557.746    562.096    561.542    557.746    557.746
 39.970    561.000    565.547     -4.547    557.654    562.025    561.177    557.654    557.654
 40.070    565.000    565.257     -0.257    557.564    561.965    560.855    557.564    557.564
 40.170    562.000    565.011     -3.011    557.475    561.918    560.569    557.475    557.475
 40.270    583.000    564.804     18.196    557.389    561.882    560.311    557.389    557.389
 40.370    550.000    564.632    -14.632    557.304    561.858    560.078    557.304    557.304
 40.470    567.000    564.491      2.509    557.221    561.848    559.865    557.221    557.221
 40.570    606.865    564.380     42.485    557.140    561.851    559.669    557.140    557.140
 40.670    528.000    564.298    -36.298    557.061    561.870    559.489    557.061    557.061
 40.770    530.000    564.244    -34.244    556.984    561.906    559.322    556.984    556.984
 40.870    594.579    564.219     30.360    556.908    561.961    559.167    556.908    556.908
 40.970    525.031    564.225    -39.195    556.834    562.037    559.023    556.834    556.834
 41.070    535.000    564.265    -29.265    556.762    562.139    558.889    556.762    556.762
 41.170    532.321    564.341    -32.020    556.692    562.271    558.763    556.692    556.692
 41.270    538.082    564.460    -26.378    556.624    562.438    558.647    556.624    556.624
 41.370    565.000    564.628      0.372    556.557    562.648    558.538    556.557    556.557
 41.470    551.560    564.855    -13.295    556.492    562.911    558.437    556.492    556.492
 41.570    577.000    565.155     11.845    556.429    563.240    558.345    556.429    556.429
 41.670    566.439    565.546      0.892    556.367    563.654    558.261    556.367    556.367
 41.770    547.506    566.058    -18.553    556.307    564.182    558.186    556.307    556.307
 41.870    551.696    566.742    -15.046    556.249    564.872    558.121    556.249    556.249
 41.970    577.948    567.695     10.254    556.193    565.819    558.071    556.193    556.193
 42.070    596.744    569.118     27.627    556.138    567.217    558.043    556.138    556.138
 42.170    580.000    571.407      8.593    556.085    569.446    558.050    556.085    556.085
 42.270    573.000    575.266     -2.266    556.034    573.187    558.120    556.034    556.034
 42.370    544.000    581.766    -37.766    555.985    579.468    558.291    555.985    555.985
 42.470    578.000    592.196    -14.196    555.937    589.534    558.612    555.937    555.937
 42.570    543.000    607.594    -64.594    555.890    604.382    559.122    555.890    555.890
 42.670    645.735    627.935     17.800    555.846    623.992    559.818    555.846    555.846
 42.770    599.000    651.113    -52.113    555.803    646.332    560.624    555.803    555.803
 42.870    639.000    671.955    -32.955    555.761    666.423    561.346    555.761    555.761
 42.970    708.421    682.791     25.630    555.722    676.874    561.697    555.722    555.722
 43.070    693.227    678.371     14.856    555.683    672.632    561.482    555.683    555.683
 43.170    649.000    661.080    -12.080    555.647    655.991    560.790    555.647    555.647
 43.270    611.000    638.239    -27.239    555.612    634.000    559.893    555.612    555.612
 43.370    581.000    616.284    -35.284    555.579    612.862    559.032    555.579    555.579
 43.470    563.280    598.602    -35.322    555.547    595.837    558.333    555.547    555.547
 43.570    596.000    586.033      9.967    555.517    583.737    557.827    555.517    555.517
 43.670    583.795    577.914      5.881    555.488    575.922    557.489    555.488    555.488
 43.770    595.000    573.003     21.997    555.461    571.196    557.274    555.461    555.461
 43.870    526.822    570.103    -43.281    555.435    568.407    557.136    555.435    555.435
 43.970    528.000    568.349    -40.349    555.411    566.721    557.043    555.411    555.411
 44.070    573.000    567.220      5.780    555.389    565.635    556.976    555.389    555.389
 44.170    536.185    566.437    -30.252    555.367    564.882    556.924    555.367    555.367
 44.270    614.000    565.864     48.136    555.348    564.331    556.883    555.348    555.348
 44.370    521.579    565.433    -43.853    555.330    563.915    556.849    555.330    555.330
 44.470    539.000    565.105    -26.105    555.313    563.599    556.821    555.313    555.313
 44.570    588.982    564.859     24.123    555.298    563.359    556.799    555.298    555.298
 44.670    556.000    564.678     -8.678    555.285    563.181    556.782    555.285    555.285
 44.770    522.024    564.550    -42.526    555.272    563.053    556.770    555.272    555.272
 44.870    550.000    564.468    -14.468    555.262    562.969    556.762    555.262    555.262
 44.970    554.426    564.426     -9.999    555.252    562.921    556.757    555.252    555.252
 45.070    520.024    564.417    -44.393    555.244    562.905    556.757    555.244    555.244
 45.170    559.000    564.441     -5.441    555.238    562.918    556.761    555.238    555.238
 45.270    537.250    564.492    -27.242    555.233    562.957    556.768    555.233    555.233
 45.370    596.781    564.571     32.210    555.229    563.021    556.780    555.229    555.229
 45.470    586.524    564.676     21.849    555.227    563.108    556.795    555.227    555.227
 45.570    581.110    564.806     16.305    555.226    563.217    556.814    555.226    555.226
 45.670    549.000    564.961    -15.961    555.226    563.350    556.837    555.226    555.226
 45.770    543.000    565.142    -22.142    555.228    563.505    556.865    555.228    555.228
 45.870    619.000    565.349     53.651    555.231    563.683    556.897    555.231    555.231
 45.970    521.505    565.585    -44.079    555.236    563.886    556.934    555.236    555.236
 46.070    501.000    565.850    -64.850    555.242    564.115    556.976    555.242    555.242
 46.170    565.699    566.148     -0.449    555.249    564.373    557.023    555.249    555.249
 46.270    559.000    566.482     -7.482    555.257    564.662    557.076    555.257    555.257
 46.370    584.000    566.856     17.144    555.267    564.986    557.136    555.267    555.267
 46.470    534.000    567.275    -33.275    555.278    565.349    557.202    555.278    555.278
 46.570    603.922    567.746     36.177    555.290    565.758    557.277    555.290    555.290
 46.670    557.000    568.277    -11.277    555.303    566.220    557.360    555.303    555.303
 46.770    539.785    568.882    -29.097    555.318    566.745    557.453    555.318    555.318
 46.870    548.824    569.575    -20.751    555.334    567.349    557.558    555.334    555.334
 46.970    547.000    570.384    -23.384    555.351    568.055    557.678    555.351    555.351
 47.070    557.000    571.354    -14.354    555.370    568.905    557.816    555.370    555.370
 47.170    576.797    572.572      4.225    555.389    569.976    557.982    555.389    555.389
 47.270    553.526    574.203    -20.677    555.410    571.418    558.191    555.410    555.410
 47.370    562.000    576.542    -14.542    555.432    573.499    558.470    555.432    555.432
 47.470    542.000    580.059    -38.059    555.456    576.644    558.862    555.456    555.456
 47.570    551.000    585.402    -34.402    555.480    581.444    559.427    555.480    555.480
 47.670    619.000    593.283     25.717    555.505    588.541    560.231    555.505    555.505
 47.770    622.000    604.212     17.788    555.532    598.400    561.320    555.532    555.532
 47.870    661.700    618.100     43.600    555.560    610.939    562.687    555.560    555.560
 47.970    605.162    633.787    -28.624    555.589    625.102    564.230    555.589    555.589
 48.070    655.326    648.617      6.708    555.619    638.475    565.708    555.619    555.619
 48.170    658.000    658.620     -0.620    555.650    647.449    566.764    555.650    555.650
 48.270    662.000    660.365      1.635    555.682    648.902    567.089    555.682    555.682
 48.370    641.501    653.694    -12.193    555.716    642.689    566.671    555.716    555.716
 48.470    624.719    641.910    -17.191    555.750    631.806    565.815    555.750    555.750
 48.570    589.000    629.117    -40.117    555.785    619.976    564.897    555.785    555.785
 48.670    597.000    618.171    -21.171    555.822    609.790    564.182    555.822    555.822
 48.770    579.420    610.421    -31.001    555.859    602.464    563.802    555.859    555.859
 48.870    564.000    606.118    -42.118    555.898    598.217    563.789    555.898    555.898
 48.970    638.000    604.903     33.097    555.938    596.710    564.123    555.938    555.938
 49.070    563.000    606.228    -43.228    555.978    597.425    564.774    555.978    555.978
 49.170    567.000    609.663    -42.663    556.020    599.946    565.731    556.020    556.020
 49.270    583.000    615.115    -32.115    556.062    604.140    567.032    556.062    556.062
 49.370    594.000    623.062    -29.062    556.106    610.346    568.816    556.106    556.106
 49.470    629.000    635.092     -6.092    556.150    619.792    571.443    556.150    556.150
 49.570    698.164    655.060     43.104    556.196    635.498    575.747    556.196    556.196
 49.670    651.000    691.095    -40.095    556.242    663.847    583.471    556.242    556.242
 49.770    707.067    758.003    -50.936    556.289    716.476    597.781    556.289    556.289
 49.870    927.502    878.279     49.223    556.338    811.068    623.487    556.338    556.338
 49.970   1041.000   1078.541    -37.541    556.387    968.549    666.278    556.387    556.387
 50.070   1324.447   1378.640    -54.194    556.437   1204.533    730.398    556.437    556.437
 50.170   1740.000   1774.493    -34.493    556.488   1515.825    814.972    556.488    556.488
 50.270   2259.680   2220.911     38.770    556.540   1866.961    910.296    556.540    556.540
 50.370   2634.385   2624.345     10.040    556.592   2184.370    996.412    556.592    556.592
 50.470   2852.000   2860.767     -8.767    556.646   2370.491   1046.862    556.646    556.646
 50.570   2820.418   2838.289    -17.871    556.700   2353.131   1041.922    556.700    556.700
 50.670   2669.000   2567.636    101.364    556.755   2140.729    983.822    556.755    556.755
 50.770   2208.000   2152.251     55.749    556.811   1814.662    894.601    556.811    556.811
 50.870   1681.761   1713.915    -32.154    556.868   1470.774    800.200    556.868    556.868
 50.970   1343.000   1338.614      4.386    556.926   1176.788    718.908    556.926    556.926
 51.070   1110.856   1063.956     46.899    556.984    962.350    658.704    556.984    556.984
 51.170    861.000    888.676    -27.676    557.043    826.448    619.350    557.043    557.043
 51.270    806.546    790.061     16.485    557.103    751.037    596.184    557.103    557.103
 51.370    756.443    740.092     16.350    557.164    713.676    583.624    557.164    557.164
 51.470    767.000    715.093     51.907    557.225    695.134    577.223    557.225    557.225
 51.570    708.000    699.332      8.668    557.287    682.446    574.208    557.287    557.287
 51.670    655.130    685.271    -30.141    557.350    669.488    573.163    557.350    557.350
 51.770    690.000    671.470     18.530    557.414    655.453    573.454    557.414    557.414
 51.870    667.000    659.069      7.931    557.478    641.819    574.744    557.478    557.478
 51.970    670.113    649.204     20.909    557.543    630.075    576.681    557.543    557.543
 52.070    618.000    642.130    -24.130    557.609    621.014    578.729    557.609    557.609
 52.170    671.000    637.236     33.764    557.675    614.760    580.152    557.675    557.675
 52.270    693.000    633.506     59.494    557.742    611.019    580.227    557.742    557.742
 52.370    710.000    630.221     79.779    557.809    609.329    578.699    557.809    557.809
 52.470    661.000    627.393     33.607    557.877    609.280    575.989    557.877    557.877
 52.570    667.000    625.541     41.459    557.946    610.651    572.835    557.946    557.946
 52.670    608.387    625.353    -16.966    558.016    613.505    569.864    558.016    558.016
 52.770    658.000    627.657     30.343    558.086    618.295    567.447    558.086    558.086
 52.870    593.124    633.633    -40.509    558.156    626.063    565.726    558.156    558.156
 52.970    641.000    645.160     -4.160    558.227    638.699    564.688    558.227    558.227
 53.070    692.549    665.153     27.396    558.299    659.195    564.255    558.299    558.299
 53.170    711.000    697.628     13.372    558.371    691.639    564.357    558.371    558.371
 53.270    785.000    747.185     37.815    558.444    740.661    564.962    558.444    558.444
 53.370    809.000    817.655     -8.655    558.517    810.102    566.063    558.517    558.517
 53.470    953.429    910.006     43.422    558.591    900.961    567.627    558.591    558.591
 53.570   1065.000   1019.814     45.186    558.665   1008.951    569.519    558.665    558.665
 53.670   1084.000   1134.830    -50.830    558.740   1122.041    571.521    558.740    558.740
 53.770   1287.000   1233.446     53.554    558.816   1218.975    573.285    558.816    558.816
 53.870   1286.000   1288.272     -2.272    558.891   1272.913    574.260    558.891    558.891
 53.970   1263.000   1280.120    -17.120    558.968   1265.023    574.084    558.968    558.968
 54.070   1159.000   1212.420    -53.420    559.044   1198.672    572.819    559.044    559.044
 54.170   1098.000   1108.137    -10.137    559.121   1096.400    570.887    559.121    559.121
 54.270   1016.000    993.798     22.202    559.199    984.246    568.778    559.199    559.199
 54.370    881.216    888.614     -7.398    559.277    881.068    566.844    559.277    559.277
 54.470    758.000    802.625    -44.625    559.355    796.726    565.271    559.355    559.355
 54.570    703.000    738.602    -35.602    559.434    733.939    564.109    559.434    559.434
 54.670    697.000    694.583      2.417    559.513    690.783    563.321    559.513    559.513
 54.770    717.000    666.302     50.698    559.592    663.073    562.827    559.592    559.592
 54.870    629.646    649.114    -19.468    559.672    646.248    562.541    559.672    559.672
 54.970    640.000    639.127      0.873    559.752    636.490    562.391    559.752    559.752
 55.070    641.000    633.598      7.402    559.833    631.107    562.325    559.833    559.833
 55.170    632.000    630.832      1.168    559.913    628.435    562.312    559.913    559.913
 55.270    627.000    629.894     -2.894    559.994    627.557    562.333    559.994    559.994
 55.370    647.000    630.321     16.679    560.076    628.018    562.378    560.076    560.076
 55.470    594.470    631.920    -37.451    560.157    629.633    562.445    560.157    560.157
 55.570    681.833    634.662     47.171    560.239    632.371    562.530    560.239    560.239
 55.670    661.755    638.630     23.125    560.322    636.317    562.634    560.322    560.322
 55.770    595.795    644.049    -48.253    560.404    641.693    562.759    560.404    560.404
 55.870    623.137    651.368    -28.231    560.487    648.945    562.909    560.487    560.487
 55.970    612.000    661.475    -49.475    560.570    658.950    563.092    560.570    560.570
 56.070    667.000    676.076     -9.076    560.653    673.398    563.327    560.653    560.653
 56.170    650.407    698.308    -47.901    560.736    695.391    563.646    560.736    560.736
 56.270    782.578    733.518     49.060    560.820    730.220    564.104    560.820    560.820
 56.370    790.000    789.950      0.050    560.903    786.044    564.787    560.903    560.903
 56.470    905.000    878.779     26.221    560.987    873.921    565.810    560.987    560.987
 56.570   1046.026   1012.757     33.270    561.071   1006.471    567.307    561.071    561.071
 56.670   1248.019   1202.879     45.140    561.155   1194.579    569.390    561.155    561.155
 56.770   1445.000   1453.222     -8.222    561.240   1442.282    572.104    561.240    561.240
 56.870   1815.000   1754.902     60.098    561.324   1740.795    575.357    561.324    561.324
 56.970   2075.894   2080.570     -4.676    561.409   2063.059    578.868    561.409    561.409
 57.070   2362.559   2381.142    -18.582    561.493   2360.500    582.128    561.493    561.493
 57.170   2595.371   2590.028      5.344    561.578   2567.217    584.451    561.578    561.578
 57.270   2667.000   2645.509     21.491    561.663   2622.109    585.200    561.663    561.663
 57.370   2519.000   2528.391     -9.391    561.748   2506.150    584.179    561.748    561.748
 57.470   2265.000   2277.575    -12.575    561.833   2257.824    581.793    561.833    561.833
 57.570   1926.744   1961.571    -34.827    561.918   1944.928    578.759    561.918    561.918
 57.670   1603.000   1642.335    -39.335    562.003   1628.779    575.728    562.003    562.003
 57.770   1218.000   1360.680   -142.680    562.088   1349.756    573.144    562.088    562.088
 57.870   1131.000   1136.443     -5.443    562.173   1127.456    571.255    562.173    562.173
 57.970    912.000    973.155    -61.155    562.258    965.292    570.186    562.258    562.258
 58.070    879.000    864.063     14.937    562.343    856.415    570.032    562.343    562.343
 58.170    851.374    798.206     53.168    562.428    789.688    570.968    562.428    562.428
 58.270    801.000    765.129     35.871    562.513    754.333    573.317    562.513    562.513
 58.370    771.635    757.481     14.154    562.598    742.523    577.553    562.598    562.598
 58.470    700.000    771.456    -71.456    562.683    749.934    584.191    562.683    562.683
 58.570    761.000    805.701    -44.701    562.768    774.900    593.542    562.768    562.768
 58.670    876.173    859.455     16.718    562.853    816.865    605.404    562.853    562.853
 58.770    919.000    930.593    -11.593    562.937    874.697    618.784    562.937    562.937
 58.870    964.000   1014.008    -50.008    563.022    945.211    631.765    563.022    563.022
 58.970   1079.000   1100.839    -21.839    563.106   1022.226    641.668    563.106    563.106
 59.070   1171.000   1179.868     -8.868    563.191   1097.227    645.793    563.191    563.191
 59.170   1293.524   1241.862     51.662    563.275   1162.246    642.874    563.275    563.275
 59.270   1307.846   1282.516     25.330    563.359   1211.885    634.000    563.359    563.359
 59.370   1377.000   1299.907     77.093    563.443   1241.601    621.783    563.443    563.443
 59.470   1350.419   1292.499     57.919    563.527   1247.168    608.908    563.527    563.527
 59.570   1217.036   1263.195    -46.159    563.610   1229.515    597.341    563.610    563.610
 59.670   1208.000   1222.849    -14.849    563.694   1198.436    588.141    563.694    563.694
 59.770   1132.580   1186.107    -53.527    563.777   1168.340    581.549    563.777    563.777
 59.870   1147.492   1164.982    -17.491    563.860   1151.579    577.227    563.860    563.860
 59.970   1186.000   1166.609     19.391    563.943   1155.898    574.571    563.943    563.943
 60.070   1262.000   1194.570     67.430    564.025   1185.485    572.979    564.025    564.025
 60.170   1267.000   1249.998     17.002    564.107   1241.921    572.006    564.107    564.107
 60.270   1317.000   1329.676    -12.676    564.189   1322.254    571.390    564.189    564.189
 60.370   1397.272   1422.740    -25.468    564.271   1415.762    570.996    564.271    564.271
 60.470   1546.000   1509.338     36.662    564.353   1502.668    570.757    564.353    564.353
 60.570   1647.000   1563.439     83.561    564.434   1556.981    570.636    564.434    564.434
 60.670   1510.660   1561.928    -51.268    564.515   1555.611    570.610    564.515    564.515
 60.770   1524.000   1497.526     26.474    564.595   1491.279    570.665    564.595    564.595
 60.870   1370.664   1383.579    -12.915    564.676   1377.318    570.805    564.676    564.676
 60.970   1264.000   1244.721     19.279    564.756   1238.342    571.042    564.756    564.756
 61.070   1124.695   1104.659     20.036    564.835   1098.029    571.402    564.835    564.835
 61.170    939.959    980.365    -40.407    564.914    973.309    571.928    564.914    564.914
 61.270    830.339    881.307    -50.967    564.993    873.570    572.699    564.993    564.993
 61.370    781.000    810.739    -29.739    565.072    801.929    573.855    565.072    565.072
 61.470    792.000    767.952     24.048    565.150    757.436    575.640    565.150    565.150
 61.570    756.870    750.820      6.050    565.228    737.581    578.435    565.228    565.228
 61.670    727.007    757.895    -30.888    565.305    740.372    582.786    565.305    565.305
 61.770    802.000    789.447     12.553    565.382    765.398    589.373    565.382    565.382
 61.870    874.000    847.182     26.818    565.459    813.653    598.908    565.459    565.459
 61.970    941.000    932.776      8.224    565.535    886.269    611.933    565.535    565.535
 62.070   1080.542   1045.648     34.893    565.610    982.568    628.549    565.610    565.610
 62.170   1164.000   1180.610    -16.610    565.685   1097.993    648.126    565.685    565.685
 62.270   1350.000   1325.964     24.036    565.760   1222.442    669.075    565.760    565.760
 62.370   1465.000   1462.539      2.461    565.834   1339.416    688.732    565.834    565.834
 62.470   1618.764   1564.879     53.885    565.908   1427.026    703.535    565.908    565.908
 62.570   1608.000   1607.762      0.238    565.981   1463.589    709.952    565.981    565.981
 62.670   1629.282   1578.642     50.640    566.054   1438.310    706.226    566.054    566.054
 62.770   1433.000   1485.883    -52.883    566.126   1358.360    693.538    566.126    566.126
 62.870   1313.967   1352.889    -38.921    566.198   1243.836    675.182    566.198    566.198
 62.970   1259.690   1205.591     54.099    566.269   1117.016    654.808    566.269    566.269
 63.070   1014.000   1064.564    -50.564    566.340    995.575    635.313    566.340    566.340
 63.170   1001.381    942.833     58.548    566.410    890.706    618.534    566.410    566.410
 63.270    836.000    846.329    -10.329    566.479    807.501    605.308    566.479    566.479
 63.370    754.000    775.385    -21.385    566.548    746.244    595.689    566.548    566.548
 63.470    731.000    726.803      4.197    566.617    704.185    589.233    566.617    566.617
 63.570    732.000    695.806     36.194    566.684    677.209    585.275    566.684    566.684
 63.670    670.000    677.682     -7.682    566.751    661.261    583.164    566.751    566.751
 63.770    623.842    668.774    -44.932    566.818    653.178    582.403    566.818    566.818
 63.870    711.000    666.880     44.120    566.884    651.028    582.721    566.884    566.884
 63.970    696.000    671.284     24.716    566.949    654.112    584.101    566.949    566.949
 64.070    681.000    682.594     -1.594    567.014    662.792    586.789    567.014    567.014
 64.170    728.588    702.480     26.108    567.077    678.221    591.301    567.077    567.077
 64.270    755.000    733.298     21.702    567.141    701.979    598.412    567.141    567.141
 64.370    739.872    777.530    -37.658    567.203    735.582    609.086    567.203    567.203
 64.470    881.000    837.017     43.983    567.265    779.874    624.321    567.265    567.265
 64.570    977.000    912.007     64.993    567.326    834.340    644.883    567.326    567.326
 64.670   1057.000   1000.130     56.870    567.387    896.429    670.952    567.387    567.387
 64.770   1136.000   1095.470     40.530    567.447    961.006    701.752    567.447    567.447
 64.870   1229.000   1188.131     40.869    567.506   1020.236    735.227    567.506    567.506
 64.970   1223.299   1265.130    -41.832    567.564   1064.647    767.869    567.564    567.564
 65.070   1423.000   1313.426    109.574    567.622   1086.013    794.865    567.622    567.622
 65.170   1361.000   1324.255     36.745    567.678   1080.843    810.943    567.678    567.678
 65.270   1340.000   1296.371     43.629    567.735   1051.755    812.234    567.735    567.735
 65.370   1279.000   1236.514     42.486    567.790   1005.903    798.318    567.790    567.790
 65.470   1222.000   1156.830     65.170    567.844    952.076    772.547    567.844    567.844
 65.570   1054.882   1070.385    -15.503    567.898    898.052    740.206    567.898    567.898
 65.670   1020.000    987.436     32.564    567.951    849.020    706.362    567.951    567.951
 65.770    858.243    913.996    -55.753    568.003    807.229    674.781    568.003    568.003
 65.870    798.000    852.260    -54.260    568.054    772.600    647.734    568.054    568.054
 65.970    812.000    801.979     10.021    568.105    743.938    626.168    568.105    568.105
 66.070    745.000    761.928    -16.928    568.154    720.093    610.011    568.154    568.154
 66.170    706.000    730.719    -24.719    568.203    700.397    598.544    568.203    568.203
 66.270    665.000    706.984    -41.984    568.251    684.494    590.755    568.251    568.251
 66.370    652.000    689.422    -37.422    568.298    672.104    585.625    568.298    568.298
 66.470    647.627    676.886    -29.259    568.344    662.946    582.289    568.344    568.344
 66.570    613.000    668.452    -55.452    568.390    656.743    580.101    568.390    568.390
 66.670    672.255    663.427      8.829    568.434    653.237    578.623    568.434    568.434
 66.770    618.000    661.322    -43.322    568.478    652.216    577.583    568.478    568.478
 66.870    611.000    661.864    -50.864    568.520    653.562    576.820    568.520    568.520
 66.970    627.000    665.047    -38.047    568.562    657.358    576.250    568.562    568.562
 67.070    654.000    671.267    -17.267    568.603    664.037    575.830    568.603    568.603
 67.170    650.178    681.511    -31.334    568.643    674.603    575.548    568.643    568.643
 67.270    696.000    697.624     -1.624    568.681    690.885    575.416    568.681    568.681
 67.370    755.527    722.591     32.936    568.719    715.836    575.466    568.719    568.719
 67.470    740.280    760.772    -20.492    568.756    753.761    575.755    568.756    568.756
 67.570    786.000    817.919    -31.919    568.792    810.331    576.362    568.792    568.792
 67.670    888.000    900.772    -12.772    568.827    892.193    577.382    568.827    568.827
 67.770   1064.212   1016.067     48.145    568.861   1005.989    578.909    568.861    568.861
 67.870   1095.000   1168.903    -73.903    568.895   1156.748    581.018    568.895    568.895
 67.970   1445.000   1360.640     84.360    568.927   1345.814    583.724    568.927    568.927
 68.070   1565.066   1586.689    -21.623    568.958   1568.675    586.957    568.958    568.958
 68.170   1765.977   1834.617    -68.640    568.988   1813.086    590.530    568.988    568.988
 68.270   2084.438   2082.840      1.597    569.017   2057.788    594.120    569.017    569.017
 68.370   2368.344   2300.550     67.794    569.045   2272.433    597.269    569.045    569.045
 68.470   2446.017   2451.080     -5.063    569.072   2420.894    599.429    569.072    569.072
 68.570   2521.030   2502.204     18.826    569.098   2471.413    600.121    569.098    569.098
 68.670   2404.000   2441.384    -37.384    569.122   2411.623    599.157    569.122    569.122
 68.770   2284.331   2283.319      1.012    569.146   2255.999    596.755    569.146    569.146
 68.870   2097.000   2061.295     35.705    569.169   2037.335    593.408    569.169    569.169
 68.970   1771.000   1811.856    -40.856    569.190   1791.640    589.659    569.190    569.190
 69.070   1575.000   1565.087      9.913    569.211   1548.558    585.954    569.211    569.211
 69.170   1377.537   1341.714     35.823    569.230   1328.515    582.601    569.230    569.230
 69.270   1098.000   1153.388    -55.388    569.249   1142.996    579.773    569.249    569.249
 69.370    942.510   1004.061    -61.551    569.266    995.896    577.529    569.266    569.266
 69.470    993.000    891.925    101.075    569.282    885.440    575.837    569.282    569.282
 69.570    843.000    811.636     31.364    569.297    806.358    574.623    569.297    569.297
 69.670    744.000    756.371    -12.371    569.311    751.929    573.786    569.311    569.311
 69.770    791.000    719.410     71.590    569.324    715.533    573.223    569.324    569.324
 69.870    727.000    695.069     31.931    569.335    691.568    572.851    569.335    569.335
 69.970    718.000    679.044     38.956    569.346    675.795    572.605    569.346    569.346
 70.070    682.764    668.354     14.410    569.355    665.275    572.441    569.355    569.355
 70.170    651.000    661.083    -10.083    569.363    658.121    572.330    569.363    569.363
 70.270    664.000    656.076      7.924    569.370    653.193    572.255    569.370    569.370
 70.370    680.000    652.673     27.327    569.375    649.843    572.207    569.375    569.375
 70.470    619.632    650.524    -30.893    569.380    647.723    572.181    569.380    569.380
 70.570    637.000    649.468    -12.468    569.383    646.676    572.174    569.383    569.383
 70.670    692.000    649.480     42.520    569.385    646.675    572.186    569.385    569.385
 70.770    689.595    650.658     38.937    569.386    647.818    572.221    569.386    569.386
 70.870    614.000    653.263    -39.263    569.386    650.358    572.285    569.386    569.386
 70.970    683.000    657.789     25.211    569.384    654.778    572.386    569.384    569.384
 71.070    651.000    665.073    -14.073    569.382    661.898    572.544    569.382    569.382
 71.170    672.663    676.445     -3.782    569.378    673.021    572.784    569.378    569.378
 71.270    700.884    693.874      7.010    569.372    690.073    573.149    569.372    569.372
 71.370    732.000    720.072     11.928    569.366    715.710    573.693    569.366    569.366
 71.470    761.619    758.479      3.140    569.358    753.302    574.487    569.358    569.358
 71.570    766.880    813.034    -46.154    569.349    806.704    575.613    569.349    569.349
 71.670    904.811    887.660     17.152    569.339    879.758    577.150    569.339    569.339
 71.770    967.000    985.448    -18.448    569.327    975.494    579.163    569.327    569.327
 71.870   1137.691   1107.615     30.076    569.314   1095.102    581.677    569.314    569.314
 71.970   1192.000   1252.378    -60.378    569.300   1236.838    584.656    569.300    569.300
 72.070   1473.000   1413.939     59.061    569.285   1395.022    587.984    569.285    569.285
 72.170   1530.000   1581.715    -51.715    569.268   1559.294    591.446    569.268    569.268
 72.270   1687.000   1740.027    -53.027    569.250   1714.294    594.723    569.250    569.250
 72.370   1817.000   1868.888    -51.888    569.231   1840.449    597.410    569.231    569.231
 72.470   1926.261   1947.332    -21.071    569.210   1917.221    599.079    569.210    569.210
 72.570   1974.000   1960.007     13.993    569.188   1929.565    599.419    569.188    569.188
 72.670   1870.000   1904.105    -34.105    569.165   1874.724    598.375    569.165    569.165
 72.770   1833.000   1790.891     42.109    569.140   1763.724    596.176    569.140    569.140
 72.870   1706.378   1640.229     66.149    569.114   1616.021    593.227    569.114    569.114
 72.970   1419.000   1473.124    -54.124    569.087   1452.192    589.953    569.087    569.087
 73.070   1330.000   1307.049     22.951    569.058   1289.363    586.700    569.058    569.058
 73.170   1072.000   1154.428    -82.428    569.028   1139.716    583.712    569.028    569.028
 73.270   1000.000   1022.696    -22.696    568.997   1010.551    581.124    568.997    568.997
 73.370    948.000    914.962     33.038    568.964    904.925    578.989    568.964    568.964
 73.470    831.719    830.963      0.756    568.930    822.586    577.298    568.930    568.930
 73.570    726.592    768.177    -41.585    568.895    761.055    576.009    568.895    568.895
 73.670    747.000    722.917     24.083    568.858    716.702    575.067    568.858    568.858
 73.770    760.000    691.229     68.771    568.819    685.628    574.415    568.819    568.819
 73.870    704.993    669.515     35.478    568.780    664.284    574.007    568.780    568.780
 73.970    609.945    654.859    -44.913    568.739    649.784    573.811    568.739    568.739
 74.070    641.000    645.104     -4.104    568.696    639.989    573.809    568.696    568.696
 74.170    599.000    638.781    -39.781    568.652    633.434    574.000    568.652    568.652
 74.270    597.579    634.954    -37.375    568.607    629.177    574.388    568.607    568.607
 74.370    584.955    633.047    -48.092    568.561    626.635    574.979    568.561    568.561
 74.470    619.000    632.693    -13.693    568.512    625.443    575.773    568.512    568.512
 74.570    665.909    633.614     32.294    568.463    625.337    576.756    568.463    568.463
 74.670    650.000    635.531     14.469    568.412    626.073    577.891    568.412    568.412
 74.770    683.000    638.105     44.895    568.360    627.375    579.117    568.360    568.360
 74.870    652.000    640.908     11.092    568.306    628.904    580.342    568.306    568.306
 74.970    652.000    643.411      8.589    568.251    630.250    581.448    568.251    568.251
 75.070    706.000    645.038     60.962    568.194    630.970    582.303    568.194    568.194
 75.170    592.495    645.307    -52.812    568.136    630.689    582.797    568.136    568.136
 75.270    683.000    644.026     38.974    568.076    629.250    582.894    568.076    568.076
 75.370    655.000    641.409     13.591    568.015    626.801    582.663    568.015    568.015
 75.470    688.000    638.011     49.989    567.953    623.739    582.260    567.953    567.953
 75.570    673.000    634.556     38.444    567.889    620.581    581.892    567.889    567.889
 75.670    702.000    631.811     70.189    567.823    617.867    581.789    567.823    567.823
 75.770    676.000    630.536     45.464    567.757    616.114    582.193    567.757    567.757
 75.870    660.259    631.491     28.768    567.688    615.826    583.360    567.688    567.688
 75.970    627.593    635.437     -7.844    567.618    617.488    585.566    567.618    567.618
 76.070    636.000    643.113     -7.113    567.547    621.564    589.087    567.547    567.547
 76.170    659.178    655.189      3.989    567.474    628.460    594.185    567.474    567.474
 76.270    681.662    672.164      9.498    567.400    638.472    601.063    567.400    567.400
 76.370    686.000    694.238     -8.238    567.324    651.709    609.812    567.324    567.324
 76.470    683.478    721.158    -37.680    567.247    668.001    620.353    567.247    567.247
 76.570    693.000    752.089    -59.089    567.168    686.817    632.377    567.168    567.168
 76.670    754.000    785.467    -31.467    567.088    707.180    645.300    567.088    567.088
 76.770    841.000    818.930     22.070    567.007    727.622    658.230    567.007    567.007
 76.870    884.892    849.329     35.563    566.923    746.191    669.969    566.923    566.923
 76.970    879.675    872.958      6.717    566.839    760.592    679.110    566.839    566.839
 77.070    880.000    886.232     -6.232    566.752    768.606    684.284    566.752    566.752
 77.170    867.000    886.776    -19.776    566.665    768.764    684.590    566.665    566.665
 77.270    837.000    874.408    -37.408    566.575    760.950    679.956    566.575    566.575
 77.370    870.000    851.215     18.785    566.485    746.451    671.181    566.485    566.485
 77.470    786.239    820.668    -34.428    566.392    727.413    659.592    566.392    566.392
 77.570    771.000    786.484    -15.484    566.299    706.131    646.608    566.299    566.299
 77.670    771.793    751.877     19.916    566.203    684.589    633.456    566.203    566.203
 77.770    672.296    719.263    -46.967    566.107    664.282    621.061    566.107    566.107
 77.870    658.000    690.237    -32.237    566.008    646.193    610.032    566.008    566.008
 77.970    621.000    665.643    -44.643    565.908    630.845    600.692    565.908    565.908
 78.070    679.530    645.700     33.830    565.807    618.371    593.125    565.807    565.807
 78.170    589.159    630.157    -40.998    565.704    608.616    587.237    565.704    565.704
 78.270    633.000    618.464     14.536    565.600    601.240    582.817    565.600    565.600
 78.370    614.000    609.932      4.068    565.494    595.816    579.604    565.494    565.494
 78.470    584.000    603.857    -19.857    565.386    591.908    577.330    565.386    565.386
 78.570    607.000    599.607      7.393    565.277    589.126    575.754    565.277    565.277
 78.670    590.429    596.665     -6.236    565.167    587.148    574.680    565.167    565.167
 78.770    621.000    594.638     26.362    565.055    585.732    573.958    565.055    565.055
 78.870    610.000    593.247     16.753    564.941    584.703    573.483    564.941    564.941
 78.970    565.361    592.308    -26.947    564.826    583.946    573.185    564.826    564.826
 79.070    571.000    591.706    -20.706    564.709    583.391    573.022    564.709    564.709
 79.170    631.774    591.380     40.394    564.591    582.996    572.972    564.591    564.591
 79.270    584.904    591.304     -6.401    564.471    582.746    573.027    564.471    564.471
 79.370    544.000    591.484    -47.484    564.350    582.640    573.191    564.350    564.350
 79.470    554.000    591.950    -37.950    564.227    582.690    573.484    564.227    564.227
 79.570    610.000    592.758     17.242    564.103    582.920    573.937    564.103    564.103
 79.670    597.000    593.996      3.004    563.977    583.364    574.605    563.977    563.977
 79.770    588.000    595.796     -7.796    563.849    584.065    575.575    563.849    563.849
 79.870    551.234    598.344    -47.111    563.720    585.079    576.980    563.720    563.720
 79.970    649.980    601.910     48.070    563.590    586.476    579.017    563.590    563.590
 80.070    602.000    606.867     -4.867    563.458    588.344    581.972    563.458    563.458
 80.170    626.000    613.719     12.281    563.324    590.798    586.234    563.324    563.324
 80.270    635.000    623.116     11.884    563.189    593.979    592.312    563.189    563.189
 80.370    670.714    635.850     34.864    563.052    598.064    600.821    563.052    563.052
 80.470    659.000    652.818      6.182    562.914    603.259    612.451    562.914    562.914
 80.570    660.504    674.941    -14.437    562.774    609.794    627.895    562.774    562.774
 80.670    687.000    703.056    -16.056    562.633    617.914    647.745    562.633    562.633
 80.770    765.000    737.771     27.229    562.490    627.872    672.353    562.490    562.490
 80.870    829.503    779.280     50.223    562.346    639.897    701.689    562.346    562.346
 80.970    789.000    827.161    -38.161    562.200    654.132    735.187    562.200    562.200
 81.070    868.460    880.158    -11.698    562.052    670.546    771.623    562.052    562.052
 81.170    882.000    936.051    -54.051    561.903    688.857    809.056    561.903    561.903
 81.270   1031.000    991.636     39.364    561.753    708.485    844.869    561.753    561.753
 81.370   1043.000   1042.960      0.040    561.601    728.556    875.979    561.601    561.601
 81.470   1150.000   1085.851     64.149    561.447    747.998    899.287    561.447    561.447
 81.570   1141.000   1116.718     24.282    561.292    765.695    912.317    561.292    561.292
 81.670   1150.396   1133.232     17.164    561.136    780.627    913.758    561.136    561.136
 81.770   1194.000   1134.709     59.291    560.978    792.050    903.670    560.978    560.978
 81.870   1149.000   1121.901     27.099    560.818    799.471    883.295    560.818    560.818
 81.970   1146.267   1096.738     49.529    560.657    802.673    854.781    560.657    560.657
 82.070   1083.000   1062.054     20.946    560.494    801.735    820.882    560.494    560.494
 82.170   1063.539   1021.023     42.516    560.330    796.895    784.533    560.330    560.330
 82.270    983.000    976.617      6.383    560.164    788.455    748.404    560.164    560.164
 82.370    960.000    931.331     28.669    559.997    776.822    714.584    559.997    559.997
 82.470    932.000    887.169     44.831    559.829    762.608    684.466    559.829    559.829
 82.570    901.910    845.655     56.254    559.658    746.621    658.766    559.658    559.658
 82.670    782.926    807.781    -24.855    559.487    729.703    637.633    559.487    559.487
 82.770    761.861    773.970    -12.109    559.314    712.553    620.794    559.314    559.314
 82.870    722.000    744.194    -22.194    559.139    695.679    607.712    559.139    559.139
 82.970    693.000    718.185    -25.185    558.963    679.460    597.739    558.963    558.963
 83.070    694.000    695.651     -1.651    558.785    664.250    590.231    558.785    558.785
 83.170    641.000    676.385    -35.385    558.606    650.400    584.628    558.606    558.606
 83.270    672.406    660.261     12.145    558.425    638.239    580.477    558.425    558.425
 83.370    636.000    647.199    -11.199    558.243    628.027    577.438    558.243    558.243
 83.470    633.000    637.124     -4.124    558.059    619.929    575.269    558.059    558.059
 83.570    659.155    629.942     29.212    557.874    614.019    573.805    557.874    557.874
 83.670    597.000    625.519    -28.519    557.688    610.273    572.933    557.688    557.688
 83.770    585.000    623.659    -38.659    557.500    608.578    572.572    557.500    557.500
 83.870    583.000    624.083    -41.083    557.310    608.730    572.646    557.310    557.310
 83.970    622.000    626.416     -4.416    557.119    610.433    573.077    557.119    557.119
 84.070    651.357    630.178     21.179    556.927    613.301    573.771    556.927    556.927
 84.170    604.186    634.789    -30.602    556.733    616.871    574.612    556.733    556.733
 84.270    655.792    639.577     16.215    556.538    620.605    575.466    556.538    556.538
 84.370    609.000    643.815    -34.815    556.341    623.926    576.183    556.341    556.341
 84.470    659.935    646.782     13.153    556.143    626.263    576.612    556.143    556.143
 84.570    666.000    647.870     18.130    555.944    627.137    576.626    555.944    555.944
 84.670    613.826    646.730    -32.904    555.743    626.270    576.153    555.743    555.743
 84.770    674.961    643.358     31.603    555.540    623.655    575.198    555.540    555.540
 84.870    607.000    638.080    -31.080    555.336    619.540    573.836    555.336    555.336
 84.970    604.000    631.432    -27.432    555.131    614.337    572.190    555.131    555.131
 85.070    589.711    624.015    -34.304    554.924    608.507    570.401    554.924    554.924
 85.170    602.000    616.401    -14.401    554.716    602.486    568.605    554.716    554.716
 85.270    608.000    609.074     -1.074    554.507    596.635    566.924    554.507    554.507
 85.370    575.000    602.408    -27.408    554.296    591.225    565.460    554.296    554.296
 85.470    576.000    596.672    -20.672    554.084    586.441    564.299    554.084    554.084
 85.570    574.115    592.030    -17.916    553.870    582.378    563.509    553.870    553.870
 85.670    556.000    588.563    -32.563    553.655    579.062    563.144    553.655    553.655
 85.770    596.000    586.283      9.717    553.439    576.464    563.247    553.439    553.439
 85.870    574.000    585.157    -11.157    553.221    574.520    563.846    553.221    553.221
 85.970    563.000    585.120    -22.120    553.002    573.150    564.959    553.002    553.002
 86.070    564.150    586.093    -21.944    552.782    572.278    566.583    552.782    552.782
 86.170    599.704    587.989     11.715    552.560    571.842    568.691    552.560    552.560
 86.270    584.000    590.711     -6.711    552.337    571.803    571.227    552.337    552.337
 86.370    552.893    594.156    -41.263    552.112    572.154    574.093    552.112    552.112
 86.470    602.000    598.213      3.787    551.887    572.922    577.153    551.887    551.887
 86.570    610.000    602.761      7.239    551.660    574.167    580.225    551.660    551.660
 86.670    570.000    607.669    -37.669    551.431    575.984    583.085    551.431    551.431
 86.770    571.063    612.804    -41.741    551.201    578.490    585.478    551.201    551.201
 86.870    648.000    618.046     29.954    550.970    581.826    587.148    550.970    550.970
 86.970    615.000    623.326     -8.326    550.738    586.135    587.881    550.738    550.738
 87.070    616.322    628.662    -12.339    550.505    591.548    587.564    550.505    550.505
 87.170    667.657    634.167     33.490    550.270    598.161    586.214    550.270    550.270
 87.270    623.000    640.016    -17.016    550.034    606.008    583.971    550.034    550.034
 87.370    634.000    646.372    -12.372    549.796    615.034    581.055    549.796    549.796
 87.470    661.000    653.306      7.694    549.558    625.070    577.704    549.558    549.558
 87.570    664.000    660.740      3.260    549.318    635.812    574.145    549.318    549.318
 87.670    655.000    668.418    -13.418    549.077    646.811    570.573    549.077    549.077
 87.770    752.000    675.895     76.105    548.835    657.468    567.141    548.835    548.835
 87.870    785.000    682.558    102.442    548.591    667.055    563.966    548.591    548.591
 87.970    706.000    687.685     18.315    548.347    674.779    561.119    548.347    548.347
 88.070    683.000    690.578     -7.578    548.101    679.906    558.639    548.101    548.101
 88.170    670.410    690.741    -20.331    547.854    681.937    556.527    547.854    547.854
 88.270    675.000    688.038    -13.038    547.605    680.755    554.765    547.605    547.605
 88.370    688.431    682.736      5.696    547.356    676.663    553.317    547.356    547.356
 88.470    669.880    675.421     -5.541    547.105    670.287    552.141    547.105    547.105
 88.570    683.000    666.844     16.156    546.853    662.421    551.193    546.853    546.853
 88.670    663.000    657.791      5.209    546.600    653.890    550.433    546.600    546.600
 88.770    643.000    649.006     -6.006    546.346    645.472    549.826    546.346    546.346
 88.870    665.982    641.141     24.840    546.091    637.849    549.344    546.091    546.091
 88.970    623.000    634.723    -11.723    545.835    631.567    548.964    545.835    545.835
 89.070    671.000    630.120     40.880    545.578    627.014    548.668    545.578    545.578
 89.170    614.000    627.527    -13.527    545.319    624.399    548.443    545.319    545.319
 89.270    648.000    626.959     21.041    545.059    623.750    548.274    545.059    545.059
 89.370    643.434    628.257     15.177    544.799    624.922    548.150    544.799    544.799
 89.470    669.463    631.106     38.357    544.537    627.612    548.056    544.537    544.537
 89.570    628.909    635.052     -6.143    544.274    631.381    547.978    544.274    544.274
 89.670    662.000    639.528     22.472    544.010    635.681    547.900    544.010    544.010
 89.770    695.091    643.885     51.205    543.746    639.879    547.801    543.746    543.746
 89.870    662.524    647.439     15.085    543.480    643.311    547.663    543.480    543.480
 89.970    634.000    649.551    -15.551    543.213    645.357    547.467    543.213    543.213
 90.070    690.288    649.736     40.552    542.945    645.545    547.199    542.945    542.945
 90.170    678.000    647.770     30.230    542.676    643.657    546.854    542.676    542.676
 90.270    632.000    643.734    -11.734    542.406    639.767    546.437    542.406    542.406
 90.370    640.972    637.961      3.011    542.135    634.197    545.959    542.135    542.135
 90.470    625.000    630.933     -5.933    541.863    627.414    545.438    541.863    541.863
 90.570    586.618    623.170    -36.552    541.591    619.919    544.892    541.591    541.591
 90.670    572.000    615.158    -43.158    541.317    612.182    544.337    541.317    541.317
 90.770    612.000    607.307      4.693    541.042    604.600    543.787    541.042    541.042
 90.870    576.000    599.939    -23.939    540.767    597.484    543.252    540.767    540.767
 90.970    578.000    593.285    -15.285    540.490    591.058    542.742    540.490    540.490
 91.070    598.057    587.488     10.569    540.213    585.461    542.260    540.213    540.213
 91.170    586.000    582.614      3.386    539.935    580.755    541.809    539.935    539.935
 91.270    598.088    578.664     19.425    539.656    576.942    541.389    539.656    539.656
 91.370    616.712    575.593     41.119    539.376    573.979    540.998    539.376    539.376
 91.470    569.000    573.329     -4.329    539.095    571.795    540.634    539.095    539.095
 91.570    593.000    571.789     21.211    538.814    570.311    540.294    538.814    538.814
 91.670    563.000    570.897     -7.897    538.532    569.453    539.975    538.532    538.532
 91.770    559.952    570.595    -10.643    538.248    569.166    539.676    538.248    538.248
 91.870    587.000    570.855     16.145    537.964    569.421    539.396    537.964    537.964
 91.970    546.000    571.679    -25.679    537.680    570.221    539.134    537.680    537.680
 92.070    543.705    573.109    -29.404    537.394    571.606    538.892    537.394    537.394
 92.170    594.000    575.223     18.777    537.108    573.651    538.672    537.108    537.108
 92.270    581.465    578.133      3.332    536.821    576.465    538.478    536.821    536.821
 92.370    589.000    581.979      7.021    536.534    580.185    538.314    536.534    536.534
 92.470    613.000    586.922     26.078    536.245    584.967    538.185    536.245    536.245
 92.570    579.000    593.133    -14.133    535.956    590.976    538.094    535.956    535.956
 92.670    646.000    600.775     45.225    535.667    598.372    538.046    535.667    535.667
 92.770    601.000    609.991     -8.991    535.376    607.294    538.043    535.376    535.376
 92.870    666.718    620.879     45.838    535.085    617.843    538.087    535.085    535.085
 92.970    616.000    633.473    -17.473    534.794    630.051    538.174    534.794    534.794
 93.070    633.875    647.768    -13.893    534.502    643.919    538.301    534.502    534.502
 93.170    673.000    663.656      9.344    534.209    659.347    538.462    534.209    534.209
 93.270    729.685    680.921     48.764    533.915    676.126    538.646    533.915    533.915
 93.370    674.897    699.250    -24.353    533.621    693.957    538.844    533.621    533.621
 93.470    738.000    718.234     19.766    533.327    712.441    539.042    533.327    533.327
 93.570    713.759    737.384    -23.625    533.032    731.100    539.233    533.032    533.032
 93.670    768.000    756.192     11.808    532.736    749.432    539.409    532.736    532.736
 93.770    774.655    774.221      0.434    532.440    766.995    539.575    532.440    532.440
 93.870    847.127    791.212     55.915    532.144    783.516    539.748    532.144    532.144
 93.970    804.000    807.160     -3.160    531.847    798.953    539.960    531.847    531.847
 94.070    775.000    822.295    -47.295    531.549    813.490    540.261    531.549    531.549
 94.170    830.000    836.984     -6.984    531.252    827.432    540.710    531.252    531.252
 94.270    823.571    851.589    -28.018    530.953    841.081    541.368    530.953    530.953
 94.370    848.020    866.356    -18.337    530.654    854.626    542.293    530.654    530.654
 94.470    894.492    881.370     13.122    530.355    868.105    543.530    530.355    530.355
 94.570    935.000    896.581     38.419    530.056    881.446    545.103    530.056    530.056
 94.670    875.000    911.884    -36.884    529.756    894.542    547.010    529.756    529.756
 94.770    963.184    927.161     36.023    529.456    907.309    549.222    529.456    529.456
 94.870    897.000    942.265    -45.265    529.156    919.664    551.674    529.156    529.156
 94.970    965.000    956.923      8.077    528.855    931.430    554.268    528.855    528.855
 95.070    941.000    970.620    -29.620    528.554    942.225    556.872    528.554    528.554
 95.170   1028.578    982.536     46.043    528.252    951.388    559.329    528.252    528.252
 95.270   1001.000    991.559      9.441    527.951    957.984    561.460    527.951    527.951
 95.370   1038.565    996.407     42.158    527.649    960.915    563.083    527.649    527.649
 95.470   1012.439    995.843     16.596    527.347    959.110    564.031    527.347    527.347
 95.570   1022.000    988.999     33.001    527.045    951.814    564.190    527.045    527.045
 95.670   1009.846    975.611     34.236    526.743    938.809    563.514    526.743    526.743
 95.770    987.000    956.175     30.825    526.440    920.554    562.041    526.440    526.440
 95.870    886.803    931.875    -45.073    526.137    898.117    559.884    526.137    526.137
 95.970    892.000    904.353    -12.353    525.835    872.978    557.204    525.835    525.835
 96.070    895.343    875.465     19.878    525.532    846.813    554.183    525.532    525.532
 96.170    841.057    847.092     -6.035    525.229    821.325    550.998    525.229    525.229
 96.270    829.297    821.026      8.271    524.926    798.142    547.811    524.926    524.926
 96.370    830.000    798.905     31.095    524.623    778.770    544.759    524.623    524.623
 96.470    797.000    782.190     14.810    524.320    764.558    541.949    524.320    524.320
 96.570    829.000    772.140     56.860    524.017    756.692    539.457    524.017    524.017
 96.670    816.000    769.811     46.189    523.714    756.178    537.331    523.714    523.714
 96.770    726.758    776.043    -49.284    523.411    763.838    535.591    523.411    523.411
 96.870    826.366    791.446     34.919    523.108    780.284    534.237    523.108    523.108
 96.970    867.000    816.397     50.603    522.805    805.909    533.249    522.805    522.805
 97.070    897.484    851.129     46.356    522.503    840.973    532.602    522.503    522.503
 97.170    857.000    895.446    -38.446    522.200    885.317    532.261    522.200    522.200
 97.270    900.372    948.859    -48.486    521.898    938.487    532.188    521.898    521.898
 97.370   1043.379   1010.484     32.895    521.595    999.643    532.343    521.595    521.595
 97.470   1100.000   1078.982     21.018    521.293   1067.489    532.681    521.293    521.293
 97.570   1176.000   1152.542     23.458    520.991   1140.262    533.156    520.991    520.991
 97.670   1178.000   1228.788    -50.788    520.690   1215.640    533.716    520.690    520.690
 97.770   1360.000   1304.812     55.188    520.388   1290.769    534.304    520.388    520.388
 97.870   1348.000   1377.193    -29.193    520.087   1362.296    534.857    520.087    520.087
 97.970   1424.000   1442.120    -18.120    519.787   1426.475    535.308    519.787    519.787
 98.070   1494.000   1495.646     -1.646    519.486   1479.425    535.592    519.486    519.486
 98.170   1521.170   1534.122    -12.952    519.186   1517.560    535.646    519.186    519.186
 98.270   1546.000   1554.776     -8.776    518.886   1538.152    535.425    518.886    518.886
 98.370   1503.000   1556.263    -53.263    518.587   1539.876    534.910    518.587    518.587
 98.470   1522.621   1538.937    -16.316    518.288   1523.076    534.106    518.288    518.288
 98.570   1470.834   1504.740    -33.906    517.990   1489.660    533.047    517.990    517.990
 98.670   1446.552   1456.769    -10.218    517.692   1442.672    531.784    517.692    517.692
 98.770   1377.000   1398.738    -21.738    517.394   1385.766    530.377    517.394    517.394
 98.870   1322.000   1334.522    -12.522    517.097   1322.754    528.886    517.097    517.097
 98.970   1261.000   1267.843     -6.843    516.800   1257.304    527.367    516.800    516.800
 99.070   1225.408   1202.086     23.322    516.504   1192.752    525.870    516.504    516.504
 99.170   1170.120   1140.206     29.914    516.209   1132.014    524.433    516.209    516.209
 99.270   1079.451   1084.702     -5.251    515.914   1077.556    523.089    515.914    515.914
 99.370   1066.000   1037.627     28.373    515.620   1031.411    521.861    515.620    515.620
 99.470    976.677   1000.633    -23.956    515.327    995.215    520.762    515.327    515.327
 99.570    962.000    975.004    -13.004    515.034    970.247    519.801    515.034    515.034
 99.670    946.000    961.693    -15.693    514.742    957.461    518.977    514.742    514.742
 99.770   1007.000    961.339     45.661    514.450    957.499    518.285    514.450    514.450
 99.870    988.000    974.284     13.716    514.160    970.713    517.719    514.160    514.160
 99.970   1038.000   1000.577     37.423    513.870    997.163    517.265    513.870    513.870
100.070   1101.000   1039.981     61.019    513.581   1036.627    516.910    513.581    513.581
100.170   1149.780   1091.962     57.817    513.292   1088.587    516.639    513.292    513.292
100.270   1211.000   1155.676     55.324    513.005   1152.212    516.438    513.005    513.005
100.370   1257.000   1229.930     27.070    512.719   1226.328    516.290    512.719    512.719
100.470   1332.000   1313.143     18.857    512.433   1309.368    516.180    512.433    512.433
100.570   1357.687   1403.314    -45.626    512.148   1399.349    516.092    512.148    512.148
100.670   1574.440   1498.040     76.400    511.865   1493.882    516.010    511.865    511.865
100.770   1689.000   1594.454     94.546    511.582   1590.115    515.920    511.582    511.582
100.870   1806.000   1689.395    116.605    511.300   1684.903    515.808    511.300    511.300
100.970   1810.898   1779.616     31.282    511.020   1775.006    515.663    511.020    511.020
101.070   1836.315   1862.067    -25.752    510.740   1857.385    515.478    510.740    510.740
101.170   1876.762   1934.182    -57.421    510.461   1929.472    515.250    510.461    510.461
101.270   2085.000   1994.015     90.985    510.184   1989.317    514.982    510.184    510.184
101.370   2072.401   2040.182     32.219    509.908   2035.529    514.683    509.908    509.908
101.470   2031.489   2071.657    -40.168    509.633   2067.067    514.365    509.633    509.633
101.570   2104.000   2087.568     16.432    509.359   2083.047    514.040    509.359    509.359
101.670   2085.000   2087.170     -2.170    509.086   2082.710    513.722    509.086    509.086
101.770   1970.000   2070.047   -100.047    508.815   2065.628    513.422    508.815    508.815
101.870   1954.675   2036.488    -81.813    508.545   2032.079    513.149    508.545    508.545
101.970   2094.000   1987.835    106.165    508.276   1983.400    512.910    508.276    508.276
102.070   1888.000   1926.591    -38.591    508.009   1922.090    512.709    508.009    508.009
102.170   1850.000   1856.195     -6.195    507.743   1851.588    512.544    507.743    507.743
102.270   1607.000   1780.546   -173.546    507.478   1775.798    512.413    507.478    507.478
102.370   1678.768   1703.483    -24.715    507.215   1698.566    512.308    507.215    507.215
102.470   1589.000   1628.373    -39.373    506.953   1623.271    512.219    506.953    506.953
102.570   1515.194   1557.870    -42.677    506.693   1552.579    512.134    506.693    506.693
102.670   1465.000   1493.815    -28.815    506.434   1488.344    512.042    506.434    506.434
102.770   1459.000   1437.239     21.761    506.177   1431.609    511.931    506.177    506.177
102.870   1328.000   1388.388    -60.388    505.921   1382.632    511.791    505.921    505.921
102.970   1280.000   1346.796    -66.796    505.667   1340.953    511.614    505.667    505.667
103.070   1235.000   1311.375    -76.375    505.415   1305.490    511.396    505.415    505.415
103.170   1307.096   1280.542     26.554    505.165   1274.666    511.131    505.165    505.165
103.270   1199.000   1252.402    -53.402    504.916   1246.588    510.816    504.916    504.916
103.370   1185.000   1224.984    -39.984    504.668   1219.288    510.448    504.668    504.668
103.470   1153.000   1196.513    -43.513    504.423   1190.992    510.027    504.423    504.423
103.570   1099.000   1165.668    -66.668    504.179   1160.376    509.554    504.179    504.179
103.670   1048.000   1131.732    -83.732    503.938   1126.717    509.035    503.938    503.938
103.770   1040.366   1094.613    -54.248    503.698   1089.915    508.479    503.698    503.698
103.870   1054.989   1054.734      0.255    503.460   1050.379    507.896    503.460    503.460
103.970   1038.000   1012.855     25.145    503.223   1008.859    507.298    503.223    503.223
104.070    991.340    969.901     21.440    502.989    966.269    506.696    502.989    502.989
104.170    979.000    926.832     52.168    502.757    923.560    506.100    502.757    502.757
104.270    904.000    884.556     19.444    502.527    881.629    505.519    502.527    502.527
104.370    829.000    843.878    -14.878    502.299    841.278    504.960    502.299    502.299
104.470    835.000    805.474     29.526    502.073    803.175    504.426    502.073    502.073
104.570    756.000    769.873    -13.873    501.849    767.849    503.922    501.849    501.849
104.670    719.684    737.448    -17.764    501.627    735.668    503.450    501.627    501.627
104.770    727.791    708.399     19.393    501.408    706.838    503.005    501.408    501.408
104.870    653.733    682.853    -29.120    501.191    681.479    502.596    501.191    501.191
104.970    612.089    660.750    -48.662    500.976    659.535    502.217    500.976    500.976
105.070    667.463    641.938     25.525    500.763    640.855    501.868    500.763    500.763
105.170    667.593    626.193     41.400    500.552    625.218    501.544    500.552    500.552
105.270    646.000    613.242     32.758    500.344    612.355    501.245    500.344    500.344
105.370    614.000    602.790     11.210    500.139    601.972    500.967    500.139    500.139
105.470    623.437    594.541     28.896    499.936    593.775    500.709    499.936    499.936
105.570    651.000    588.212     62.788    499.735    587.484    500.467    499.735    499.735
105.670    626.000    583.554     42.446    499.537    582.851    500.242    499.537    499.537
105.770    608.000    580.354     27.646    499.341    579.664    500.030    499.341    499.341
105.870    599.000    578.440     20.560    499.148    577.754    499.831    499.148    499.148
105.970    599.000    577.687     21.313    498.957    576.994    499.645    498.957    498.957
106.070    625.000    578.006     46.994    498.769    577.297    499.471    498.769    498.769
106.170    595.000    579.346     15.654    498.584    578.611    499.310    498.584    498.584
106.270    597.000    581.687     15.313    498.402    580.916    499.161    498.402    498.402
106.370    580.000    585.029     -5.029    498.222    584.212    499.025    498.222    498.222
106.470    588.000    589.392     -1.392    498.045    588.517    498.902    498.045    498.045
106.570    639.000    594.801     44.199    497.871    593.857    498.794    497.871    497.871
106.670    567.260    601.281    -34.021    497.699    600.258    498.700    497.699    497.699
106.770    653.000    608.850     44.150    497.531    607.734    498.621    497.531    497.531
106.870    590.000    617.503    -27.503    497.366    616.283    498.556    497.366    497.366
106.970    604.314    627.207    -22.893    497.203    625.871    498.506    497.203    497.203
107.070    661.000    637.888     23.112    497.044    636.426    498.469    497.044    497.044
107.170    691.082    649.425     41.656    496.887    647.829    498.443    496.887    496.887
107.270    663.000    661.647      1.353    496.734    659.909    498.427    496.734    496.734
107.370    635.884    674.329    -38.445    496.584    672.447    498.418    496.584    496.584
107.470    731.000    687.195     43.805    496.437    685.171    498.412    496.437    496.437
107.570    721.000    699.924     21.076    496.293    697.761    498.404    496.293    496.293
107.670    695.589    712.154    -16.565    496.152    709.861    498.391    496.152    496.152
107.770    709.945    723.500    -13.554    496.015    721.093    498.367    496.015    496.015
107.870    711.000    733.581    -22.581    495.881    731.080    498.328    495.881    495.881
107.970    782.000    742.053     39.947    495.751    739.483    498.267    495.751    495.751
108.070    704.000    748.658    -44.658    495.623    746.047    498.183    495.623    495.623
108.170    794.000    753.268     40.732    495.500    750.647    498.072    495.500    495.500
108.270    767.000    755.913     11.087    495.379    753.314    497.934    495.379    495.379
108.370    733.000    756.791    -23.791    495.263    754.242    497.771    495.263    495.263
108.470    809.000    756.232     52.768    495.149    753.759    497.586    495.149    495.149
108.570    757.487    754.659      2.828    495.040    752.283    497.383    495.040    495.040
108.670    735.000    752.523    -17.523    494.934    750.261    497.168    494.934    494.934
108.770    717.663    750.259    -32.596    494.832    748.121    496.946    494.832    494.832
108.870    736.000    748.243    -12.243    494.733    746.235    496.721    494.733    494.733
108.970    777.508    746.767     30.741    494.638    744.890    496.499    494.638    494.638
109.070    753.000    746.026      6.974    494.547    744.278    496.283    494.547    494.547
109.170    717.291    746.105    -28.814    494.460    744.481    496.076    494.460    494.460
109.270    725.600    746.982    -21.381    494.377    745.474    495.880    494.377    494.377
109.370    753.157    748.521      4.636    494.298    747.120    495.697    494.298    494.298
109.470    698.577    750.485    -51.908    494.222    749.182    495.528    494.222    494.222
109.570    757.000    752.545      4.455    494.151    751.329    495.372    494.151    494.151
109.670    753.000    754.301     -1.301    494.084    753.163    495.230    494.084    494.084
109.770    751.000    755.315     -4.315    494.020    754.248    495.099    494.020    494.020
109.870    701.000    755.153    -54.153    493.961    754.151    494.977    493.961    493.961
109.970    757.000    753.444      3.556    493.907    752.504    494.863    493.907    493.907
110.070    727.951    749.939    -21.988    493.856    749.051    494.762    493.856    493.856
110.170    694.000    744.516    -50.516    493.810    743.677    494.669    493.810    493.810
110.270    746.000    737.220      8.780    493.768    736.427    494.583    493.768    493.768
110.370    697.000    728.235    -31.235    493.730    727.484    494.503    493.730    493.730
110.470    708.000    717.849     -9.849    493.697    717.138    494.430    493.697    493.697
110.570    709.000    706.409      2.591    493.668    705.736    494.362    493.668    493.668
110.670    678.000    694.282    -16.282    493.644    693.645    494.301    493.644    493.644
110.770    640.103    681.823    -41.720    493.624    681.220    494.246    493.624    493.624
110.870    653.000    669.366    -16.366    493.609    668.795    494.198    493.609    493.609
110.970    685.000    657.215     27.785    493.599    656.672    494.157    493.599    493.599
111.070    593.000    645.614    -52.614    493.593    645.097    494.124    493.593    493.593
111.170    670.000    634.765     35.235    493.592    634.271    494.098    493.592    493.592
111.270    623.000    624.824     -1.824    493.595    624.350    494.079    493.595    493.595
111.370    663.581    615.901     47.680    493.604    615.445    494.068    493.604    493.604
111.470    591.000    608.063    -17.063    493.617    607.621    494.065    493.617    493.617
111.570    585.000    601.334    -16.334    493.636    600.904    494.070    493.636    493.636
111.670    624.000    595.707     28.293    493.659    595.286    494.082    493.659    493.659
111.770    619.000    591.144     27.856    493.687    590.729    494.102    493.687    493.687
111.870    580.000    587.583     -7.583    493.720    587.173    494.129    493.720    493.720
111.970    592.000    584.949      7.051    493.759    584.541    494.164    493.759    493.759
112.070    563.000    583.154    -20.154    493.802    582.746    494.205    493.802    493.802
112.170    610.748    582.106     28.641    493.851    581.698    494.254    493.851    493.851
112.270    625.354    581.715     43.639    493.905    581.304    494.308    493.905    493.905
112.370    566.000    581.891    -15.891    493.964    581.478    494.370    493.964    493.964
112.470    587.000    582.555      4.445    494.029    582.138    494.437    494.029    494.029
112.570    606.000    583.634     22.366    494.099    583.213    494.510    494.099    494.099
112.670    568.000    585.067    -17.067    494.174    584.641    494.589    494.174    494.174
112.770    612.389    586.804     25.586    494.255    586.374    494.674    494.255    494.255
112.870    571.000    588.810    -17.810    494.342    588.376    494.764    494.342    494.342
112.970    633.000    591.064     41.936    494.434    590.626    494.860    494.434    494.434
113.070    603.667    593.559     10.108    494.532    593.116    494.962    494.532    494.532
113.170    602.000    596.302      5.698    494.635    595.855    495.070    494.635    494.635
113.270    560.000    599.316    -39.316    494.744    598.864    495.184    494.744    494.744
113.370    599.000    602.639     -3.639    494.859    602.181    495.305    494.859    494.859
113.470    570.479    606.324    -35.845    494.980    605.858    495.432    494.980    494.980
113.570    584.000    610.444    -26.444    495.106    609.969    495.568    495.106    495.106
113.670    616.368    615.092      1.275    495.239    614.606    495.711    495.239    495.239
113.770    630.000    620.392      9.608    495.377    619.892    495.863    495.377    495.377
113.870    585.000    626.502    -41.502    495.522    625.983    496.025    495.522    495.522
113.970    651.000    633.623     17.377    495.672    633.082    496.196    495.672    495.672
114.070    625.001    642.015    -17.014    495.829    641.446    496.379    495.829    495.829
114.170    684.799    652.005     32.794    495.992    651.403    496.574    495.992    495.992
114.270    646.000    664.009    -18.009    496.161    663.365    496.782    496.161    496.161
114.370    693.000    678.542     14.458    496.337    677.848    497.003    496.337    496.337
114.470    676.931    696.244    -19.313    496.519    695.491    497.240    496.519    496.519
114.570    735.000    717.896     17.104    496.707    717.072    497.493    496.707    496.707
114.670    778.231    744.440     33.791    496.902    743.533    497.763    496.902    496.902
114.770    823.000    776.995     46.005    497.103    775.992    498.051    497.103    497.103
114.870    821.000    816.872      4.128    497.311    815.757    498.359    497.311    497.311
114.970    866.000    865.579      0.421    497.525    864.336    498.687    497.525    497.525
115.070    859.000    924.821    -65.821    497.746    923.433    499.036    497.746    497.746
115.170    945.000    996.488    -51.488    497.974    994.936    499.407    497.974    497.974
115.270   1073.000   1082.625     -9.625    498.209   1080.891    499.801    498.209    498.209
115.370   1125.000   1185.395    -60.395    498.450   1183.459    500.216    498.450    498.450
115.470   1342.000   1307.014     34.986    498.699   1304.857    500.654    498.699    498.699
115.570   1391.653   1449.672    -58.019    498.954   1447.275    501.114    498.954    498.954
115.670   1692.268   1615.440     76.828    499.216   1612.785    501.595    499.216    499.216
115.770   1865.000   1806.152     58.848    499.486   1803.222    502.096    499.486    499.486
115.870   1994.000   2023.279    -29.279    499.762   2020.059    502.616    499.762    499.762
115.970   2360.202   2267.793     92.409    500.046   2264.272    503.152    500.046    500.046
116.070   2439.989   2540.029   -100.040    500.336   2536.197    503.702    500.336    500.336
116.170   2932.191   2839.543     92.648    500.634   2835.397    504.263    500.634    500.634
116.270   3071.230   3164.972    -93.742    500.940   3160.512    504.832    500.940    500.940
116.370   3515.000   3514.105      0.895    501.253   3509.335    505.407    501.253    501.253
116.470   3757.000   3883.525   -126.525    501.573   3878.455    505.984    501.573    501.573
116.570   4156.000   4268.761   -112.761    501.901   4263.404    506.561    501.901    501.901
116.670   4608.000   4664.245    -56.245    502.236   4658.620    507.135    502.236    502.236
116.770   4907.000   5063.347   -156.347    502.579   5057.475    507.704    502.579    502.579
116.870   5273.000   5458.447   -185.447    502.930   5452.352    508.268    502.930    502.930
116.970   5753.308   5841.055    -87.747    503.288   5834.764    508.827    503.288    503.288
117.070   6073.000   6201.985   -128.985    503.654   6195.527    509.379    503.654    503.654
117.170   6502.000   6531.614    -29.614    504.028   6525.018    509.925    504.028    504.028
117.270   6809.000   6820.231    -11.231    504.410   6813.529    510.463    504.410    504.410
117.370   7027.717   7058.524    -30.807    504.800   7051.748    510.993    504.800    504.800
117.470   7232.000   7238.179     -6.179    505.198   7231.361    511.513    505.198    505.198
117.570   7325.000   7352.554    -27.554    505.604   7345.726    512.023    505.604    505.604
117.670   7491.000   7397.326     93.674    506.018   7390.517    512.519    506.018    506.018
117.770   7532.000   7370.956    161.044    506.441   7364.195    513.001    506.441    506.441
117.870   7305.000   7274.870     30.130    506.871   7268.179    513.467    506.871    506.871
117.970   7129.368   7113.282     16.086    507.310   7106.683    513.916    507.310    507.310
118.070   6850.000   6892.727    -42.727    507.758   6886.237    514.348    507.758    507.758
118.170   6467.000   6621.418   -154.418    508.214   6615.054    514.761    508.214    508.214
118.270   6458.586   6308.567    150.019    508.678   6302.343    515.155    508.678    508.678
118.370   6061.659   5963.775     97.884    509.151   5957.706    515.528    509.151    509.151
118.470   5578.110   5596.554    -18.444    509.632   5590.654    515.882    509.632    509.632
118.570   5304.178   5215.962     88.216    510.123   5210.246    516.215    510.123    510.123
118.670   4887.855   4830.349     57.506    510.622   4824.830    516.531    510.622    510.622
118.770   4369.185   4447.182    -77.998    511.129   4441.874    516.832    511.129    511.129
118.870   4048.000   4072.929    -24.929    511.646   4067.841    517.121    511.646    511.646
118.970   3756.000   3712.984     43.016    512.172   3708.124    517.402    512.172    512.172
119.070   3331.518   3371.647    -40.128    512.706   3367.019    517.682    512.706    512.706
119.170   3224.000   3052.134    171.866    513.250   3047.740    517.963    513.250    513.250
119.270   2816.000   2756.639     59.361    513.803   2752.476    518.252    513.803    513.803
119.370   2484.000   2486.412     -2.412    514.365   2482.476    518.554    514.365    514.365
119.470   2161.859   2241.878    -80.019    514.936   2238.161    518.873    514.936    514.936
119.570   2106.000   2022.762     83.238    515.517   2019.252    519.213    515.517    515.517
119.670   1824.000   1828.220     -4.220    516.107   1824.903    519.578    516.107    516.107
119.770   1679.000   1656.965     22.035    516.707   1653.825    519.971    516.707    516.707
119.870   1604.000   1507.396     96.604    517.316   1504.415    520.395    517.316    517.316
119.970   1443.000   1377.701     65.299    517.934   1374.857    520.852    517.934    517.934
120.070   1218.639   1265.957    -47.318    518.562   1263.229    521.345    518.562    518.562
120.170   1181.000   1170.215     10.785    519.200   1167.577    521.875    519.200    519.200
120.270   1063.000   1088.565    -25.565    519.848   1085.994    522.443    519.848    519.848
120.370   1057.000   1019.196     37.804    520.506   1016.664    523.051    520.506    520.506
120.470   1011.000    960.428     50.572    521.173    957.908    523.698    521.173    521.173
120.570    946.120    910.742     35.378    521.851    908.205    524.386    521.851    521.851
120.670    861.000    868.788     -7.788    522.538    866.206    525.116    522.538    522.538
120.770    817.000    833.390    -16.390    523.236    830.732    525.886    523.236    523.236
120.870    810.131    803.536      6.595    523.944    800.772    526.699    523.944    523.944
120.970    789.000    778.371     10.629    524.662    775.469    527.554    524.662    524.662
121.070    780.000    757.176     22.824    525.390    754.106    528.452    525.390    525.390
121.170    774.000    739.357     34.643    526.129    736.085    529.394    526.129    526.129
121.270    722.000    724.425     -2.425    526.878    720.916    530.380    526.878    526.878
121.370    717.037    711.976      5.061    527.638    708.198    531.411    527.638    527.638
121.470    652.000    701.685    -49.685    528.408    697.600    532.489    528.408    528.408
121.570    680.424    693.282    -12.859    529.189    688.855    533.614    529.189    529.189
121.670    678.857    686.551     -7.694    529.981    681.743    534.787    529.981    529.981
121.770    718.458    681.309     37.149    530.783    676.082    536.011    530.783    530.783
121.870    703.000    677.408     25.592    531.596    671.722    537.285    531.596    531.596
121.970    656.000    674.722    -18.722    532.421    668.534    538.613    532.421    532.421
122.070    680.000    673.142      6.858    533.256    666.409    539.994    533.256    533.256
122.170    672.572    672.573     -0.001    534.102    665.251    541.430    534.102    534.102
122.270    645.000    672.928    -27.928    534.960    664.973    542.923    534.960    534.960
122.370    649.000    674.127    -25.127    535.829    665.492    544.473    535.829    535.829
122.470    670.000    676.091     -6.091    536.709    666.732    546.079    536.709    536.709
122.570    675.969    678.742     -2.773    537.600    668.615    547.740    537.600    537.600
122.670    633.978    681.999    -48.021    538.503    671.063    549.454    538.503    538.503
122.770    651.000    685.778    -34.778    539.417    673.996    551.216    539.417    539.417
122.870    650.000    689.989    -39.989    540.343    677.330    553.021    540.343    540.343
122.970    729.356    694.538     34.818    541.280    680.978    554.862    541.280    541.280
123.070    694.000    699.321     -5.321    542.229    684.846    556.729    542.229    542.229
123.170    717.237    704.230     13.007    543.190    688.836    558.611    543.190    543.190
123.270    697.000    709.149    -12.149    544.163    692.846    560.496    544.163    544.163
123.370    673.384    713.958    -40.573    545.148    696.768    562.370    545.148    545.148
123.470    751.935    718.531     33.404    546.145    700.494    564.218    546.145    546.145
123.570    783.000    722.743     60.257    547.153    703.911    566.024    547.153    547.153
123.670    745.415    726.456     18.960    548.174    706.901    567.771    548.174    548.174
123.770    688.000    729.557    -41.557    549.208    709.364    569.443    549.208    549.208
123.870    727.000    731.986     -4.986    550.253    711.257    571.028    550.253    550.253
123.970    759.000    733.638     25.362    551.311    712.485    572.511    551.311    551.311
124.070    761.866    734.451     27.415    552.381    712.998    573.884    552.381    552.381
124.170    753.561    734.396     19.165    553.464    712.771    575.139    553.464    553.464
124.270    732.000    733.473     -1.473    554.560    711.808    576.275    554.560    554.560
124.370    754.000    731.705     22.295    555.668    710.133    577.291    555.668    555.668
124.470    769.239    729.143     40.097    556.789    707.790    578.192    556.789    556.789
124.570    733.264    725.851      7.413    557.923    704.842    578.981    557.923    557.923
124.670    762.000    721.910     40.090    559.069    701.359    579.669    559.069    559.069
124.770    766.000    717.408     48.592    560.229    697.421    580.262    560.229    560.229
124.870    698.000    712.437    -14.437    561.401    693.110    580.773    561.401    561.401
124.970    767.000    707.092     59.908    562.587    688.510    581.213    562.587    562.587
