neutron_powder_diffraction_0113
R_wp: 4.072
Temperature (K): 951.739
Counts: 83591.00
Wavelength (Ã…): 2.52098
COMMENTS
Test file for demonstrating the .xyy file format in Reel1.0
END OF HEADER
   tth       Y_obs     Y_calc      Y_res    Background    Phase_1_Nuc    Phase_1_Mag    Phase_2_Nuc    Phase_2_Mag
  9.970    634.000    561.569     72.431    560.455    561.449    560.455    560.575    560.455
 10.070    584.407    561.887     22.520    560.688    561.766    560.688    560.808    560.688
 10.170    564.311    562.209      2.102    560.912    562.088    560.912    561.033    560.912
 10.270    606.352    562.537     43.815    561.129    562.416    561.129    561.250    561.129
 10.370    562.129    562.876     -0.747    561.338    562.754    561.338    561.459    561.338
 10.470    581.000    563.229     17.771    561.539    563.106    561.539    561.661    561.539
 10.570    588.000    563.601     24.399    561.732    563.478    561.732    561.855    561.732
 10.670    522.948    564.000    -41.051    561.918    563.875    561.918    562.042    561.918
 10.770    573.000    564.434      8.566    562.097    564.309    562.097    562.220    562.097
 10.870    557.225    564.920     -7.696    562.268    564.795    562.268    562.392    562.268
 10.970    562.000    565.467     -3.467    562.431    565.341    562.431    562.556    562.431
 11.070    588.707    566.103     22.604    562.588    565.976    562.588    562.713    562.588
 11.170    622.000    566.863     55.137    562.737    566.735    562.737    562.863    562.737
 11.270    544.000    567.802    -23.802    562.879    567.673    562.879    563.005    562.879
 11.370    596.000    569.021     26.979    563.014    568.891    563.014    563.140    563.014
 11.470    576.606    570.735      5.871    563.141    570.604    563.141    563.269    563.141
 11.570    572.000    573.458     -1.458    563.262    573.324    563.262    563.390    563.262
 11.670    539.882    578.335    -38.452    563.376    578.198    563.376    563.505    563.376
 11.770    622.000    587.478     34.522    563.483    587.336    563.483    563.612    563.483
 11.870    618.000    603.696     14.304    563.583    603.544    563.583    563.713    563.583
 11.970    645.000    628.813     16.187    563.677    628.647    563.677    563.807    563.677
 12.070    664.000    660.284      3.716    563.764    660.100    563.764    563.894    563.764
 12.170    670.000    687.459    -17.459    563.844    687.259    563.844    563.975    563.844
 12.270    643.059    694.265    -51.206    563.918    694.061    563.918    564.050    563.918
 12.370    626.000    675.186    -49.186    563.985    674.992    563.985    564.117    563.985
 12.470    633.000    643.665    -10.665    564.046    643.488    564.046    564.179    564.046
 12.570    625.000    614.748     10.252    564.100    614.586    564.100    564.234    564.100
 12.670    568.656    594.498    -25.842    564.148    594.347    564.148    564.283    564.148
 12.770    544.000    582.563    -38.563    564.190    582.418    564.190    564.325    564.190
 12.870    536.000    576.216    -40.216    564.226    576.074    564.226    564.362    564.226
 12.970    573.000    572.876      0.124    564.256    572.735    564.256    564.392    564.256
 13.070    589.368    570.958     18.409    564.280    570.818    564.280    564.417    564.280
 13.170    545.000    569.710    -24.710    564.297    569.570    564.297    564.435    564.297
 13.270    533.000    568.818    -35.818    564.309    568.678    564.309    564.447    564.309
 13.370    607.445    568.141     39.304    564.315    568.000    564.315    564.454    564.315
 13.470    587.733    567.611     20.122    564.315    567.470    564.315    564.455    564.315
 13.570    575.881    567.186      8.695    564.309    567.044    564.309    564.450    564.309
 13.670    557.637    566.837     -9.200    564.298    566.695    564.298    564.439    564.298
 13.770    537.000    566.545    -29.545    564.281    566.402    564.281    564.423    564.281
 13.870    555.628    566.296    -10.668    564.259    566.152    564.259    564.401    564.259
 13.970    576.000    566.078      9.922    564.231    565.935    564.231    564.374    564.231
 14.070    535.025    565.886    -30.861    564.197    565.741    564.197    564.341    564.197
 14.170    546.000    565.713    -19.713    564.158    565.568    564.158    564.303    564.158
 14.270    570.000    565.554      4.446    564.114    565.409    564.114    564.259    564.114
 14.370    547.000    565.405    -18.405    564.065    565.259    564.065    564.211    564.065
 14.470    587.931    565.264     22.666    564.010    565.117    564.010    564.157    564.010
 14.570    560.099    565.129     -5.030    563.950    564.982    563.950    564.098    563.950
 14.670    539.000    564.999    -25.999    563.885    564.850    563.885    564.033    563.885
 14.770    550.640    564.871    -14.231    563.815    564.722    563.815    563.964    563.815
 14.870    553.000    564.745    -11.745    563.740    564.595    563.740    563.890    563.740
 14.970    527.000    564.620    -37.620    563.660    564.469    563.660    563.811    563.660
 15.070    536.000    564.495    -28.495    563.575    564.343    563.575    563.727    563.575
 15.170    562.000    564.369     -2.369    563.486    564.217    563.486    563.638    563.486
 15.270    535.000    564.243    -29.243    563.391    564.090    563.391    563.544    563.391
 15.370    560.000    564.115     -4.115    563.292    563.961    563.292    563.446    563.292
 15.470    566.000    563.988      2.012    563.188    563.833    563.188    563.343    563.188
 15.570    558.000    563.875     -5.875    563.080    563.720    563.080    563.235    563.080
 15.670    597.244    563.750     33.494    562.967    563.594    562.967    563.123    562.967
 15.770    523.000    563.615    -40.615    562.849    563.458    562.849    563.006    562.849
 15.870    584.130    563.477     20.653    562.727    563.319    562.727    562.885    562.727
 15.970    526.000    563.340    -37.340    562.601    563.180    562.601    562.760    562.601
 16.070    609.000    563.197     45.803    562.470    563.037    562.470    562.630    562.470
 16.170    565.087    563.050      2.037    562.335    562.889    562.335    562.496    562.335
 16.270    529.000    562.900    -33.900    562.195    562.738    562.195    562.357    562.195
 16.370    539.000    562.747    -23.747    562.052    562.584    562.052    562.215    562.052
 16.470    526.000    562.591    -36.591    561.904    562.427    561.904    562.068    561.904
 16.570    503.000    562.442    -59.442    561.753    562.277    561.753    561.917    561.753
 16.670    590.554    562.384     28.170    561.597    562.219    561.597    561.762    561.597
 16.770    546.976    562.237    -15.261    561.437    562.070    561.437    561.604    561.437
 16.870    558.000    562.069     -4.069    561.273    561.902    561.273    561.441    561.273
 16.970    515.253    561.898    -46.645    561.106    561.729    561.106    561.274    561.106
 17.070    547.000    561.723    -14.723    560.934    561.554    560.934    561.104    560.934
 17.170    517.254    561.546    -44.292    560.759    561.375    560.759    560.930    560.759
 17.270    588.072    561.365     26.707    560.580    561.193    560.580    560.752    560.580
 17.370    513.862    561.181    -47.319    560.397    561.008    560.397    560.570    560.397
 17.470    560.000    560.994     -0.994    560.211    560.819    560.211    560.385    560.211
 17.570    575.000    560.804     14.196    560.021    560.628    560.021    560.196    560.021
 17.670    545.000    560.613    -15.613    559.827    560.436    559.827    560.004    559.827
 17.770    579.000    560.421     18.579    559.630    560.243    559.630    559.808    559.630
 17.870    568.000    560.222      7.778    559.430    560.043    559.430    559.608    559.430
 17.970    604.131    560.020     44.111    559.226    559.840    559.226    559.406    559.226
 18.070    532.226    559.815    -27.589    559.019    559.634    559.019    559.200    559.019
 18.170    511.000    559.607    -48.607    558.808    559.425    558.808    558.990    558.808
 18.270    562.000    559.396      2.604    558.594    559.213    558.594    558.778    558.594
 18.370    592.877    559.183     33.694    558.377    558.998    558.377    558.562    558.377
 18.470    566.000    558.966      7.034    558.157    558.780    558.157    558.343    558.157
 18.570    541.000    558.747    -17.747    557.933    558.560    557.933    558.121    557.933
 18.670    528.918    558.526    -29.607    557.707    558.337    557.707    557.896    557.707
 18.770    542.000    558.301    -16.301    557.478    558.111    557.478    557.668    557.478
 18.870    553.334    558.075     -4.741    557.245    557.883    557.245    557.437    557.245
 18.970    576.000    557.845     18.155    557.010    557.652    557.010    557.203    557.010
 19.070    511.750    557.623    -45.872    556.771    557.428    556.771    556.966    556.771
 19.170    565.426    557.453      7.973    556.530    557.257    556.530    556.726    556.530
 19.270    567.000    557.226      9.774    556.286    557.028    556.286    556.484    556.286
 19.370    558.000    556.988      1.012    556.039    556.789    556.039    556.239    556.039
 19.470    552.967    556.750     -3.783    555.790    556.548    555.790    555.991    555.790
 19.570    541.000    556.507    -15.507    555.537    556.304    555.537    555.740    555.537
 19.670    549.000    556.262     -7.262    555.283    556.058    555.283    555.487    555.283
 19.770    582.000    556.015     25.985    555.025    555.809    555.025    555.231    555.025
 19.870    551.000    555.766     -4.766    554.765    555.558    554.765    554.973    554.765
 19.970    572.680    555.515     17.165    554.503    555.306    554.503    554.712    554.503
 20.070    551.000    555.263     -4.263    554.238    555.051    554.238    554.449    554.238
 20.170    571.000    555.008     15.992    553.970    554.795    553.970    554.184    553.970
 20.270    571.000    554.754     16.246    553.700    554.538    553.700    553.916    553.700
 20.370    572.000    554.505     17.495    553.428    554.288    553.428    553.645    553.428
 20.470    561.000    554.267      6.733    553.154    554.048    553.154    553.373    553.154
 20.570    505.390    554.050    -48.659    552.877    553.829    552.877    553.098    552.877
 20.670    558.000    553.800      4.200    552.598    553.576    552.598    552.821    552.598
 20.770    582.000    553.545     28.455    552.317    553.320    552.317    552.542    552.317
 20.870    571.000    553.297     17.703    552.033    553.070    552.033    552.261    552.033
 20.970    550.000    553.035     -3.035    551.748    552.805    551.748    551.978    551.748
 21.070    562.000    552.770      9.230    551.460    552.537    551.460    551.693    551.460
 21.170    514.748    552.504    -37.756    551.171    552.269    551.171    551.406    551.171
 21.270    552.000    552.237     -0.237    550.879    552.000    550.879    551.117    550.879
 21.370    563.000    551.970     11.030    550.586    551.731    550.586    550.826    550.586
 21.470    505.000    551.703    -46.703    550.291    551.461    550.291    550.533    550.291
 21.570    542.000    551.437     -9.437    549.993    551.192    549.993    550.239    549.993
 21.670    589.796    551.170     38.626    549.694    550.922    549.694    549.942    549.694
 21.770    554.000    550.904      3.096    549.393    550.654    549.393    549.644    549.393
 21.870    531.000    550.639    -19.639    549.091    550.386    549.091    549.344    549.091
 21.970    566.000    550.378     15.622    548.786    550.122    548.786    549.043    548.786
 22.070    557.000    550.140      6.860    548.480    549.881    548.480    548.740    548.480
 22.170    577.000    549.888     27.112    548.173    549.626    548.173    548.436    548.173
 22.270    552.000    549.639      2.361    547.863    549.373    547.863    548.130    547.863
 22.370    567.875    549.409     18.466    547.553    549.140    547.553    547.822    547.553
 22.470    552.327    549.166      3.161    547.240    548.894    547.240    547.513    547.240
 22.570    564.000    548.960     15.040    546.926    548.684    546.926    547.203    546.926
 22.670    517.000    548.751    -31.751    546.611    548.471    546.611    546.892    546.611
 22.770    512.750    548.526    -35.776    546.294    548.242    546.294    546.579    546.294
 22.870    551.769    548.312      3.457    545.976    548.024    545.976    546.265    545.976
 22.970    530.000    548.148    -18.148    545.656    547.856    545.656    545.949    545.656
 23.070    530.000    547.992    -17.992    545.335    547.696    545.335    545.633    545.335
 23.170    575.761    547.823     27.937    545.013    547.522    545.013    545.315    545.013
 23.270    557.000    547.675      9.325    544.690    547.370    544.690    544.996    544.690
 23.370    526.000    547.557    -21.557    544.365    547.247    544.365    544.677    544.365
 23.470    498.707    547.478    -48.771    544.039    547.163    544.039    544.356    544.039
 23.570    553.437    547.456      5.981    543.712    547.135    543.712    544.034    543.712
 23.670    567.000    547.512     19.488    543.384    547.186    543.384    543.712    543.384
 23.770    541.000    547.650     -6.650    543.055    547.319    543.055    543.388    543.055
 23.870    536.000    547.917    -11.917    542.725    547.580    542.725    543.064    542.725
 23.970    538.000    548.388    -10.388    542.393    548.045    542.393    542.739    542.393
 24.070    541.979    549.231     -7.251    542.061    548.882    542.061    542.413    542.061
 24.170    568.000    550.811     17.189    541.728    550.457    541.728    542.087    541.728
 24.270    534.953    553.914    -18.961    541.394    553.555    541.394    541.760    541.394
 24.370    553.000    559.899     -6.899    541.059    559.537    541.059    541.433    541.059
 24.470    563.000    570.437     -7.437    540.723    570.075    540.723    541.105    540.723
 24.570    552.291    586.474    -34.183    540.386    586.116    540.386    540.777    540.386
 24.670    595.000    606.263    -11.263    540.049    605.910    540.049    540.448    540.049
 24.770    616.000    623.267     -7.267    539.710    622.917    539.710    540.119    539.710
 24.870    619.000    627.689     -8.689    539.371    627.333    539.371    539.790    539.371
 24.970    616.791    615.858      0.933    539.032    615.483    539.032    539.460    539.032
 25.070    642.712    595.651     47.062    538.691    595.251    538.691    539.131    538.691
 25.170    562.913    576.446    -13.533    538.350    576.020    538.350    538.802    538.350
 25.270    535.858    562.400    -26.542    538.009    561.953    538.009    538.472    538.009
 25.370    546.000    553.670     -7.670    537.666    553.203    537.666    538.143    537.666
 25.470    553.885    548.742      5.144    537.324    548.257    537.324    537.814    537.324
 25.570    569.000    545.990     23.010    536.980    545.489    536.980    537.486    536.980
 25.670    570.000    544.324     25.676    536.637    543.806    536.637    537.158    536.637
 25.770    582.000    543.186     38.814    536.292    542.651    536.292    536.830    536.292
 25.870    583.000    542.330     40.670    535.948    541.776    535.948    536.504    535.948
 25.970    571.000    541.651     29.349    535.603    541.078    535.603    536.178    535.603
 26.070    527.471    541.099    -13.628    535.257    540.505    535.257    535.853    535.257
 26.170    603.000    540.646     62.354    534.911    540.029    534.911    535.530    534.911
 26.270    532.847    540.275     -7.428    534.565    539.633    534.565    535.207    534.565
 26.370    585.000    539.976     45.024    534.219    539.308    534.219    534.887    534.219
 26.470    499.046    539.744    -40.698    533.872    539.048    533.872    534.568    533.872
 26.570    524.000    539.581    -15.581    533.525    538.854    533.525    534.252    533.525
 26.670    536.500    539.489     -2.988    533.178    538.729    533.178    533.938    533.178
 26.770    571.024    539.474     31.551    532.830    538.677    532.830    533.627    532.830
 26.870    548.249    539.549      8.700    532.483    538.713    532.483    533.319    532.483
 26.970    500.585    539.733    -39.148    532.135    538.854    532.135    533.015    532.135
 27.070    523.692    540.053    -16.361    531.787    539.125    531.787    532.715    531.787
 27.170    538.000    540.547     -2.547    531.439    539.566    531.439    532.420    531.439
 27.270    494.602    541.272    -46.670    531.092    540.233    531.092    532.130    531.092
 27.370    569.287    542.319     26.968    530.744    541.215    530.744    531.847    530.744
 27.470    598.000    543.852     54.148    530.396    542.674    530.396    531.571    530.396
 27.570    588.000    546.296     41.704    530.048    545.036    530.048    531.305    530.048
 27.670    591.000    551.018     39.982    529.700    549.666    529.700    531.048    529.700
 27.770    527.874    562.147    -34.272    529.352    560.687    529.352    530.804    529.352
 27.870    615.000    589.174     25.826    529.004    587.588    529.004    530.573    529.004
 27.970    647.000    646.156      0.844    528.657    644.419    528.657    530.359    528.657
 28.070    780.000    740.372     39.628    528.309    738.456    528.309    530.164    528.309
 28.170    837.000    851.954    -14.954    527.962    849.840    527.962    529.991    527.962
 28.270    873.144    925.539    -52.396    527.615    923.226    527.615    529.843    527.615
 28.370    973.300    911.257     62.043    527.268    908.741    527.268    529.726    527.268
 28.470    834.000    828.615      5.385    526.921    825.865    526.921    529.642    526.921
 28.570    729.302    743.938    -14.636    526.575    740.903    526.575    529.596    526.575
 28.670    708.000    707.331      0.669    526.229    703.955    526.229    529.593    526.229
 28.770    716.921    728.020    -11.099    525.883    724.250    525.883    529.637    525.883
 28.870    781.000    780.182      0.818    525.537    775.973    525.537    529.729    525.537
 28.970    849.000    816.804     32.196    525.192    812.118    525.192    529.869    525.192
 29.070    790.000    800.334    -10.334    524.847    795.134    524.847    530.052    524.847
 29.170    703.576    738.480    -34.904    524.503    732.731    524.503    530.267    524.503
 29.270    639.885    666.500    -26.615    524.159    660.185    524.159    530.489    524.159
 29.370    565.000    610.263    -45.263    523.816    603.403    523.816    530.687    523.816
 29.470    577.000    576.096      0.904    523.473    568.759    523.473    530.815    523.473
 29.570    583.000    558.657     24.343    523.130    550.964    523.130    530.826    523.130
 29.670    568.000    550.380     17.620    522.788    542.493    522.788    530.676    522.788
 29.770    599.000    546.116     52.884    522.446    538.225    522.446    530.339    522.446
 29.870    497.483    543.427    -45.944    522.105    535.719    522.105    529.814    522.105
 29.970    564.643    541.415     23.228    521.765    534.053    521.765    529.127    521.765
 30.070    541.000    539.815      1.185    521.425    532.919    521.425    528.321    521.425
 30.170    565.950    538.602     27.348    521.086    532.242    521.086    527.445    521.086
 30.270    491.090    537.918    -46.828    520.747    532.121    520.747    526.543    520.747
 30.370    561.000    538.190     22.810    520.409    532.948    520.409    525.649    520.409
 30.470    645.000    540.349    104.651    520.072    535.630    520.072    524.786    520.072
 30.570    548.011    545.902      2.109    519.735    541.662    519.735    523.965    519.735
 30.670    570.000    556.390     13.610    519.399    552.578    519.399    523.193    519.399
 30.770    540.977    571.899    -30.922    519.064    568.464    519.064    522.470    519.064
 30.870    591.000    589.028      1.972    518.730    585.923    518.730    521.794    518.730
 30.970    603.734    600.028      3.706    518.396    597.218    518.396    521.162    518.396
 31.070    619.852    597.601     22.251    518.063    595.055    518.063    520.568    518.063
 31.170    590.000    583.058      6.942    517.731    580.750    517.731    520.009    517.731
 31.270    543.268    564.466    -21.198    517.400    562.366    517.400    519.480    517.400
 31.370    583.067    548.583     34.484    517.069    546.663    517.069    518.977    517.069
 31.470    488.777    537.833    -49.056    516.740    536.068    516.740    518.498    516.740
 31.570    518.000    531.629    -13.629    516.411    529.998    516.411    518.038    516.411
 31.670    552.000    528.350     23.650    516.083    526.834    516.083    517.596    516.083
 31.770    500.091    526.600    -26.509    515.756    525.185    515.756    517.168    515.756
 31.870    545.000    525.572     19.428    515.430    524.247    515.430    516.754    515.430
 31.970    551.000    524.902     26.098    515.105    523.656    515.105    516.350    515.105
 32.070    496.971    524.450    -27.479    514.780    523.274    514.780    515.956    514.780
 32.170    530.303    524.164      6.139    514.457    523.050    514.457    515.571    514.457
 32.270    553.523    524.026     29.496    514.135    522.967    514.135    515.193    514.135
 32.370    530.607    524.033      6.574    513.814    523.024    513.814    514.822    513.814
 32.470    529.000    524.193      4.807    513.494    523.228    513.494    514.457    513.494
 32.570    542.000    524.525     17.475    513.174    523.601    513.174    514.098    513.174
 32.670    534.760    525.058      9.702    512.856    524.170    512.856    513.743    512.856
 32.770    511.000    525.838    -14.838    512.539    524.983    512.539    513.393    512.539
 32.870    508.000    526.930    -18.930    512.223    526.105    512.223    513.047    512.223
 32.970    530.000    528.431      1.569    511.908    527.634    511.908    512.704    511.908
 33.070    539.005    530.497      8.508    511.594    529.725    511.594    512.366    511.594
 33.170    559.000    533.416     25.584    511.282    532.666    511.282    512.030    511.282
 33.270    522.671    537.821    -15.150    510.970    537.091    510.970    511.698    510.970
 33.370    554.741    545.213      9.528    510.660    544.502    510.660    511.368    510.660
 33.470    541.000    558.927    -17.927    510.351    558.230    510.351    511.042    510.351
 33.570    651.000    585.191     65.809    510.043    584.506    510.043    510.717    510.043
 33.670    581.000    632.915    -51.915    509.736    632.237    509.736    510.396    509.736
 33.770    748.000    710.112     37.888    509.430    709.438    509.430    510.077    509.430
 33.870    837.235    816.042     21.194    509.126    815.371    509.126    509.760    509.126
 33.970    902.000    930.995    -28.995    508.822    930.332    508.822    509.445    508.822
 34.070   1003.794   1011.543     -7.749    508.520   1010.898    508.520    509.133    508.520
 34.170   1044.000   1012.936     31.064    508.220   1012.320    508.220    508.823    508.220
 34.270    887.000    933.985    -46.985    507.920    933.394    507.920    508.514    507.920
 34.370    757.000    818.656    -61.656    507.622    818.079    507.622    508.208    507.622
 34.470    674.500    711.195    -36.695    507.325    710.626    507.325    507.904    507.325
 34.570    581.000    632.183    -51.183    507.030    631.619    507.030    507.602    507.030
 34.670    592.784    582.854      9.929    506.736    582.293    506.736    507.301    506.736
 34.770    546.000    555.336     -9.336    506.443    554.778    506.443    507.003    506.443
 34.870    518.000    540.648    -22.648    506.151    540.094    506.151    506.706    506.151
 34.970    521.000    532.440    -11.440    505.861    531.890    505.861    506.411    505.861
 35.070    510.237    527.291    -17.054    505.572    526.745    505.572    506.118    505.572
 35.170    477.379    523.653    -46.275    505.285    523.111    505.285    505.827    505.285
 35.270    527.465    520.873      6.592    504.999    520.335    504.999    505.537    504.999
 35.370    497.000    518.655    -21.655    504.714    518.119    504.714    505.250    504.714
 35.470    493.000    516.837    -23.837    504.431    516.304    504.431    504.964    504.431
 35.570    519.000    515.319      3.681    504.149    514.788    504.149    504.680    504.149
 35.670    495.000    514.030    -19.030    503.869    513.502    503.869    504.397    503.869
 35.770    480.000    512.921    -32.921    503.590    512.394    503.590    504.117    503.590
 35.870    506.000    511.954     -5.954    503.312    511.429    503.312    503.838    503.312
 35.970    508.000    511.103     -3.103    503.036    510.579    503.036    503.561    503.036
 36.070    503.000    510.347     -7.347    502.762    509.824    502.762    503.285    502.762
 36.170    497.019    509.670    -12.652    502.489    509.148    502.489    503.011    502.489
 36.270    512.000    509.062      2.938    502.217    508.540    502.217    502.739    502.217
 36.370    470.000    508.513    -38.513    501.947    507.992    501.947    502.469    501.947
 36.470    508.210    508.019      0.191    501.679    507.497    501.679    502.201    501.679
 36.570    496.000    507.575    -11.575    501.412    507.054    501.412    501.934    501.412
 36.670    476.482    507.184    -30.702    501.146    506.661    501.146    501.669    501.146
 36.770    497.000    506.849     -9.849    500.882    506.326    500.882    501.405    500.882
 36.870    516.000    506.588      9.412    500.620    506.064    500.620    501.144    500.620
 36.970    528.000    506.442     21.558    500.359    505.917    500.359    500.884    500.359
 37.070    491.000    506.497    -15.497    500.100    505.971    500.100    500.626    500.100
 37.170    503.469    506.903     -3.435    499.842    506.377    499.842    500.370    499.842
 37.270    507.225    507.872     -0.647    499.586    507.344    499.586    500.115    499.586
 37.370    504.747    509.608     -4.861    499.331    509.078    499.331    499.862    499.331
 37.470    524.603    512.166     12.437    499.078    511.635    499.078    499.611    499.078
 37.570    473.000    515.258    -42.258    498.827    514.727    498.827    499.362    498.827
 37.670    500.000    518.053    -18.053    498.577    517.521    498.577    499.114    498.577
 37.770    526.046    519.272      6.774    498.329    518.739    498.329    498.869    498.329
 37.870    529.000    518.187     10.813    498.083    517.653    498.083    498.625    498.083
 37.970    542.000    515.461     26.539    497.838    514.926    497.838    498.383    497.838
 38.070    496.856    512.209    -15.353    497.595    511.673    497.595    498.142    497.595
 38.170    469.000    509.114    -40.114    497.353    508.574    497.353    497.904    497.353
 38.270    485.000    506.505    -21.505    497.113    505.960    497.113    497.667    497.113
 38.370    490.000    504.501    -14.501    496.875    503.950    496.875    497.432    496.875
 38.470    473.000    503.061    -30.061    496.638    502.505    496.638    497.199    496.638
 38.570    532.000    502.057     29.943    496.403    501.496    496.403    496.968    496.403
 38.670    514.000    501.349     12.651    496.170    500.783    496.170    496.738    496.170
 38.770    508.310    500.828      7.483    495.939    500.257    495.939    496.511    495.939
 38.870    497.000    500.417     -3.417    495.709    499.842    495.709    496.285    495.709
 38.970    519.774    500.072     19.701    495.481    499.493    495.481    496.061    495.481
 39.070    461.574    499.768    -38.194    495.254    499.183    495.254    495.839    495.254
 39.170    485.000    499.490    -14.490    495.029    498.901    495.029    495.619    495.029
 39.270    489.000    499.233    -10.233    494.806    498.639    494.806    495.401    494.806
 39.370    477.000    498.993    -21.993    494.585    498.394    494.585    495.185    494.585
 39.470    493.000    498.767     -5.767    494.365    498.162    494.365    494.970    494.365
 39.570    536.302    498.553     37.749    494.148    497.944    494.148    494.758    494.148
 39.670    487.000    498.352    -11.352    493.931    497.737    493.931    494.547    493.931
 39.770    515.816    498.162     17.654    493.717    497.541    493.717    494.339    493.717
 39.870    492.444    497.982     -5.538    493.504    497.356    493.504    494.132    493.504
 39.970    476.000    497.814    -21.814    493.293    497.181    493.293    493.927    493.293
 40.070    486.031    497.657    -11.626    493.084    497.018    493.084    493.724    493.084
 40.170    504.000    497.512      6.488    492.877    496.866    492.877    493.523    492.877
 40.270    480.424    497.379    -16.954    492.671    496.726    492.671    493.324    492.671
 40.370    472.061    497.259    -25.198    492.467    496.599    492.467    493.127    492.467
 40.470    456.000    497.153    -41.153    492.265    496.487    492.265    492.932    492.265
 40.570    473.000    497.064    -24.064    492.065    496.390    492.065    492.739    492.065
 40.670    466.000    496.993    -30.993    491.866    496.312    491.866    492.549    491.866
 40.770    483.000    496.943    -13.943    491.669    496.254    491.669    492.360    491.669
 40.870    511.000    496.917     14.083    491.474    496.220    491.474    492.173    491.474
 40.970    501.000    496.920      4.080    491.281    496.214    491.281    491.988    491.281
 41.070    462.000    496.957    -34.957    491.089    496.243    491.089    491.805    491.089
 41.170    489.339    497.036     -7.697    490.900    496.312    490.900    491.624    490.900
 41.270    530.000    497.165     32.835    490.712    496.433    490.712    491.446    490.712
 41.370    498.000    497.359      0.641    490.525    496.618    490.525    491.269    490.525
 41.470    535.564    497.636     37.928    490.341    496.885    490.341    491.094    490.341
 41.570    524.000    498.025     25.975    490.158    497.263    490.158    490.922    490.158
 41.670    531.151    498.574     32.577    489.978    497.803    489.978    490.752    489.978
 41.770    482.000    499.385    -17.385    489.799    498.603    489.799    490.584    489.799
 41.870    492.000    500.669     -8.669    489.621    499.876    489.621    490.418    489.621
 41.970    495.000    502.862     -7.862    489.446    502.059    489.446    490.254    489.446
 42.070    466.000    506.763    -40.763    489.273    505.949    489.273    490.093    489.273
 42.170    508.000    513.597     -5.597    489.101    512.774    489.101    489.933    489.101
 42.270    541.000    524.829     16.171    488.931    523.998    488.931    489.776    488.931
 42.370    544.000    541.531      2.469    488.763    540.696    488.763    489.621    488.763
 42.470    575.000    563.363     11.637    488.596    562.526    488.596    489.469    488.596
 42.570    603.118    587.372     15.746    488.432    586.535    488.432    489.319    488.432
 42.670    561.000    607.146    -46.146    488.269    606.307    488.269    489.171    488.269
 42.770    590.127    614.284    -24.158    488.108    613.437    488.108    489.025    488.108
 42.870    567.000    604.787    -37.787    487.949    603.920    487.949    488.882    487.949
 42.970    580.000    583.643     -3.643    487.791    582.748    487.791    488.742    487.791
 43.070    564.160    559.368      4.792    487.636    558.442    487.636    488.603    487.636
 43.170    573.106    537.931     35.175    487.482    536.974    487.482    488.468    487.482
 43.270    489.000    521.834    -32.834    487.330    520.848    487.330    488.334    487.330
 43.370    497.526    511.134    -13.607    487.180    510.122    487.180    488.204    487.180
 43.470    456.000    504.636    -48.636    487.032    503.600    487.032    488.076    487.032
 43.570    471.021    500.874    -29.853    486.886    499.815    486.886    487.950    486.886
 43.670    494.733    498.675     -3.943    486.741    497.593    486.741    487.827    486.741
 43.770    482.000    497.301    -15.301    486.598    496.195    486.598    487.708    486.598
 43.870    454.386    496.358    -41.973    486.457    495.227    486.457    487.590    486.457
 43.970    479.000    495.658    -16.658    486.318    494.501    486.318    487.476    486.318
 44.070    540.000    495.111     44.889    486.180    493.928    486.180    487.365    486.180
 44.170    488.000    494.673     -6.673    486.045    493.463    486.045    487.257    486.045
 44.270    503.000    494.319      8.681    485.911    493.080    485.911    487.151    485.911
 44.370    456.000    494.031    -38.031    485.779    492.762    485.779    487.050    485.779
 44.470    520.000    493.796     26.204    485.649    492.496    485.649    486.951    485.649
 44.570    496.000    493.607      2.393    485.520    492.273    485.520    486.856    485.520
 44.670    520.000    493.457     26.543    485.394    492.088    485.394    486.764    485.394
 44.770    537.223    493.340     43.883    485.269    491.934    485.269    486.676    485.269
 44.870    505.056    493.253     11.802    485.146    491.809    485.146    486.591    485.146
 44.970    515.000    493.194     21.806    485.024    491.709    485.024    486.511    485.024
 45.070    455.702    493.161    -37.460    484.905    491.633    484.905    486.434    484.905
 45.170    487.000    493.153     -6.153    484.787    491.579    484.787    486.362    484.787
 45.270    537.505    493.168     44.337    484.671    491.546    484.671    486.294    484.671
 45.370    506.000    493.207     12.793    484.557    491.533    484.557    486.231    484.557
 45.470    510.604    493.270     17.334    484.445    491.542    484.445    486.173    484.445
 45.570    452.000    493.357    -41.357    484.335    491.572    484.335    486.120    484.335
 45.670    471.000    493.470    -22.470    484.226    491.624    484.226    486.073    484.226
 45.770    506.072    493.611     12.461    484.119    491.699    484.119    486.032    484.119
 45.870    480.682    493.781    -13.099    484.014    491.799    484.014    485.996    484.014
 45.970    467.000    493.983    -26.983    483.910    491.926    483.910    485.968    483.910
 46.070    478.000    494.221    -16.221    483.809    492.084    483.809    485.946    483.809
 46.170    505.000    494.498     10.502    483.709    492.275    483.709    485.932    483.709
 46.270    485.000    494.821     -9.821    483.611    492.505    483.611    485.927    483.611
 46.370    536.000    495.196     40.804    483.514    492.780    483.514    485.930    483.514
 46.470    530.000    495.632     34.368    483.420    493.108    483.420    485.944    483.420
 46.570    519.000    496.143     22.857    483.327    493.501    483.327    485.968    483.327
 46.670    510.000    496.745     13.255    483.236    493.976    483.236    486.004    483.236
 46.770    518.402    497.470     20.932    483.146    494.562    483.146    486.053    483.146
 46.870    507.000    498.373      8.627    483.058    495.313    483.058    486.117    483.058
 46.970    458.664    499.567    -40.903    482.973    496.340    482.973    486.197    482.973
 47.070    524.000    501.262     22.738    482.888    497.852    482.888    486.296    482.888
 47.170    526.539    503.833     22.705    482.806    500.219    482.806    486.416    482.806
 47.270    517.000    507.851      9.149    482.725    504.010    482.725    486.560    482.725
 47.370    551.000    514.036     36.964    482.646    509.940    482.646    486.731    482.646
 47.470    493.000    523.056    -30.056    482.569    518.674    482.569    486.934    482.569
 47.570    537.000    535.153      1.847    482.493    530.447    482.493    487.173    482.493
 47.670    562.000    549.663     12.337    482.419    544.593    482.419    487.456    482.419
 47.770    559.384    564.557     -5.173    482.347    559.073    482.347    487.787    482.347
 47.870    553.000    576.275    -23.275    482.277    570.326    482.277    488.177    482.277
 47.970    592.748    580.828     11.920    482.208    574.353    482.208    488.633    482.208
 48.070    597.750    576.688     21.062    482.141    569.617    482.141    489.168    482.141
 48.170    565.578    566.388     -0.810    482.075    558.636    482.075    489.791    482.075
 48.270    564.000    554.158      9.842    482.012    545.626    482.012    490.518    482.012
 48.370    529.000    543.253    -14.253    481.949    533.825    481.949    491.361    481.949
 48.470    558.000    535.338     22.662    481.889    524.883    481.889    492.334    481.889
 48.570    561.232    530.836     30.396    481.830    519.208    481.830    493.452    481.830
 48.670    514.381    529.414    -15.033    481.773    516.459    481.773    494.726    481.773
 48.770    574.502    530.450     44.052    481.718    516.004    481.718    496.163    481.718
 48.870    504.388    533.359    -28.971    481.664    517.259    481.664    497.764    481.664
 48.970    496.000    537.792    -41.792    481.612    519.889    481.612    499.517    481.612
 49.070    518.000    543.686    -25.686    481.561    523.860    481.561    501.389    481.561
 49.170    517.352    551.396    -34.044    481.512    529.588    481.512    503.323    481.512
 49.270    556.340    562.140     -5.800    481.465    538.382    481.465    505.226    481.465
 49.370    622.968    579.071     43.898    481.419    553.524    481.419    506.967    481.419
 49.470    611.000    609.255      1.745    481.375    582.239    481.375    508.388    481.375
 49.570    713.820    666.183     47.637    481.333    638.173    481.333    509.329    481.333
 49.670    790.000    770.926     19.074    481.292    742.522    481.292    509.666    481.292
 49.770    938.000    948.461    -10.461    481.253    920.309    481.253    509.348    481.253
 49.870   1257.000   1216.140     40.860    481.215   1188.851    481.215    508.418    481.215
 49.970   1639.121   1565.934     73.187    481.179   1540.009    481.179    506.996    481.179
 50.070   1920.709   1948.469    -27.761    481.144   1924.269    481.144    505.240    481.144
 50.170   2281.000   2269.966     11.034    481.111   2247.706    481.111    503.309    481.111
 50.270   2389.000   2417.693    -28.693    481.080   2397.459    481.080    501.337    481.080
 50.370   2272.000   2328.232    -56.232    481.050   2309.987    481.050    499.420    481.050
 50.470   2066.719   2042.415     24.304    481.021   2026.015    481.021    497.619    481.021
 50.570   1673.000   1667.613      5.387    480.995   1652.857    480.995    495.967    480.995
 50.670   1294.000   1306.370    -12.370    480.969   1293.055    480.969    494.479    480.969
 50.770    997.550   1020.478    -22.928    480.946   1008.422    480.946    493.156    480.946
 50.870    882.107    827.623     54.484    480.923    816.668    480.923    491.990    480.923
 50.970    713.000    714.691     -1.691    480.903    704.703    480.903    490.970    480.903
 51.070    673.013    655.740     17.273    480.883    646.601    480.883    490.082    480.883
 51.170    581.981    625.729    -43.747    480.866    617.330    480.866    489.313    480.866
 51.270    602.280    607.260     -4.980    480.849    599.503    480.849    488.648    480.849
 51.370    593.944    591.780      2.164    480.834    584.575    480.834    488.074    480.834
 51.470    588.000    577.070     10.930    480.821    570.340    480.821    487.581    480.821
 51.570    597.558    563.633     33.925    480.809    557.310    480.809    487.156    480.809
 51.670    544.254    552.352     -8.098    480.799    546.378    480.799    486.790    480.799
 51.770    568.504    543.699     24.804    480.790    538.027    480.790    486.476    480.790
 51.870    554.830    537.678     17.152    480.782    532.265    480.782    486.206    480.782
 51.970    571.433    533.960     37.473    480.776    528.770    480.776    485.975    480.776
 52.070    513.000    532.127    -19.127    480.772    527.129    480.772    485.777    480.772
 52.170    564.000    531.811     32.189    480.768    526.978    480.768    485.608    480.768
 52.270    577.085    532.818     44.267    480.767    528.126    480.767    485.465    480.767
 52.370    547.460    535.216     12.244    480.766    530.643    480.766    485.345    480.766
 52.470    545.000    539.451      5.549    480.767    534.978    480.767    485.245    480.767
 52.570    592.000    546.554     45.446    480.769    542.165    480.769    485.164    480.769
 52.670    603.000    558.445     44.555    480.773    554.123    480.773    485.100    480.773
 52.770    546.251    578.218    -31.966    480.778    573.950    480.778    485.052    480.778
 52.870    630.602    610.167     20.435    480.784    605.940    480.784    485.017    480.784
 52.970    717.000    659.196     57.804    480.792    654.999    480.792    484.997    480.792
 53.070    768.000    729.349     38.651    480.801    725.172    480.801    484.989    480.801
 53.170    827.695    821.532      6.163    480.812    817.366    480.812    484.993    480.812
 53.270    926.357    930.862     -4.505    480.824    926.699    480.824    485.008    480.824
 53.370   1014.701   1044.150    -29.449    480.837   1039.982    480.837    485.035    480.837
 53.470   1186.646   1138.676     47.970    480.851   1134.498    480.851    485.073    480.851
 53.570   1118.679   1186.790    -68.111    480.867   1182.591    480.867    485.122    480.867
 53.670   1128.000   1171.026    -43.026    480.884   1166.794    480.884    485.181    480.884
 53.770   1056.000   1097.909    -41.909    480.902   1093.627    480.902    485.251    480.902
 53.870   1013.000    992.060     20.940    480.921    987.712    480.921    485.332    480.921
 53.970    856.000    879.579    -23.579    480.942    875.150    480.942    485.423    480.942
 54.070    784.000    778.517      5.483    480.964    773.997    480.964    485.526    480.964
 54.170    661.000    697.778    -36.778    480.987    693.157    480.987    485.639    480.987
 54.270    667.231    639.131     28.100    481.012    634.400    481.012    485.765    481.012
 54.370    610.084    599.861     10.223    481.037    595.013    481.037    485.902    481.037
 54.470    611.000    575.303     35.697    481.064    570.327    481.064    486.052    481.064
 54.570    579.000    560.751     18.249    481.092    555.638    481.092    486.214    481.092
 54.670    596.000    552.478     43.522    481.122    547.217    481.122    486.391    481.122
 54.770    572.000    547.982     24.018    481.152    542.559    481.152    486.582    481.152
 54.870    586.000    545.785     40.215    481.184    540.186    481.184    486.789    481.184
 54.970    543.000    545.102     -2.102    481.216    539.313    481.216    487.012    481.216
 55.070    529.649    545.561    -15.912    481.250    539.565    481.250    487.252    481.250
 55.170    546.394    547.010     -0.616    481.285    540.789    481.285    487.512    481.285
 55.270    589.000    549.423     39.577    481.322    542.959    481.322    487.792    481.322
 55.370    589.000    552.864     36.136    481.359    546.135    481.359    488.094    481.359
 55.470    561.000    557.487      3.513    481.397    550.471    481.397    488.420    481.397
 55.570    571.000    563.608      7.392    481.437    556.278    481.437    488.773    481.437
 55.670    605.000    571.847     33.153    481.478    564.176    481.478    489.155    481.478
 55.770    631.930    583.460     48.470    481.519    575.416    481.519    489.568    481.519
 55.870    588.000    600.909    -12.909    481.562    592.457    481.562    490.018    481.562
 55.970    620.000    628.736     -8.736    481.606    619.836    481.606    490.506    481.606
 56.070    691.378    674.558     16.819    481.651    665.165    481.651    491.039    481.651
 56.170    737.105    749.667    -12.562    481.697    739.729    481.697    491.623    481.697
 56.270    831.045    868.298    -37.253    481.744    857.760    481.744    492.262    481.744
 56.370   1022.000   1044.612    -22.612    481.792   1033.414    481.792    492.967    481.792
 56.470   1225.214   1287.033    -61.819    481.841   1275.111    481.841    493.746    481.841
 56.570   1521.000   1590.951    -69.951    481.891   1578.238    481.891    494.611    481.891
 56.670   1883.203   1931.808    -48.605    481.942   1918.229    481.942    495.576    481.942
 56.770   2239.000   2260.671    -21.671    481.994   2246.139    481.994    496.655    481.994
 56.870   2574.692   2506.357     68.335    482.047   2490.758    482.047    497.869    482.047
 56.970   2587.000   2595.814     -8.814    482.101   2578.985    482.101    499.239    482.101
 57.070   2560.601   2497.483     63.118    482.155   2479.208    482.155    500.790    482.155
 57.170   2261.000   2247.201     13.799    482.211   2227.221    482.211    502.550    482.211
 57.270   1967.000   1919.530     47.470    482.268   1897.567    482.268    504.551    482.268
 57.370   1553.000   1584.730    -31.730    482.325   1560.489    482.325    506.828    482.325
 57.470   1268.000   1290.034    -22.034    482.384   1263.196    482.384    509.420    482.384
 57.570   1083.581   1058.475     25.107    482.443   1028.693    482.443    512.367    482.443
 57.670    852.000    893.698    -41.698    482.504    860.590    482.504    515.709    482.504
 57.770    805.312    787.092     18.220    482.565    750.233    482.565    519.488    482.565
 57.870    696.366    725.185    -28.819    482.627    684.115    482.627    523.740    482.627
 57.970    653.000    695.325    -42.325    482.690    649.546    482.690    528.498    482.690
 58.070    697.000    688.639      8.361    482.753    637.633    482.753    533.779    482.753
 58.170    685.436    700.551    -15.114    482.818    643.800    482.818    539.580    482.818
 58.270    796.000    729.723     66.277    482.883    666.745    482.883    545.865    482.883
 58.370    761.000    776.277    -15.277    482.949    706.675    482.949    552.548    482.949
 58.470    818.000    839.912    -21.912    483.016    763.445    483.016    559.475    483.016
 58.570    895.000    918.256    -23.256    483.084    834.922    483.084    566.405    483.084
 58.670    968.000   1005.741    -37.741    483.152    915.882    483.152    573.001    483.152
 58.770   1123.000   1093.806     29.194    483.222    998.186    483.222    578.837    483.222
 58.870   1169.000   1173.229     -4.229    483.292   1073.084    483.292    583.445    483.292
 58.970   1207.884   1236.545    -28.661    483.362   1133.543    483.362    586.387    483.362
 59.070   1341.012   1277.450     63.562    483.434   1173.568    483.434    587.354    483.434
 59.170   1339.250   1290.170     49.080    483.506   1187.484    483.506    586.243    483.506
 59.270   1328.000   1273.446     54.554    483.579   1173.892    483.579    583.191    483.579
 59.370   1161.603   1234.917    -73.313    483.652   1140.091    483.652    578.531    483.652
 59.470   1259.000   1188.608     70.392    483.727   1099.658    483.727    572.713    483.727
 59.570   1219.979   1148.885     71.093    483.801   1066.490    483.801    566.203    483.801
 59.670   1168.000   1127.649     40.351    483.877   1052.077    483.877    559.416    483.877
 59.770   1137.000   1134.536      2.464    483.953   1065.736    483.953    552.677    483.953
 59.870   1243.000   1175.775     67.225    484.030   1113.471    484.030    546.211    484.030
 59.970   1283.000   1250.449     32.551    484.107   1194.227    484.107    540.163    484.107
 60.070   1367.607   1347.239     20.368    484.185   1296.617    484.185    534.610    484.185
 60.170   1568.000   1443.989    124.011    484.264   1398.460    484.264    529.582    484.264
 60.270   1559.000   1510.896     48.104    484.343   1469.960    484.343    525.078    484.343
 60.370   1513.000   1519.820     -6.820    484.423   1482.994    484.423    521.079    484.423
 60.470   1478.000   1459.176     18.824    484.503   1425.998    484.503    517.553    484.503
 60.570   1378.000   1341.417     36.583    484.584   1311.452    484.584    514.462    484.584
 60.670   1269.000   1193.461     75.539    484.666   1166.307    484.666    511.766    484.666
 60.770   1077.000   1042.292     34.708    484.748   1017.588    484.748    509.422    484.748
 60.870    907.304    907.587     -0.283    484.830    885.010    484.830    507.392    484.830
 60.970    761.087    800.229    -39.143    484.913    779.496    484.913    505.639    484.913
 61.070    758.000    723.531     34.469    484.996    704.395    484.996    504.127    484.996
 61.170    681.000    675.872      5.128    485.080    658.122    485.080    502.823    485.080
 61.270    676.436    653.828     22.608    485.165    637.281    485.165    501.700    485.165
 61.370    649.000    654.761     -5.761    485.250    639.261    485.250    500.731    485.250
 61.470    712.065    678.139     33.926    485.335    663.554    485.335    499.890    485.335
 61.570    713.000    725.390    -12.390    485.421    711.610    485.421    499.157    485.421
 61.670    829.000    798.384     30.616    485.507    785.317    485.507    498.510    485.507
 61.770    884.000    897.056    -13.056    485.593    884.631    485.593    497.932    485.593
 61.870    955.000   1016.923    -61.923    485.680   1005.088    485.680    497.407    485.680
 61.970   1122.000   1147.134    -25.134    485.767   1135.854    485.767    496.922    485.767
 62.070   1335.204   1269.633     65.571    485.855   1258.887    485.855    496.467    485.855
 62.170   1301.000   1360.534    -59.534    485.943   1350.313    485.943    496.038    485.943
 62.270   1390.148   1396.450     -6.301    486.032   1386.749    486.032    495.631    486.032
 62.370   1323.000   1366.303    -43.303    486.120   1357.112    486.120    495.246    486.120
 62.470   1281.000   1278.804      2.196    486.209   1270.101    486.209    494.884    486.209
 62.570   1166.000   1156.295      9.705    486.299   1148.047    486.299    494.547    486.299
 62.670   1004.000   1022.891    -18.891    486.388   1015.064    486.388    494.234    486.388
 62.770    875.000    897.380    -22.380    486.478    889.938    486.478    493.947    486.478
 62.870    765.736    791.262    -25.525    486.568    784.171    486.568    493.686    486.568
 62.970    718.000    709.192      8.808    486.659    702.424    486.659    493.450    486.659
 63.070    651.000    650.568      0.432    486.750    644.097    486.750    493.238    486.750
 63.170    615.791    611.648      4.143    486.841    605.451    486.841    493.048    486.841
 63.270    604.753    587.609     17.144    486.932    581.666    486.932    492.880    486.932
 63.370    561.581    574.044    -12.462    487.023    568.336    487.023    492.732    487.023
 63.470    603.916    567.761     36.155    487.115    562.272    487.115    492.603    487.115
 63.570    583.294    567.016     16.278    487.207    561.729    487.207    492.490    487.207
 63.670    547.000    571.421    -24.421    487.298    566.318    487.298    492.393    487.298
 63.770    617.000    581.697     35.303    487.391    576.764    487.391    492.311    487.391
 63.870    622.000    599.352     22.648    487.483    594.573    487.483    492.242    487.483
 63.970    615.171    626.234    -11.064    487.575    621.596    487.575    492.186    487.575
 64.070    624.000    663.936    -39.936    487.668    659.423    487.668    492.141    487.668
 64.170    767.000    713.046     53.954    487.760    708.647    487.760    492.106    487.760
 64.270    725.619    772.363    -46.744    487.853    768.067    487.853    492.080    487.853
 64.370    811.364    838.172    -26.808    487.946    833.971    487.946    492.064    487.946
 64.470    852.123    903.764    -51.641    488.039    899.654    488.039    492.056    488.039
 64.570    972.905    959.691     13.214    488.132    955.671    488.132    492.055    488.132
 64.670   1011.000    995.824     15.176    488.225    991.898    488.225    492.061    488.225
 64.770   1035.000   1005.396     29.604    488.318   1001.565    488.318    492.073    488.318
 64.870   1045.000    988.050     56.950    488.411    984.316    488.411    492.092    488.411
 64.970    941.000    949.173     -8.173    488.504    945.532    488.504    492.116    488.504
 65.070    906.874    897.103      9.772    488.597    893.548    488.597    492.146    488.597
 65.170    874.000    840.416     33.584    488.690    836.938    488.690    492.181    488.690
 65.270    795.637    785.858      9.779    488.784    782.448    488.784    492.220    488.784
 65.370    727.078    737.326    -10.248    488.877    733.973    488.877    492.264    488.877
 65.470    659.000    696.116    -37.116    488.970    692.812    488.970    492.313    488.970
 65.570    639.940    662.025    -22.085    489.063    658.760    489.063    492.365    489.063
 65.670    625.618    634.411     -8.793    489.156    631.179    489.156    492.422    489.156
 65.770    585.000    612.587    -27.587    489.248    609.383    489.248    492.482    489.248
 65.870    626.797    595.808     30.990    489.341    592.626    489.341    492.546    489.341
 65.970    628.117    583.292     44.825    489.434    580.130    489.434    492.613    489.434
 66.070    550.672    574.324    -23.653    489.526    571.180    489.526    492.684    489.526
 66.170    580.000    568.316     11.684    489.619    565.186    489.619    492.758    489.619
 66.270    520.000    564.810    -44.810    489.711    561.693    489.711    492.836    489.711
 66.370    562.464    563.470     -1.006    489.803    560.364    489.803    492.917    489.803
 66.470    510.000    564.084    -54.084    489.895    560.985    489.895    493.001    489.895
 66.570    535.000    566.608    -31.608    489.987    563.514    489.987    493.088    489.987
 66.670    567.000    571.270     -4.270    490.078    568.177    490.078    493.179    490.078
 66.770    554.396    578.725    -24.329    490.170    575.631    490.170    493.273    490.170
 66.870    578.000    590.299    -12.299    490.261    587.200    490.261    493.370    490.261
 66.970    643.631    608.293     35.339    490.352    605.185    490.352    493.470    490.352
 67.070    592.853    636.316    -43.463    490.442    633.197    490.442    493.574    490.442
 67.170    689.000    679.513      9.487    490.533    676.378    490.533    493.681    490.533
 67.270    698.000    744.466    -46.466    490.623    741.313    490.623    493.791    490.623
 67.370    837.000    838.539     -1.539    490.713    835.367    490.713    493.905    490.713
 67.470   1011.000    968.486     42.514    490.803    965.296    490.803    494.023    490.803
 67.570   1093.000   1138.347    -45.347    490.892   1135.141    490.892    494.145    490.892
 67.670   1378.000   1346.950     31.050    490.981   1343.734    490.981    494.270    490.981
 67.770   1608.790   1585.544     23.247    491.070   1582.327    491.070    494.400    491.070
 67.870   1866.000   1836.066     29.934    491.158   1832.855    491.158    494.535    491.158
 67.970   2107.403   2070.567     36.835    491.246   2067.369    491.246    494.673    491.246
 68.070   2159.506   2253.265    -93.760    491.334   2250.082    491.334    494.817    491.334
 68.170   2341.000   2348.293     -7.293    491.421   2345.118    491.421    494.966    491.421
 68.270   2340.000   2333.786      6.214    491.508   2330.595    491.508    495.120    491.508
 68.370   2239.000   2213.439     25.561    491.594   2210.198    491.594    495.281    491.594
 68.470   1959.288   2014.262    -54.974    491.681   2010.930    491.681    495.447    491.681
 68.570   1802.000   1773.092     28.908    491.766   1769.633    491.766    495.621    491.766
 68.670   1536.000   1524.017     11.983    491.852   1520.407    491.852    495.801    491.852
 68.770   1266.000   1292.446    -26.446    491.936   1288.670    491.936    495.990    491.936
 68.870   1127.000   1093.917     33.083    492.021   1089.967    492.021    496.187    492.021
 68.970    934.000    935.023     -1.023    492.105    930.897    492.105    496.393    492.105
 69.070    836.000    815.351     20.649    492.188    811.047    492.188    496.609    492.188
 69.170    731.000    729.939      1.061    492.271    725.457    492.271    496.837    492.271
 69.270    685.000    671.709     13.291    492.354    667.045    492.354    497.076    492.354
 69.370    581.353    633.399    -52.046    492.436    628.548    492.436    497.329    492.436
 69.470    603.000    608.752     -5.752    492.517    603.704    492.517    497.596    492.517
 69.570    591.000    593.001     -2.001    492.598    587.742    492.598    497.880    492.598
 69.670    614.000    582.846     31.154    492.679    577.361    492.679    498.182    492.679
 69.770    604.000    576.187     27.813    492.759    570.456    492.759    498.505    492.759
 69.870    581.000    571.770      9.230    492.838    565.771    492.838    498.850    492.838
 69.970    550.000    568.893    -18.893    492.917    562.599    492.917    499.222    492.917
 70.070    575.000    567.185      7.815    492.995    560.566    492.995    499.623    492.995
 70.170    567.000    566.470      0.530    493.072    559.491    493.072    500.059    493.072
 70.270    518.793    566.702    -47.909    493.149    559.323    493.149    500.535    493.149
 70.370    572.000    567.945      4.055    493.226    560.118    493.226    501.058    493.226
 70.470    561.547    570.394     -8.848    493.301    562.064    493.301    501.636    493.301
 70.570    579.000    574.445      4.555    493.376    565.545    493.376    502.279    493.376
 70.670    536.125    580.795    -44.671    493.451    571.247    493.451    503.000    493.451
 70.770    568.000    590.601    -22.601    493.525    580.311    493.525    503.813    493.525
 70.870    564.000    605.646    -41.646    493.598    594.503    493.598    504.736    493.598
 70.970    598.000    628.495    -30.495    493.670    616.364    493.670    505.789    493.670
 71.070    613.000    662.543    -49.543    493.742    649.268    493.742    506.997    493.742
 71.170    678.000    711.864    -33.864    493.813    697.260    493.813    508.388    493.813
 71.270    769.662    780.747    -11.085    493.883    764.597    493.883    509.991    493.883
 71.370    846.000    872.872    -26.872    493.953    854.926    493.953    511.840    493.953
 71.470   1011.587    990.180     21.406    494.021    970.157    494.021    513.972    494.021
 71.570   1071.000   1131.607    -60.607    494.089   1109.187    494.089    516.421    494.089
 71.670   1282.000   1291.907     -9.907    494.157   1266.741    494.157    519.223    494.157
 71.770   1386.000   1460.809    -74.809    494.223   1432.517    494.223    522.411    494.223
 71.870   1512.000   1622.700   -110.700    494.289   1590.879    494.289    526.009    494.289
 71.970   1746.000   1757.415    -11.415    494.354   1721.649    494.354    530.036    494.354
 72.070   1836.590   1843.448     -6.857    494.418   1803.320    494.418    534.490    494.418
 72.170   1924.000   1864.534     59.466    494.481   1819.644    494.481    539.349    494.481
 72.270   1852.000   1816.957     35.043    494.544   1766.953    494.544    544.559    494.544
 72.370   1786.000   1711.553     74.447    494.606   1656.176    494.606    550.020    494.606
 72.470   1641.000   1568.264     72.736    494.666   1507.411    494.666    555.573    494.666
 72.570   1429.142   1408.379     20.763    494.726   1342.178    494.726    560.990    494.726
 72.670   1230.000   1249.600    -19.600    494.786   1178.481    494.786    565.969    494.786
 72.770   1045.000   1104.362    -59.362    494.844   1029.114    494.844    570.152    494.844
 72.870   1005.000    979.820     25.180    494.901    901.602    494.901    573.174    494.901
 72.970    842.674    878.576    -35.903    494.958    798.855    494.958    574.727    494.958
 73.070    801.000    799.802      1.198    495.013    720.211    495.013    574.644    495.013
 73.170    754.117    740.532     13.585    495.068    662.694    495.068    572.939    495.068
 73.270    711.995    696.885     15.109    495.122    622.225    495.122    569.810    495.122
 73.370    716.122    664.985     51.136    495.174    594.608    495.174    565.576    495.174
 73.470    622.000    641.515    -19.515    495.226    576.156    495.226    560.607    495.226
 73.570    603.000    623.935    -20.935    495.277    563.980    495.277    555.253    495.277
 73.670    623.274    610.478     12.796    495.327    556.021    495.327    549.804    495.327
 73.770    599.000    600.005     -1.005    495.376    550.924    495.376    544.477    495.376
 73.870    583.000    591.828     -8.828    495.424    547.853    495.424    539.420    495.424
 73.970    518.000    585.539    -67.539    495.471    546.309    495.471    534.725    495.471
 74.070    601.000    580.873     20.127    495.517    545.976    495.517    530.440    495.517
 74.170    533.000    577.602    -44.602    495.562    546.610    495.562    526.584    495.562
 74.270    601.543    575.471     26.072    495.606    547.958    495.606    523.153    495.606
 74.370    594.000    574.159     19.841    495.649    549.718    495.649    520.130    495.649
 74.470    563.000    573.262    -10.262    495.691    551.511    495.691    517.486    495.691
 74.570    570.483    572.307     -1.825    495.732    552.898    495.732    515.190    495.732
 74.670    688.000    570.825    117.175    495.771    553.442    495.771    513.205    495.771
 74.770    638.000    568.475     69.525    495.810    552.840    495.810    511.496    495.810
 74.870    653.000    565.192     87.808    495.848    551.061    495.848    510.027    495.848
 74.970    602.000    561.195     40.805    495.884    548.359    495.884    508.766    495.884
 75.070    641.000    556.911     84.089    495.920    545.190    495.920    507.681    495.920
 75.170    585.000    552.840     32.160    495.954    542.081    495.954    506.747    495.954
 75.270    507.584    549.485    -41.900    495.987    539.560    495.987    505.939    495.987
 75.370    593.867    547.330     46.537    496.020    538.133    496.020    505.237    496.020
 75.470    578.000    546.853     31.147    496.051    538.293    496.051    504.624    496.051
 75.570    568.791    548.527     20.264    496.080    540.528    496.080    504.086    496.080
 75.670    539.000    552.810    -13.810    496.109    545.309    496.109    503.610    496.109
 75.770    513.134    560.106    -46.972    496.137    553.049    496.137    503.188    496.137
 75.870    596.000    570.699     25.301    496.163    564.040    496.163    502.810    496.163
 75.970    591.000    584.655      6.345    496.188    578.353    496.188    502.471    496.188
 76.070    611.000    601.713      9.287    496.212    595.734    496.212    502.165    496.212
 76.170    643.000    621.189     21.811    496.235    615.504    496.235    501.887    496.235
 76.270    630.000    641.900    -11.900    496.257    636.483    496.257    501.633    496.257
 76.370    636.000    662.127    -26.127    496.277    656.957    496.277    501.402    496.277
 76.470    727.000    679.667     47.333    496.297    674.726    496.297    501.189    496.297
 76.570    626.000    692.070    -66.070    496.315    687.340    496.315    500.993    496.315
 76.670    691.000    697.201     -6.201    496.332    692.671    496.332    500.813    496.332
 76.770    638.000    694.018    -56.018    496.347    689.676    496.347    500.645    496.347
 76.870    664.979    683.039    -18.059    496.362    678.872    496.362    500.490    496.362
 76.970    698.697    666.083     32.613    496.375    662.081    496.375    500.346    496.375
 77.070    632.000    645.541    -13.541    496.386    641.693    496.386    500.211    496.386
 77.170    589.000    623.709    -34.709    496.397    620.003    496.397    500.085    496.397
 77.270    568.828    602.447    -33.619    496.406    598.874    496.406    499.966    496.406
 77.370    593.000    583.075      9.925    496.414    579.625    496.414    499.855    496.414
 77.470    596.229    566.380     29.850    496.421    563.045    496.421    499.751    496.421
 77.570    579.984    552.678     27.306    496.426    549.449    496.426    499.652    496.426
 77.670    526.435    541.916    -15.482    496.431    538.786    496.431    499.559    496.431
 77.770    551.000    533.787     17.213    496.433    530.749    496.433    499.470    496.433
 77.870    550.411    527.847     22.564    496.435    524.896    496.435    499.386    496.435
 77.970    514.000    523.621     -9.621    496.435    520.750    496.435    499.306    496.435
 78.070    522.000    520.667      1.333    496.434    517.872    496.434    499.229    496.434
 78.170    507.000    518.618    -11.618    496.431    515.894    496.431    499.156    496.431
 78.270    495.674    517.192    -21.518    496.428    514.534    496.428    499.086    496.428
 78.370    520.000    516.190      3.810    496.422    513.595    496.422    499.018    496.422
 78.470    550.659    515.479     35.180    496.416    512.942    496.416    498.954    496.416
 78.570    476.000    514.976    -38.976    496.408    512.493    496.408    498.891    496.408
 78.670    525.435    514.635     10.800    496.399    512.204    496.399    498.831    496.399
 78.770    542.000    514.436     27.564    496.388    512.052    496.388    498.772    496.388
 78.870    483.657    514.375    -30.717    496.376    512.035    496.376    498.716    496.376
 78.970    574.000    514.460     59.540    496.363    512.162    496.363    498.661    496.363
 79.070    570.000    514.708     55.292    496.348    512.448    496.348    498.608    496.348
 79.170    503.621    515.144    -11.522    496.332    512.919    496.332    498.556    496.332
 79.270    512.000    515.795     -3.795    496.314    513.602    496.314    498.506    496.314
 79.370    474.000    516.694    -42.694    496.295    514.531    496.295    498.457    496.295
 79.470    519.000    517.881      1.119    496.275    515.745    496.275    498.410    496.275
 79.570    527.000    519.406      7.594    496.253    517.294    496.253    498.363    496.253
 79.670    529.000    521.336      7.664    496.229    519.246    496.229    498.318    496.229
 79.770    554.000    523.764     30.236    496.205    521.693    496.205    498.273    496.205
 79.870    486.368    526.820    -40.452    496.178    524.767    496.178    498.229    496.178
 79.970    580.000    530.676     49.324    496.151    528.638    496.151    498.186    496.151
 80.070    554.369    535.527     18.842    496.122    533.504    496.122    498.143    496.122
 80.170    542.000    541.736      0.264    496.091    539.726    496.091    498.099    496.091
 80.270    502.426    549.636    -47.210    496.059    547.640    496.059    498.056    496.059
 80.370    583.860    559.602     24.258    496.026    557.619    496.026    498.011    496.026
 80.470    540.000    571.966    -31.966    495.991    569.997    495.991    497.965    495.991
 80.570    574.000    586.913    -12.913    495.954    584.960    495.954    497.916    495.954
 80.670    587.365    604.383    -17.018    495.917    602.447    495.917    497.865    495.917
 80.770    594.000    623.999    -29.999    495.877    622.083    495.877    497.811    495.877
 80.870    614.000    645.038    -31.038    495.836    643.145    495.836    497.754    495.836
 80.970    673.000    666.456      6.544    495.794    664.589    495.794    497.693    495.794
 81.070    679.000    687.009     -8.009    495.750    685.169    495.750    497.628    495.750
 81.170    699.000    705.422     -6.422    495.705    703.612    495.705    497.561    495.705
 81.270    699.469    720.563    -21.094    495.658    718.784    495.658    497.490    495.658
 81.370    756.192    731.539     24.652    495.610    729.792    495.610    497.417    495.610
 81.470    740.000    737.760      2.240    495.560    736.045    495.560    497.343    495.560
 81.570    792.000    738.987     53.013    495.508    737.302    495.508    497.267    495.508
 81.670    717.000    735.327    -18.327    495.456    733.670    495.456    497.190    495.456
 81.770    778.243    727.166     51.078    495.401    725.534    495.401    497.112    495.401
 81.870    751.827    715.137     36.690    495.345    713.528    495.345    497.034    495.345
 81.970    713.000    700.135     12.865    495.288    698.547    495.288    496.956    495.288
 82.070    702.000    683.249     18.751    495.229    681.679    495.229    496.877    495.229
 82.170    712.000    665.560     46.440    495.168    664.004    495.168    496.798    495.168
 82.270    630.232    647.925    -17.693    495.106    646.382    495.106    496.719    495.106
 82.370    569.000    630.894    -61.894    495.042    629.361    495.042    496.639    495.042
 82.470    598.000    614.771    -16.771    494.977    613.247    494.977    496.559    494.977
 82.570    534.000    599.756    -65.756    494.910    598.240    494.910    496.479    494.910
 82.670    565.000    586.059    -21.059    494.842    584.547    494.842    496.399    494.842
 82.770    572.220    573.913     -1.693    494.772    572.405    494.772    496.318    494.772
 82.870    566.000    563.549      2.451    494.701    562.043    494.701    496.237    494.701
 82.970    513.000    555.141    -42.141    494.628    553.636    494.628    496.155    494.628
 83.070    513.375    548.802    -35.427    494.553    547.297    494.553    496.073    494.553
 83.170    506.000    544.573    -38.573    494.477    543.066    494.477    495.990    494.477
 83.270    573.563    542.414     31.149    494.399    540.906    494.399    495.906    494.399
 83.370    574.583    542.200     32.383    494.320    540.690    494.320    495.822    494.320
 83.470    522.000    543.707    -21.707    494.239    542.194    494.239    495.737    494.239
 83.570    509.000    546.608    -37.608    494.157    545.090    494.157    495.651    494.157
 83.670    478.000    550.474    -72.474    494.073    548.952    494.073    495.564    494.073
 83.770    582.075    554.785     27.290    493.987    553.260    493.987    495.476    493.987
 83.870    524.000    558.953    -34.953    493.900    557.425    493.900    495.387    493.900
 83.970    534.450    562.355    -27.905    493.811    560.825    493.811    495.297    493.811
 84.070    599.275    564.413     34.863    493.721    562.882    493.721    495.207    493.721
 84.170    554.655    564.700    -10.045    493.629    563.169    493.629    495.115    493.629
 84.270    516.873    563.057    -46.184    493.536    561.528    493.536    495.022    493.536
 84.370    569.000    559.628      9.372    493.441    558.101    493.441    494.929    493.441
 84.470    597.565    554.794     42.771    493.344    553.269    493.344    494.834    493.344
 84.570    471.000    549.052    -78.052    493.246    547.530    493.246    494.738    493.246
 84.670    568.681    542.903     25.778    493.146    541.382    493.146    494.641    493.146
 84.770    585.000    536.783     48.217    493.045    535.263    493.045    494.543    493.045
 84.870    536.000    531.037      4.963    492.942    529.518    492.942    494.444    492.942
 84.970    544.000    525.906     18.094    492.837    524.386    492.837    494.344    492.837
 85.070    525.000    521.531      3.469    492.731    520.009    492.731    494.243    492.731
 85.170    485.945    517.963    -32.018    492.623    516.438    492.623    494.141    492.623
 85.270    471.579    515.183    -43.603    492.514    513.653    492.514    494.038    492.514
 85.370    496.000    513.125    -17.125    492.403    511.590    492.403    493.933    492.403
 85.470    508.000    511.703     -3.703    492.291    510.161    492.291    493.828    492.291
 85.570    516.000    510.827      5.173    492.177    509.278    492.177    493.721    492.177
 85.670    552.229    510.424     41.805    492.061    508.866    492.061    493.614    492.061
 85.770    546.147    510.445     35.702    491.944    508.878    491.944    493.505    491.944
 85.870    521.160    510.878     10.282    491.825    509.300    491.825    493.396    491.825
 85.970    529.225    511.746     17.479    491.704    510.157    491.704    493.285    491.704
 86.070    545.000    513.111     31.889    491.582    511.510    491.582    493.174    491.582
 86.170    545.952    515.069     30.883    491.459    513.455    491.459    493.061    491.459
 86.270    472.994    517.744    -44.750    491.334    516.115    491.334    492.948    491.334
 86.370    545.591    521.277     24.314    491.207    519.631    491.207    492.834    491.207
 86.470    539.000    525.808     13.192    491.079    524.144    491.079    492.718    491.079
 86.570    525.254    531.460     -6.205    490.949    529.775    490.949    492.602    490.949
 86.670    506.000    538.307    -32.307    490.817    536.601    490.817    492.485    490.817
 86.770    568.000    546.354     21.646    490.684    544.623    490.684    492.367    490.684
 86.870    535.000    555.498    -20.498    490.550    553.742    490.550    492.248    490.550
 86.970    600.349    565.513     34.836    490.414    563.731    490.414    492.129    490.414
 87.070    581.000    576.029      4.971    490.276    574.219    490.276    492.009    490.276
 87.170    611.581    586.523     25.058    490.137    584.686    490.137    491.888    490.137
 87.270    673.000    596.330     76.670    489.996    594.466    489.996    491.766    489.996
 87.370    598.000    604.681     -6.681    489.853    602.790    489.853    491.644    489.853
 87.470    620.439    610.794      9.645    489.709    608.879    489.709    491.521    489.709
 87.570    628.000    614.037     13.963    489.564    612.102    489.564    491.397    489.564
 87.670    573.808    614.101    -40.293    489.417    612.147    489.417    491.274    489.417
 87.770    596.354    611.098    -14.744    489.268    609.128    489.268    491.149    489.268
 87.870    595.991    605.523     -9.532    489.118    603.538    489.118    491.024    489.118
 87.970    648.000    598.115     49.885    488.966    596.114    488.966    490.899    488.966
 88.070    577.014    589.704    -12.690    488.813    587.688    488.813    490.774    488.813
 88.170    597.000    581.112     15.888    488.658    579.079    488.658    490.649    488.658
 88.270    574.000    573.080      0.920    488.502    571.027    488.502    490.523    488.502
 88.370    588.000    566.227     21.773    488.344    564.153    488.344    490.397    488.344
 88.470    557.383    561.021     -3.638    488.185    558.923    488.185    490.272    488.185
 88.570    617.000    557.754     59.246    488.024    555.630    488.024    490.147    488.024
 88.670    540.000    556.545    -16.545    487.862    554.391    487.862    490.022    487.862
 88.770    567.000    557.337      9.663    487.698    555.152    487.698    489.897    487.698
 88.870    577.950    559.913     18.038    487.532    557.695    487.532    489.774    487.532
 88.970    560.000    563.912     -3.912    487.366    561.658    487.366    489.651    487.366
 89.070    600.000    568.849     31.151    487.197    566.556    487.197    489.529    487.197
 89.170    529.836    574.139    -44.303    487.027    571.805    487.027    489.408    487.027
 89.270    624.000    579.130     44.870    486.856    576.751    486.856    489.288    486.856
 89.370    532.152    583.150    -50.999    486.683    580.722    486.683    489.171    486.683
 89.470    587.000    585.588      1.412    486.509    583.107    486.509    489.055    486.509
 89.570    597.000    586.001     10.999    486.333    583.459    486.333    488.942    486.333
 89.670    597.000    584.210     12.790    486.156    581.602    486.156    488.832    486.156
 89.770    593.931    580.341     13.591    485.978    577.660    485.978    488.725    485.978
 89.870    606.298    574.763     31.535    485.797    572.001    485.797    488.621    485.797
 89.970    564.000    567.980     -3.980    485.616    565.131    485.616    488.523    485.616
 90.070    574.000    560.525     13.475    485.433    557.581    485.433    488.429    485.433
 90.170    534.000    552.887    -18.887    485.249    549.840    485.249    488.341    485.249
 90.270    555.000    545.478      9.522    485.063    542.320    485.063    488.260    485.063
 90.370    537.000    538.615     -1.615    484.876    535.336    484.876    488.186    484.876
 90.470    527.000    532.516     -5.516    484.687    529.108    484.687    488.121    484.687
 90.570    489.000    527.309    -38.309    484.497    523.761    484.497    488.066    484.497
 90.670    542.000    523.041     18.959    484.305    519.340    484.305    488.022    484.305
 90.770    482.000    519.693    -37.693    484.113    515.827    484.113    487.991    484.113
 90.870    537.000    517.204     19.796    483.918    513.159    483.918    487.973    483.918
 90.970    475.000    515.490    -40.490    483.723    511.250    483.723    487.970    483.723
 91.070    544.039    514.461     29.578    483.526    510.007    483.526    487.985    483.526
 91.170    506.000    514.039     -8.039    483.328    509.353    483.328    488.018    483.328
 91.270    502.000    514.170    -12.170    483.128    509.229    483.128    488.071    483.128
 91.370    476.000    514.830    -38.830    482.927    509.612    482.927    488.146    482.927
 91.470    502.000    516.035    -14.035    482.725    510.515    482.725    488.245    482.725
 91.570    509.675    517.836     -8.161    482.521    511.986    482.521    488.369    482.521
 91.670    515.000    520.310     -5.310    482.316    514.104    482.316    488.519    482.316
 91.770    538.000    523.614     14.386    482.110    517.022    482.110    488.698    482.110
 91.870    572.476    527.905     44.570    481.903    520.895    481.903    488.905    481.903
 91.970    545.709    533.354     12.355    481.694    525.895    481.694    489.143    481.694
 92.070    495.000    540.147    -45.147    481.484    532.207    481.484    489.410    481.484
 92.170    524.000    548.460    -24.460    481.272    540.007    481.272    489.708    481.272
 92.270    605.796    558.440     47.356    481.060    549.444    481.060    490.035    481.060
 92.370    562.449    570.185     -7.735    480.846    560.616    480.846    490.388    480.846
 92.470    584.000    583.719      0.281    480.631    573.552    480.631    490.767    480.631
 92.570    644.566    598.979     45.587    480.414    588.193    480.414    491.165    480.414
 92.670    610.000    615.795     -5.795    480.197    604.374    480.197    491.576    480.197
 92.770    614.000    633.878    -19.878    479.978    621.816    479.978    491.993    479.978
 92.870    694.000    652.813     41.187    479.758    640.115    479.758    492.405    479.758
 92.970    658.000    672.073    -14.073    479.537    658.757    479.537    492.798    479.537
 93.070    685.000    691.049     -6.049    479.315    677.146    479.315    493.158    479.315
 93.170    712.852    709.127      3.726    479.091    694.689    479.091    493.469    479.091
 93.270    735.000    725.806      9.194    478.867    710.901    478.867    493.711    478.867
 93.370    784.135    740.807     43.327    478.641    725.519    478.641    493.869    478.641
 93.470    719.000    754.115    -35.115    478.414    738.544    478.414    493.926    478.414
 93.570    747.000    765.920    -18.920    478.186    750.178    478.186    493.871    478.186
 93.670    803.126    776.522     26.604    477.957    760.726    477.957    493.697    477.957
 93.770    772.000    786.199    -14.199    477.727    770.469    477.727    493.404    477.727
 93.870    763.000    795.184    -32.184    477.495    779.632    477.495    492.997    477.495
 93.970    817.000    803.690     13.310    477.263    788.418    477.263    492.487    477.263
 94.070    816.398    811.972      4.426    477.030    797.068    477.030    491.889    477.030
 94.170    838.000    820.335     17.665    476.795    805.869    476.795    491.219    476.795
 94.270    859.000    829.061     29.939    476.560    815.086    476.560    490.496    476.560
 94.370    844.000    838.272      5.728    476.323    824.824    476.323    489.737    476.323
 94.470    801.483    847.804    -46.321    476.086    834.902    476.086    488.958    476.086
 94.570    899.000    857.130     41.870    475.847    844.780    475.847    488.172    475.847
 94.670    916.000    865.374     50.626    475.608    853.572    475.608    487.391    475.608
 94.770    939.000    871.388     67.612    475.367    860.119    475.367    486.623    475.367
 94.870    920.000    873.877     46.123    475.126    863.121    475.126    485.876    475.126
 94.970    857.919    871.831    -13.912    474.884    861.563    474.884    485.154    474.884
 95.070    904.000    864.474     39.526    474.640    854.663    474.640    484.461    474.640
 95.170    873.000    851.677     21.323    474.396    842.290    474.396    483.799    474.396
 95.270    818.000    833.999    -15.999    474.151    825.002    474.151    483.171    474.151
 95.370    823.711    812.570     11.141    473.905    803.926    473.905    482.575    473.905
 95.470    774.000    788.887    -14.887    473.658    780.561    473.658    482.013    473.658
 95.570    794.222    764.640     29.582    473.411    756.595    473.411    481.483    473.411
 95.670    756.731    741.522     15.209    473.162    733.725    473.162    480.986    473.162
 95.770    746.000    721.156     24.844    472.913    713.573    472.913    480.520    472.913
 95.870    720.000    705.044     14.956    472.663    697.643    472.663    480.084    472.663
 95.970    692.000    694.526     -2.526    472.412    687.277    472.412    479.677    472.412
 96.070    651.230    690.768    -39.538    472.160    683.640    472.160    479.298    472.160
 96.170    726.000    694.739     31.261    471.908    687.706    471.908    478.945    471.908
 96.270    717.864    707.205     10.660    471.655    700.240    471.655    478.617    471.655
 96.370    753.804    728.707     25.098    471.401    721.785    471.401    478.314    471.401
 96.470    774.000    759.534     14.466    471.146    752.631    471.146    478.033    471.146
 96.570    790.000    799.678     -9.678    470.891    792.772    470.891    477.775    470.891
 96.670    793.000    848.780    -55.780    470.635    841.849    470.635    477.539    470.635
 96.770    913.052    906.065      6.987    470.379    899.088    470.379    477.324    470.379
 96.870    943.000    970.280    -27.280    470.121    963.237    470.121    477.130    470.121
 96.970   1096.673   1039.651     57.023    469.864   1032.522    469.864    476.957    469.864
 97.070   1145.731   1111.852     33.880    469.605   1104.618    469.605    476.805    469.605
 97.170   1151.058   1184.007    -32.949    469.346   1176.648    469.346    476.675    469.346
 97.270   1241.000   1252.735    -11.735    469.087   1245.233    469.087    476.567    469.087
 97.370   1300.000   1314.279    -14.279    468.826   1306.611    468.826    476.483    468.826
 97.470   1430.000   1364.761     65.239    468.566   1356.905    468.566    476.424    468.566
 97.570   1374.000   1400.635    -26.635    468.305   1392.567    468.305    476.392    468.305
 97.670   1428.000   1419.256      8.744    468.043   1410.949    468.043    476.389    468.043
 97.770   1421.000   1419.421      1.579    467.781   1410.842    467.781    476.417    467.781
 97.870   1392.000   1401.603     -9.603    467.518   1392.716    467.518    476.480    467.518
 97.970   1308.605   1367.798    -59.193    467.255   1358.563    467.255    476.581    467.255
 98.070   1331.158   1321.061     10.097    466.992   1311.432    466.992    476.723    466.992
 98.170   1248.000   1264.981    -16.981    466.728   1254.907    466.728    476.912    466.728
 98.270   1155.000   1203.264    -48.264    466.464   1192.691    466.464    477.150    466.464
 98.370   1126.000   1139.465    -13.465    466.199   1128.332    466.199    477.445    466.199
 98.470   1098.000   1076.825     21.175    465.934   1065.068    465.934    477.799    465.934
 98.570   1059.881   1018.259     41.622    465.669   1005.809    465.669    478.220    465.669
 98.670    952.000    966.217    -14.217    465.404    953.000    465.404    478.713    465.404
 98.770    916.055    922.758     -6.703    465.138    908.694    465.138    479.285    465.138
 98.870    847.484    889.545    -42.061    464.872    874.549    464.872    479.940    464.872
 98.970    898.000    867.869     30.131    464.606    851.852    464.606    480.686    464.606
 99.070    820.000    858.677    -38.677    464.339    841.542    464.339    481.527    464.339
 99.170    822.272    862.600    -40.328    464.073    844.247    464.073    482.471    464.073
 99.270    882.000    879.981      2.019    463.806    860.306    463.806    483.521    463.806
 99.370    884.000    910.890    -26.890    463.539    889.782    463.539    484.682    463.539
 99.470    946.000    955.111     -9.111    463.272    932.459    463.272    485.958    463.272
 99.570   1007.000   1012.125     -5.125    463.005    987.815    463.005    487.352    463.005
 99.670   1098.954   1081.065     17.889    462.737   1054.982    462.737    488.863    462.737
 99.770   1125.950   1160.668    -34.718    462.470   1132.699    462.470    490.491    462.470
 99.870   1244.000   1249.222     -5.222    462.203   1219.257    462.203    492.233    462.203
 99.970   1339.000   1344.520     -5.520    461.936   1312.455    461.936    494.082    461.936
100.070   1370.890   1443.842    -72.951    461.668   1409.583    461.668    496.029    461.668
100.170   1554.000   1543.985     10.015    461.401   1507.453    461.401    498.060    461.401
100.270   1715.563   1641.389     74.174    461.134   1602.523    461.134    500.155    461.134
100.370   1693.000   1732.360    -39.360    460.867   1691.123    460.867    502.288    460.867
100.470   1863.964   1813.387     50.577    460.600   1769.775    460.600    504.428    460.600
100.570   1894.000   1881.443     12.557    460.333   1835.490    460.333    506.534    460.333
100.670   2023.000   1934.170     88.830    460.066   1885.956    460.066    508.559    460.066
100.770   2089.000   1969.872    119.128    459.800   1919.529    459.800    510.447    459.800
100.870   2025.957   1987.418     38.539    459.534   1935.140    459.534    512.139    459.534
100.970   1921.261   1986.204    -64.943    459.268   1932.245    459.268    513.572    459.268
101.070   2035.000   1966.278     68.722    459.002   1910.951    459.002    514.685    459.002
101.170   1885.000   1928.592    -43.592    458.736   1872.266    458.736    515.424    458.736
101.270   1823.000   1875.210    -52.210    458.471   1818.294    458.471    515.748    458.471
101.370   1726.540   1809.282    -82.742    458.206   1752.212    458.206    515.630    458.206
101.470   1835.000   1734.732    100.268    457.942   1677.949    457.942    515.064    457.942
101.570   1699.578   1655.762     43.816    457.678   1599.697    457.678    514.065    457.678
101.670   1533.000   1576.372    -43.372    457.414   1521.421    457.414    512.667    457.414
101.770   1449.559   1499.994    -50.435    457.151   1446.509    457.151    510.916    457.151
101.870   1472.000   1429.276     42.724    456.888   1377.552    456.888    508.871    456.888
101.970   1352.000   1366.017    -14.017    456.626   1316.287    456.626    506.593    456.626
102.070   1322.000   1311.161     10.839    456.365   1263.598    456.365    504.145    456.365
102.170   1325.647   1264.848     60.799    456.103   1219.567    456.103    501.584    456.103
102.270   1281.398   1226.483     54.914    455.843   1183.548    455.843    498.964    455.843
102.370   1284.000   1194.845     89.155    455.583   1154.274    455.583    496.328    455.583
102.470   1154.000   1168.213    -14.213    455.324   1129.987    455.324    493.714    455.324
102.570   1160.258   1144.536     15.722    455.065   1108.609    455.065    491.150    455.065
102.670   1146.000   1121.746     24.254    454.807   1088.047    454.807    488.660    454.807
102.770   1055.000   1097.910    -42.910    454.550   1066.349    454.550    486.261    454.550
102.870   1058.000   1071.557    -13.557    454.294   1042.033    454.294    483.965    454.294
102.970   1056.000   1041.845     14.155    454.038   1014.247    454.038    481.781    454.038
103.070    966.954   1008.589    -41.635    453.783    982.801    453.783    479.712    453.783
103.170    966.643    972.164     -5.521    453.529    948.066    453.529    477.762    453.529
103.270    962.000    933.328     28.672    453.276    910.802    453.276    475.931    453.276
103.370    904.000    893.039     10.961    453.024    871.967    453.024    474.217    453.024
103.470    797.000    852.310    -55.310    452.773    832.578    452.773    472.617    452.773
103.570    812.518    812.112      0.406    452.523    793.609    452.523    471.127    452.523
103.670    809.000    773.310     35.690    452.274    755.932    452.274    469.744    452.274
103.770    774.000    736.631     37.369    452.025    720.279    452.025    468.460    452.025
103.870    729.000    702.646     26.354    451.778    687.225    451.778    467.272    451.778
103.970    706.000    671.754     34.246    451.532    657.178    451.532    466.172    451.532
104.070    642.000    644.191     -2.191    451.287    630.378    451.287    465.154    451.287
104.170    653.000    620.036     32.964    451.043    606.913    451.043    464.213    451.043
104.270    573.000    599.235    -26.235    450.801    586.733    450.801    463.343    450.801
104.370    606.000    581.626     24.374    450.560    569.682    450.560    462.537    450.560
104.470    586.000    566.968     19.032    450.319    555.525    450.319    461.791    450.319
104.570    623.000    554.972     68.028    450.081    543.978    450.081    461.098    450.081
104.670    570.149    545.329     24.820    449.843    534.736    449.843    460.455    449.843
104.770    546.000    537.730      8.270    449.607    527.497    449.607    459.856    449.607
104.870    553.000    531.888     21.112    449.372    521.976    449.372    459.297    449.372
104.970    583.000    527.551     55.449    449.139    517.924    449.139    458.775    449.139
105.070    505.389    524.506    -19.117    448.907    515.134    448.907    458.286    448.907
105.170    573.000    522.587     50.413    448.677    513.442    448.677    457.827    448.677
105.270    522.000    521.674      0.326    448.448    512.730    448.448    457.395    448.448
105.370    556.805    521.690     35.115    448.221    512.924    448.221    456.989    448.221
105.470    547.854    522.597     25.257    447.995    513.987    447.995    456.604    447.995
105.570    541.000    524.389     16.611    447.771    515.918    447.771    456.241    447.771
105.670    566.844    527.091     39.753    447.549    518.739    447.549    455.897    447.549
105.770    539.528    530.745      8.783    447.328    522.497    447.328    455.570    447.328
105.870    575.000    535.405     39.595    447.109    527.245    447.109    455.260    447.109
105.970    573.073    541.124     31.949    446.892    533.039    446.892    454.965    446.892
106.070    602.000    547.943     54.057    446.677    539.921    446.677    454.685    446.677
106.170    583.000    555.881     27.119    446.463    547.909    446.463    454.419    446.463
106.270    593.000    564.920     28.080    446.252    556.987    446.252    454.166    446.252
106.370    560.000    574.998    -14.998    446.042    567.093    446.042    453.926    446.042
106.470    620.920    586.004     34.916    445.834    578.117    445.834    453.698    445.834
106.570    646.000    597.774     48.226    445.628    589.894    445.628    453.482    445.628
106.670    605.000    610.086     -5.086    445.425    602.205    445.425    453.277    445.425
106.770    636.550    622.670     13.881    445.223    614.779    445.223    453.084    445.223
106.870    605.000    635.205    -30.205    445.024    627.296    445.024    452.902    445.024
106.970    668.631    647.335     21.296    444.826    639.399    444.826    452.731    444.826
107.070    640.000    658.680    -18.680    444.631    650.709    444.631    452.571    444.631
107.170    640.874    668.860    -27.987    444.438    660.847    444.438    452.421    444.438
107.270    644.420    677.538    -33.118    444.248    669.474    444.248    452.283    444.248
107.370    682.000    684.458     -2.458    444.059    676.335    444.059    452.156    444.059
107.470    728.296    689.490     38.806    443.873    681.301    443.873    452.039    443.873
107.570    651.000    692.660    -41.660    443.690    684.397    443.690    451.934    443.690
107.670    671.000    694.149    -23.149    443.508    685.803    443.508    451.840    443.508
107.770    645.000    694.272    -49.272    443.330    685.833    443.330    451.758    443.330
107.870    650.292    693.415    -43.123    443.153    684.875    443.153    451.687    443.153
107.970    648.000    691.985    -43.985    442.980    683.335    442.980    451.628    442.980
108.070    640.000    690.363    -50.363    442.809    681.593    442.809    451.582    442.809
108.170    690.349    688.865      1.483    442.640    679.965    442.640    451.548    442.640
108.270    666.000    687.719    -21.719    442.474    678.678    442.474    451.527    442.474
108.370    673.000    687.053    -14.053    442.311    677.859    442.311    451.520    442.311
108.470    682.344    686.883     -4.539    442.151    677.527    442.151    451.527    442.151
108.570    701.439    687.114     14.326    441.994    677.582    441.994    451.549    441.994
108.670    663.000    687.571    -24.571    441.839    677.851    441.839    451.586    441.839
108.770    665.000    687.967    -22.967    441.687    678.046    441.687    451.639    441.687
108.870    658.938    687.955    -29.017    441.538    677.819    441.538    451.709    441.538
108.970    719.217    687.162     32.055    441.392    676.794    441.392    451.797    441.392
109.070    649.791    685.232    -35.441    441.250    674.617    441.250    451.904    441.250
109.170    698.000    681.880     16.120    441.110    671.001    441.110    452.031    441.110
109.270    692.000    676.940     15.059    440.973    665.777    440.973    452.179    440.973
109.370    696.000    670.384     25.616    440.839    658.917    440.839    452.351    440.839
109.470    617.000    662.323    -45.323    440.709    650.529    440.709    452.547    440.709
109.570    622.000    652.976    -30.976    440.582    640.832    440.582    452.769    440.582
109.670    660.000    642.638     17.362    440.458    630.118    440.458    453.019    440.458
109.770    620.650    631.635    -10.985    440.338    618.712    440.338    453.301    440.338
109.870    640.224    620.298     19.926    440.220    606.941    440.220    453.615    440.220
109.970    634.000    608.937     25.063    440.107    595.114    440.107    453.965    440.107
110.070    618.000    597.834     20.166    439.996    583.509    439.996    454.354    439.996
110.170    670.000    587.232     82.768    439.890    572.367    439.890    454.785    439.890
110.270    605.000    577.335     27.665    439.787    561.886    439.787    455.262    439.787
110.370    602.000    568.299     33.701    439.687    552.221    439.687    455.788    439.687
110.470    585.000    560.242     24.758    439.591    543.485    439.591    456.369    439.591
110.570    517.462    553.238    -35.776    439.499    535.747    439.499    457.008    439.499
110.670    582.212    547.322     34.890    439.410    529.037    439.410    457.711    439.410
110.770    545.000    542.497      2.503    439.326    523.352    439.326    458.483    439.326
110.870    536.000    538.734     -2.734    439.245    518.660    439.245    459.330    439.245
110.970    539.000    535.986      3.014    439.168    514.906    439.168    460.257    439.168
111.070    535.000    534.187      0.813    439.095    512.018    439.095    461.272    439.095
111.170    521.000    533.261    -12.261    439.026    509.913    439.026    462.380    439.026
111.270    551.000    533.128     17.872    438.961    508.505    438.961    463.589    438.961
111.370    562.273    533.707     28.566    438.900    507.704    438.900    464.906    438.900
111.470    522.935    534.919    -11.984    438.843    507.427    438.843    466.338    438.843
111.570    563.000    536.692     26.308    438.791    507.591    438.791    467.893    438.791
111.670    573.000    538.964     34.036    438.742    508.130    438.742    469.577    438.742
111.770    527.462    541.681    -14.219    438.698    508.980    438.698    471.399    438.698
111.870    531.000    544.795    -13.795    438.659    510.088    438.659    473.366    438.659
111.970    524.000    548.273    -24.273    438.623    511.412    438.623    475.484    438.623
112.070    600.259    552.092     48.167    438.592    512.924    438.592    477.760    438.592
112.170    576.000    556.239     19.761    438.566    514.604    438.566    480.200    438.566
112.270    566.000    560.713      5.287    438.544    516.448    438.544    482.810    438.544
112.370    522.000    565.526    -43.526    438.527    518.460    438.527    485.593    438.527
112.470    523.000    570.697    -47.697    438.514    520.658    438.514    488.552    438.514
112.570    574.745    576.256     -1.510    438.507    523.071    438.507    491.691    438.507
112.670    598.000    582.244     15.756    438.503    525.739    438.503    495.009    438.503
112.770    545.000    588.714    -43.714    438.505    528.715    438.505    498.504    438.505
112.870    593.649    595.730     -2.081    438.512    532.069    438.512    502.174    438.512
112.970    627.000    603.378     23.622    438.523    535.890    438.523    506.012    438.523
113.070    588.000    611.764    -23.764    438.540    540.296    438.540    510.008    438.540
113.170    572.000    621.026    -49.026    438.561    545.437    438.561    514.150    438.561
113.270    653.519    631.341     22.178    438.588    551.508    438.588    518.421    438.588
113.370    609.000    642.938    -33.938    438.619    558.757    438.619    522.799    438.619
113.470    668.000    656.111     11.889    438.656    567.509    438.656    527.257    438.656
113.570    654.000    671.236    -17.236    438.698    578.169    438.698    531.762    438.698
113.670    683.435    688.789     -5.354    438.746    591.255    438.746    536.274    438.746
113.770    686.000    709.360    -23.360    438.799    607.403    438.799    540.747    438.799
113.870    732.781    733.655     -0.874    438.857    627.373    438.857    545.127    438.857
113.970    744.676    762.617    -17.941    438.920    652.166    438.920    549.354    438.920
114.070    785.000    797.329    -12.329    438.990    682.935    438.990    553.361    438.990
114.170    809.217    839.043    -29.826    439.064    721.001    439.064    557.076    439.064
114.270    907.000    889.231     17.769    439.145    767.909    439.145    560.427    439.145
114.370    982.192    949.570     32.622    439.231    825.409    439.231    563.342    439.231
114.470   1010.000   1021.929    -11.929    439.323    895.437    439.323    565.751    439.323
114.570   1048.000   1108.338    -60.338    439.420    980.084    439.420    567.596    439.420
114.670   1193.000   1210.944    -17.944    439.524   1081.543    439.524    568.828    439.524
114.770   1330.000   1331.941     -1.941    439.633   1202.042    439.633    569.417    439.633
114.870   1460.320   1473.489    -13.168    439.749   1343.753    439.749    569.347    439.749
114.970   1726.000   1637.594     88.406    439.870   1508.679    439.870    568.624    439.870
115.070   1894.000   1825.988     68.012    439.998   1698.528    439.998    567.273    439.998
115.170   2031.714   2039.984     -8.270    440.132   1914.573    440.132    565.334    440.132
115.270   2281.079   2280.325      0.754    440.272   2157.501    440.272    562.861    440.272
115.370   2465.567   2547.035    -81.469    440.418   2427.276    440.418    559.920    440.418
115.470   2842.000   2839.282      2.718    440.571   2722.993    440.571    556.582    440.571
115.570   3068.105   3155.255    -87.150    440.730   3042.771    440.730    552.920    440.730
115.670   3551.000   3492.076     58.924    440.896   3383.660    440.896    549.007    440.896
115.770   3686.000   3845.743   -159.743    441.068   3741.591    441.068    544.911    441.068
115.870   4027.000   4211.115   -184.115    441.246   4111.361    441.246    540.697    441.246
115.970   4447.000   4581.944   -134.944    441.432   4486.665    441.432    536.420    441.432
116.070   4914.000   4950.944    -36.944    441.624   4860.170    441.624    532.132    441.624
116.170   5197.000   5309.921   -112.921    441.823   5223.638    441.823    527.875    441.823
116.270   5691.616   5649.951     41.665    442.028   5568.112    442.028    523.684    442.028
116.370   5931.000   5961.638    -30.638    442.241   5884.164    442.241    519.591    442.241
116.470   6312.164   6235.466     76.697    442.461   6162.255    442.461    515.620    442.461
116.570   6533.000   6462.268     70.732    442.687   6393.198    442.687    511.788    442.687
116.670   6642.000   6633.813      8.187    442.921   6568.743    442.921    508.112    442.921
116.770   6660.000   6743.466    -83.466    443.162   6682.244    443.162    504.602    443.162
116.870   6785.000   6786.829     -1.829    443.410   6729.290    443.410    501.266    443.410
116.970   6799.000   6762.217     36.783    443.665   6708.187    443.665    498.109    443.665
117.070   6717.000   6670.846     46.154    443.928   6620.146    443.928    495.133    443.928
117.170   6562.000   6516.687     45.313    444.198   6469.131    444.198    492.339    444.198
117.270   6337.000   6306.013     30.987    444.476   6261.415    444.476    489.726    444.476
117.370   6044.233   6046.772     -2.539    444.761   6004.946    444.761    487.291    444.761
117.470   5837.161   5747.923     89.239    445.054   5708.686    445.054    485.030    445.054
117.570   5356.000   5418.837    -62.837    445.355   5382.011    445.355    482.939    445.355
117.670   4963.000   5068.812   -105.812    445.663   5034.226    445.663    481.012    445.663
117.770   4844.000   4706.713    137.287    445.979   4674.201    445.979    479.243    445.979
117.870   4449.005   4340.702    108.303    446.303   4310.109    446.303    477.626    446.303
117.970   4113.000   3978.054    134.946    446.635   3949.232    446.635    476.153    446.635
118.070   3673.000   3625.034     47.966    446.975   3597.845    446.975    474.817    446.975
118.170   3425.000   3286.824    138.176    447.323   3261.141    447.323    473.612    447.323
118.270   3102.000   2967.504    134.496    447.680   2943.208    447.680    472.529    447.680
118.370   2649.315   2670.077    -20.762    448.044   2647.057    448.044    471.562    448.044
118.470   2482.000   2396.527     85.473    448.417   2374.684    448.417    470.703    448.417
118.570   2170.000   2147.916     22.084    448.798   2127.156    448.798    469.946    448.798
118.670   1999.207   1924.493     74.714    449.188   1904.734    449.188    469.283    449.188
118.770   1750.356   1725.823     24.533    449.586   1706.987    449.586    468.710    449.586
118.870   1542.000   1550.913     -8.913    449.993   1532.929    449.993    468.219    449.993
118.970   1342.000   1398.343    -56.343    450.408   1381.149    450.408    467.804    450.408
119.070   1213.000   1266.394    -53.394    450.833   1249.931    450.833    467.462    450.833
119.170   1224.000   1153.160     70.840    451.266   1137.376    451.266    467.185    451.266
119.270   1062.000   1056.655      5.345    451.707   1041.501    451.707    466.971    451.707
119.370   1023.000    974.897     48.103    452.158    960.328    452.158    466.814    452.158
119.470    889.000    905.978    -16.978    452.618    891.953    452.618    466.711    452.618
119.570    819.000    848.114    -29.114    453.087    834.597    453.087    466.659    453.087
119.670    794.000    799.681     -5.681    453.565    786.637    453.565    466.652    453.565
119.770    768.009    759.228      8.781    454.052    746.625    454.052    466.690    454.052
119.870    750.000    725.488     24.512    454.549    713.296    454.549    466.769    454.549
119.970    657.455    697.370    -39.915    455.055    685.562    455.055    466.887    455.055
120.070    647.000    673.949    -26.949    455.570    662.499    455.570    467.041    455.570
120.170    658.000    654.453      3.547    456.095    643.337    456.095    467.229    456.095
120.270    625.000    638.243    -13.243    456.630    627.438    456.630    467.450    456.630
120.370    657.032    624.794     32.238    457.174    614.280    457.174    467.703    457.174
120.470    611.000    613.682     -2.682    457.728    603.439    457.728    467.985    457.728
120.570    610.021    604.563      5.458    458.292    594.573    458.292    468.296    458.292
120.670    578.132    597.160    -19.028    458.866    587.406    458.866    468.634    458.866
120.770    641.376    591.252     50.124    459.450    581.717    459.450    468.998    459.450
120.870    548.000    586.659    -38.659    460.044    577.329    460.044    469.388    460.044
120.970    587.000    583.236      3.764    460.648    574.096    460.648    469.802    460.648
121.070    577.000    580.865     -3.865    461.262    571.901    461.262    470.240    461.262
121.170    595.589    579.445     16.144    461.886    570.646    461.886    470.702    461.886
121.270    588.000    578.881      9.119    462.521    570.234    462.521    471.186    462.521
121.370    562.000    579.095    -17.095    463.167    570.589    463.167    471.691    463.167
121.470    525.000    580.061    -55.061    463.823    571.686    463.823    472.218    463.823
121.570    578.000    581.689     -3.689    464.489    573.434    464.489    472.766    464.489
121.670    596.424    583.911     12.513    465.166    575.768    465.166    473.333    465.166
121.770    625.781    586.661     39.120    465.854    578.620    465.854    473.921    465.854
121.870    540.008    589.866    -49.858    466.553    581.921    466.553    474.527    466.553
121.970    559.000    593.452    -34.452    467.263    585.595    467.263    475.151    467.263
122.070    579.691    597.338    -17.648    467.984    589.562    467.984    475.794    467.984
122.170    650.000    601.437     48.563    468.715    593.736    468.715    476.453    468.715
122.270    642.000    605.655     36.345    469.458    598.024    469.458    477.129    469.458
122.370    570.900    609.894    -38.994    470.213    602.329    470.213    477.820    470.213
122.470    619.000    614.049      4.951    470.978    606.547    470.978    478.526    470.978
122.570    629.187    618.016     11.171    471.755    610.573    471.755    479.246    471.755
122.670    635.000    621.686     13.314    472.544    614.302    472.544    479.978    472.544
122.770    636.000    624.956     11.044    473.344    617.630    473.344    480.723    473.344
122.870    642.920    627.730     15.190    474.156    620.462    474.156    481.479    474.156
122.970    599.000    629.925    -30.925    474.980    622.717    474.980    482.244    474.980
123.070    624.958    631.476     -6.519    475.815    624.330    475.815    483.019    475.815
123.170    581.786    632.339    -50.553    476.662    625.258    476.662    483.803    476.662
123.270    615.777    632.495    -16.718    477.522    625.483    477.522    484.593    477.522
123.370    681.000    631.948     49.052    478.393    625.009    478.393    485.391    478.393
123.470    646.000    630.724     15.276    479.277    623.865    479.277    486.195    479.277
123.570    682.792    628.871     53.921    480.173    622.097    480.173    487.005    480.173
123.670    601.999    626.447    -24.448    481.081    619.764    481.081    487.820    481.081
123.770    602.000    623.522    -21.522    482.001    616.935    482.001    488.642    482.001
123.870    650.299    620.170     30.129    482.935    613.687    482.935    489.470    482.935
123.970    644.000    616.468     27.532    483.880    610.094    483.880    490.304    483.880
124.070    634.000    612.494     21.506    484.839    606.234    484.839    491.145    484.839
124.170    590.000    608.322    -18.322    485.810    602.181    485.810    491.995    485.810
124.270    575.675    604.023    -28.348    486.794    598.005    486.794    492.853    486.794
124.370    553.635    599.661    -46.026    487.791    593.769    487.791    493.720    487.791
124.470    558.836    595.295    -36.459    488.802    589.532    488.802    494.598    488.802
124.570    623.000    590.977     32.023    489.825    585.345    489.825    495.487    489.825
124.670    581.000    586.749     -5.749    490.861    581.250    490.861    496.388    490.861
124.770    576.323    582.650     -6.327    491.911    577.283    491.911    497.302    491.911
124.870    590.735    578.707     12.028    492.974    573.473    492.974    498.230    492.974
124.970    573.000    574.945     -1.945    494.051    569.843    494.051    499.172    494.051
