neutron_powder_diffraction_0207
R_wp: 4.097
Temperature (K): 1074.100
Counts: 84042.00
Wavelength (Ã…): 2.52098
COMMENTS
Test file for demonstrating the .xyy file format in Reel1.0
END OF HEADER
   tth       Y_obs     Y_calc      Y_res    Background    Phase_1_Nuc    Phase_1_Mag    Phase_2_Nuc    Phase_2_Mag
  9.970    624.000    573.645     50.355    573.031    573.618    573.031    573.058    573.031
 10.070    603.322    573.664     29.658    572.997    573.637    572.997    573.024    572.997
 10.170    581.000    573.686      7.314    572.959    573.658    572.959    572.986    572.959
 10.270    596.000    573.713     22.287    572.916    573.685    572.916    572.943    572.916
 10.370    534.390    573.746    -39.357    572.869    573.719    572.869    572.897    572.869
 10.470    629.000    573.790     55.210    572.818    573.762    572.818    572.845    572.818
 10.570    587.000    573.847     13.153    572.763    573.819    572.763    572.790    572.763
 10.670    552.203    573.921    -21.718    572.703    573.893    572.703    572.730    572.703
 10.770    601.000    574.020     26.980    572.639    573.992    572.639    572.667    572.639
 10.870    582.000    574.166      7.834    572.571    574.138    572.571    572.599    572.571
 10.970    603.000    574.343     28.657    572.499    574.314    572.499    572.527    572.499
 11.070    607.000    574.576     32.424    572.423    574.547    572.423    572.451    572.423
 11.170    534.381    574.893    -40.513    572.343    574.864    572.343    572.371    572.343
 11.270    595.000    575.332     19.668    572.259    575.301    572.259    572.288    572.259
 11.370    572.000    575.955     -3.955    572.171    575.923    572.171    572.201    572.171
 11.470    619.368    576.899     42.469    572.080    576.866    572.080    572.110    572.080
 11.570    645.000    578.551     66.449    571.984    578.516    571.984    572.015    571.984
 11.670    637.000    582.026     54.974    571.885    581.990    571.885    571.916    571.885
 11.770    604.000    589.977     14.023    571.782    589.936    571.782    571.813    571.782
 11.870    614.000    606.770      7.230    571.676    606.720    571.676    571.707    571.676
 11.970    652.698    635.901     16.796    571.565    635.834    571.565    571.597    571.565
 12.070    683.000    673.686      9.314    571.452    673.598    571.452    571.483    571.452
 12.170    687.662    703.492    -15.830    571.334    703.387    571.334    571.366    571.334
 12.270    746.000    704.344     41.656    571.213    704.239    571.213    571.245    571.213
 12.370    608.000    675.362    -67.362    571.089    675.271    571.089    571.122    571.089
 12.470    624.000    637.166    -13.166    570.961    637.086    570.961    571.006    570.961
 12.570    572.000    607.120    -35.120    570.830    607.054    570.830    570.876    570.830
 12.670    564.547    589.499    -24.952    570.696    589.442    570.696    570.743    570.696
 12.770    591.000    580.981     10.019    570.558    580.928    570.558    570.605    570.558
 12.870    539.262    577.128    -37.866    570.417    577.077    570.417    570.464    570.417
 12.970    612.000    575.187     36.813    570.273    575.136    570.273    570.320    570.273
 13.070    538.716    573.984    -35.269    570.125    573.934    570.125    570.173    570.125
 13.170    550.000    573.114    -23.114    569.975    573.064    569.975    570.023    569.975
 13.270    521.000    572.433    -51.433    569.821    572.383    569.821    569.870    569.821
 13.370    566.000    571.883     -5.883    569.664    571.827    569.664    569.719    569.664
 13.470    550.000    571.413    -21.413    569.504    571.357    569.504    569.560    569.504
 13.570    564.321    571.004     -6.683    569.342    570.948    569.342    569.398    569.342
 13.670    607.000    570.641     36.359    569.176    570.584    569.176    569.232    569.176
 13.770    614.619    570.311     44.308    569.007    570.254    569.007    569.064    569.007
 13.870    541.000    570.006    -29.006    568.836    569.949    568.836    568.893    568.836
 13.970    593.742    569.721     24.022    568.661    569.663    568.661    568.719    568.661
 14.070    545.912    569.450    -23.538    568.484    569.392    568.484    568.542    568.484
 14.170    570.000    569.190      0.810    568.304    569.132    568.304    568.362    568.304
 14.270    603.674    568.940     34.734    568.122    568.881    568.122    568.180    568.122
 14.370    569.000    568.696      0.304    567.936    568.637    567.936    567.995    567.936
 14.470    592.493    568.457     24.036    567.748    568.398    567.748    567.807    567.748
 14.570    574.000    568.222      5.778    567.558    568.163    567.558    567.617    567.558
 14.670    572.000    567.990      4.010    567.365    567.930    567.365    567.424    567.365
 14.770    538.000    567.760    -29.760    567.169    567.700    567.169    567.229    567.169
 14.870    585.000    567.532     17.468    566.971    567.471    566.971    567.031    566.971
 14.970    548.000    567.304    -19.304    566.770    567.244    566.770    566.831    566.770
 15.070    592.116    567.077     25.039    566.567    567.016    566.567    566.628    566.567
 15.170    540.000    566.851    -26.851    566.362    566.789    566.362    566.423    566.362
 15.270    530.465    566.624    -36.159    566.154    566.562    566.154    566.215    566.154
 15.370    568.000    566.397      1.603    565.944    566.335    565.944    566.005    565.944
 15.470    565.000    566.169     -1.169    565.731    566.107    565.731    565.793    565.731
 15.570    559.000    565.944     -6.944    565.516    565.881    565.516    565.579    565.516
 15.670    550.000    565.717    -15.717    565.299    565.653    565.299    565.363    565.299
 15.770    597.626    565.489     32.137    565.080    565.422    565.080    565.147    565.080
 15.870    553.000    565.258    -12.258    564.859    565.191    564.859    564.927    564.859
 15.970    586.000    565.027     20.973    564.636    564.958    564.636    564.704    564.636
 16.070    598.000    564.794     33.206    564.410    564.724    564.410    564.479    564.410
 16.170    582.000    564.559     17.441    564.183    564.489    564.183    564.252    564.183
 16.270    531.793    564.323    -32.531    563.953    564.253    563.953    564.024    563.953
 16.370    519.317    564.086    -44.769    563.721    564.015    563.721    563.793    563.721
 16.470    563.046    563.848     -0.802    563.488    563.776    563.488    563.560    563.488
 16.570    576.000    563.608     12.392    563.252    563.535    563.252    563.325    563.252
 16.670    565.000    563.366      1.634    563.015    563.294    563.015    563.088    563.015
 16.770    588.000    563.124     24.876    562.776    563.050    562.776    562.849    562.776
 16.870    604.000    562.880     41.120    562.535    562.806    562.535    562.609    562.535
 16.970    532.235    562.634    -30.399    562.292    562.560    562.292    562.366    562.292
 17.070    593.000    562.388     30.612    562.048    562.313    562.048    562.122    562.048
 17.170    556.000    562.139     -6.139    561.801    562.064    561.801    561.876    561.801
 17.270    530.000    561.890    -31.890    561.553    561.814    561.553    561.629    561.553
 17.370    507.000    561.639    -54.639    561.304    561.563    561.304    561.380    561.304
 17.470    517.000    561.387    -44.387    561.052    561.311    561.052    561.129    561.052
 17.570    608.000    561.135     46.865    560.800    561.058    560.800    560.877    560.800
 17.670    572.000    560.882     11.118    560.545    560.804    560.545    560.623    560.545
 17.770    541.000    560.626    -19.626    560.289    560.548    560.289    560.367    560.289
 17.870    606.354    560.369     45.985    560.032    560.290    560.032    560.110    560.032
 17.970    561.000    560.111      0.889    559.773    560.032    559.773    559.852    559.773
 18.070    547.000    559.853    -12.853    559.512    559.772    559.512    559.594    559.512
 18.170    550.268    559.593     -9.325    559.250    559.511    559.250    559.333    559.250
 18.270    545.000    559.333    -14.333    558.987    559.250    558.987    559.070    558.987
 18.370    537.000    559.071    -22.071    558.723    558.987    558.723    558.806    558.723
 18.470    533.839    558.807    -24.968    558.457    558.723    558.457    558.541    558.457
 18.570    536.783    558.543    -21.760    558.189    558.458    558.189    558.274    558.189
 18.670    571.000    558.277     12.723    557.921    558.191    557.921    558.006    557.921
 18.770    512.868    558.010    -45.142    557.651    557.924    557.651    557.737    557.651
 18.870    525.000    557.742    -32.742    557.380    557.655    557.380    557.467    557.380
 18.970    559.000    557.473      1.527    557.108    557.386    557.108    557.196    557.108
 19.070    544.000    557.203    -13.203    556.835    557.115    556.835    556.923    556.835
 19.170    528.522    556.933    -28.411    556.560    556.844    556.560    556.649    556.560
 19.270    518.721    556.661    -37.940    556.285    556.572    556.285    556.374    556.285
 19.370    583.000    556.389     26.611    556.008    556.299    556.008    556.099    556.008
 19.470    504.000    556.117    -52.117    555.731    556.025    555.731    555.822    555.731
 19.570    546.000    555.844     -9.844    555.452    555.752    555.452    555.544    555.452
 19.670    491.000    555.571    -64.571    555.172    555.478    555.172    555.265    555.172
 19.770    553.000    555.296     -2.296    554.892    555.202    554.892    554.986    554.892
 19.870    546.000    555.025     -9.025    554.610    554.926    554.610    554.709    554.610
 19.970    529.000    554.752    -25.752    554.328    554.650    554.328    554.430    554.328
 20.070    539.000    554.476    -15.476    554.044    554.372    554.044    554.147    554.044
 20.170    551.249    554.199     -2.950    553.760    554.095    553.760    553.864    553.760
 20.270    576.000    553.922     22.078    553.475    553.817    553.475    553.580    553.475
 20.370    579.400    553.644     25.756    553.189    553.538    553.189    553.295    553.189
 20.470    556.312    553.366      2.946    552.902    553.259    552.902    553.009    552.902
 20.570    567.000    553.088     13.912    552.615    552.980    552.615    552.723    552.615
 20.670    552.000    552.810     -0.810    552.327    552.701    552.327    552.436    552.327
 20.770    587.000    552.531     34.469    552.038    552.421    552.038    552.148    552.038
 20.870    550.580    552.254     -1.674    551.749    552.143    551.749    551.860    551.749
 20.970    593.134    551.989     41.145    551.459    551.876    551.459    551.571    551.459
 21.070    517.000    551.720    -34.720    551.168    551.607    551.168    551.281    551.168
 21.170    558.000    551.443      6.557    550.876    551.328    550.876    550.991    550.876
 21.270    570.000    551.166     18.834    550.584    551.050    550.584    550.700    550.584
 21.370    516.746    550.889    -34.142    550.292    550.771    550.292    550.409    550.292
 21.470    568.000    550.612     17.388    549.999    550.494    549.999    550.117    549.999
 21.570    583.000    550.337     32.663    549.705    550.217    549.705    549.825    549.705
 21.670    507.544    550.062    -42.518    549.411    549.941    549.411    549.533    549.411
 21.770    566.210    549.788     16.422    549.117    549.666    549.117    549.240    549.117
 21.870    575.357    549.516     25.841    548.822    549.392    548.822    548.946    548.822
 21.970    568.329    549.245     19.084    548.527    549.119    548.527    548.652    548.527
 22.070    557.000    548.976      8.024    548.231    548.849    548.231    548.358    548.231
 22.170    548.380    548.709     -0.329    547.935    548.580    547.935    548.064    547.935
 22.270    507.146    548.444    -41.299    547.639    548.314    547.639    547.769    547.639
 22.370    516.000    548.183    -32.183    547.342    548.051    547.342    547.474    547.342
 22.470    510.477    547.925    -37.448    547.045    547.791    547.045    547.179    547.045
 22.570    550.000    547.671      2.329    546.747    547.535    546.747    546.883    546.747
 22.670    545.559    547.422     -1.863    546.450    547.284    546.450    546.588    546.450
 22.770    547.000    547.186     -0.186    546.152    547.047    546.152    546.292    546.152
 22.870    582.013    547.026     34.987    545.854    546.884    545.854    545.996    545.854
 22.970    539.000    546.820     -7.820    545.556    546.676    545.556    545.700    545.556
 23.070    589.612    546.623     42.989    545.258    546.477    545.258    545.404    545.258
 23.170    556.241    546.444      9.797    544.959    546.296    544.959    545.108    544.959
 23.270    545.000    546.260     -1.260    544.661    546.110    544.661    544.812    544.661
 23.370    554.000    546.095      7.905    544.362    545.943    544.362    544.515    544.362
 23.470    543.000    545.963     -2.963    544.063    545.808    544.063    544.219    544.063
 23.570    561.000    545.907     15.093    543.764    545.749    543.764    543.923    543.764
 23.670    551.000    545.873      5.127    543.466    545.710    543.466    543.629    543.466
 23.770    584.000    545.888     38.112    543.167    545.722    543.167    543.334    543.167
 23.870    539.000    545.996     -6.996    542.868    545.827    542.868    543.039    542.868
 23.970    502.000    546.250    -44.250    542.569    546.078    542.569    542.743    542.569
 24.070    567.000    546.772     20.228    542.270    546.597    542.270    542.448    542.270
 24.170    525.000    547.908    -22.908    541.972    547.731    541.972    542.153    541.972
 24.270    534.000    550.607    -16.607    541.673    550.427    541.673    541.858    541.673
 24.370    558.000    556.886      1.114    541.374    556.707    541.374    541.563    541.374
 24.470    582.000    569.599     12.401    541.076    569.426    541.076    541.269    541.076
 24.570    580.940    590.223     -9.284    540.778    590.061    540.778    540.975    540.778
 24.670    599.000    614.747    -15.747    540.480    614.598    540.480    540.682    540.480
 24.770    622.700    631.028     -8.328    540.182    630.886    540.182    540.389    540.182
 24.870    679.000    627.018     51.982    539.884    626.868    539.884    540.096    539.884
 24.970    608.839    606.003      2.836    539.587    605.833    539.587    539.804    539.587
 25.070    587.899    581.494      6.405    539.289    581.301    539.289    539.512    539.289
 25.170    610.147    562.911     47.236    538.992    562.698    538.992    539.222    538.992
 25.270    548.000    552.039     -4.039    538.696    551.812    538.696    538.931    538.696
 25.370    574.401    546.639     27.762    538.399    546.401    538.399    538.642    538.399
 25.470    504.207    544.057    -39.849    538.103    543.810    538.103    538.353    538.103
 25.570    501.000    542.662    -41.662    537.807    542.406    537.807    538.066    537.807
 25.670    537.000    541.746     -4.746    537.512    541.481    537.512    537.779    537.512
 25.770    569.814    541.056     28.758    537.217    540.782    537.217    537.493    537.217
 25.870    603.000    540.502     62.498    536.922    540.217    536.922    537.208    536.922
 25.970    492.334    540.050    -47.716    536.628    539.754    536.628    536.924    536.628
 26.070    560.000    539.679     20.321    536.334    539.372    536.334    536.642    536.334
 26.170    547.000    539.354      7.646    536.041    539.034    536.041    536.361    536.041
 26.270    583.784    539.090     44.694    535.748    538.757    535.748    536.081    535.748
 26.370    514.000    538.864    -24.864    535.455    538.517    535.455    535.803    535.455
 26.470    588.000    538.672     49.328    535.163    538.309    535.163    535.527    535.163
 26.570    598.000    538.520     59.480    534.871    538.139    534.871    535.253    534.871
 26.670    521.000    538.417    -17.417    534.580    538.017    534.580    534.981    534.580
 26.770    539.000    538.367      0.633    534.290    537.946    534.290    534.711    534.290
 26.870    508.411    538.380    -29.969    534.000    537.935    534.000    534.445    534.000
 26.970    555.000    538.471     16.529    533.711    538.000    533.711    534.181    533.711
 27.070    509.000    538.655    -29.655    533.422    538.156    533.422    533.921    533.422
 27.170    567.000    538.965     28.035    533.134    538.434    533.134    533.664    533.134
 27.270    540.000    539.445      0.555    532.846    538.877    532.846    533.413    532.846
 27.370    504.059    540.163    -36.103    532.559    539.555    532.559    533.166    532.559
 27.470    577.206    541.260     35.946    532.273    540.606    532.273    532.926    532.273
 27.570    532.000    543.019    -11.019    531.987    542.312    531.987    532.692    531.987
 27.670    578.000    546.594     31.406    531.702    545.827    531.702    532.467    531.702
 27.770    579.000    556.389     22.611    531.418    555.549    531.418    532.252    531.418
 27.870    597.000    584.598     12.402    531.134    583.668    531.134    532.048    531.134
 27.970    678.000    651.986     26.014    530.851    650.940    530.851    531.859    530.851
 28.070    748.000    769.846    -21.846    530.569    768.654    530.569    531.688    530.569
 28.170    956.000    904.549     51.451    530.288    903.195    530.288    531.538    530.288
 28.270    980.000    971.011      8.989    530.007    969.500    530.007    531.417    530.007
 28.370    923.000    913.245      9.755    529.727    911.579    529.727    531.331    529.727
 28.470    815.000    789.892     25.108    529.448    788.025    529.448    531.292    529.448
 28.570    641.000    695.665    -54.665    529.170    693.507    529.170    531.319    529.170
 28.670    715.000    678.344     36.656    528.892    675.782    528.892    531.440    528.892
 28.770    706.972    731.249    -24.277    528.616    728.131    528.616    531.713    528.616
 28.870    770.141    809.373    -39.231    528.340    805.459    528.340    532.240    528.340
 28.970    820.000    846.582    -26.582    528.065    841.449    528.065    533.201    528.065
 29.070    817.415    804.363     13.053    527.791    797.294    527.791    534.873    527.791
 29.170    683.277    717.711    -34.434    527.517    707.636    527.517    537.606    527.517
 29.270    620.000    640.299    -20.299    527.245    625.825    527.245    541.727    527.245
 29.370    621.625    595.473     26.151    526.974    575.117    526.974    547.332    526.974
 29.470    595.000    578.447     16.553    526.703    551.218    526.703    553.931    526.703
 29.570    567.142    575.097     -7.955    526.433    541.615    526.433    559.915    526.433
 29.670    553.729    574.005    -20.277    526.165    537.593    526.165    562.575    526.165
 29.770    588.000    569.749     18.251    525.897    535.462    525.897    560.183    525.897
 29.870    549.000    562.502    -13.502    525.630    534.068    525.630    554.063    525.630
 29.970    547.000    554.624     -7.624    525.364    533.074    525.364    546.913    525.364
 30.070    511.468    547.838    -36.370    525.100    532.385    525.100    540.550    525.100
 30.170    614.000    542.779     71.221    524.836    531.984    524.836    535.629    524.836
 30.270    550.458    539.520     10.937    524.573    531.959    524.573    532.132    524.573
 30.370    535.000    538.164     -3.164    524.311    532.714    524.311    529.759    524.311
 30.470    548.000    539.512      8.488    524.050    535.402    524.050    528.155    524.050
 30.570    545.204    545.613     -0.409    523.791    542.364    523.791    527.029    523.791
 30.670    615.000    559.095     55.905    523.532    556.421    523.532    526.184    523.532
 30.770    613.025    580.129     32.897    523.274    577.860    523.274    525.505    523.274
 30.870    631.263    602.356     28.907    523.018    600.391    523.018    524.931    523.018
 30.970    631.000    612.605     18.395    522.762    610.885    522.762    524.426    522.762
 31.070    593.000    602.180     -9.180    522.508    600.671    522.508    523.971    522.508
 31.170    602.000    579.156     22.844    522.255    577.828    522.255    523.555    522.255
 31.270    522.111    556.710    -34.599    522.003    555.531    522.003    523.167    522.003
 31.370    581.000    541.489     39.511    521.752    540.430    521.752    522.804    521.752
 31.470    551.000    533.445     17.555    521.502    532.485    521.502    522.459    521.502
 31.570    536.000    529.799      6.201    521.253    528.921    521.253    522.129    521.253
 31.670    547.000    528.148     18.852    521.006    527.339    521.006    521.812    521.006
 31.770    538.000    527.262     10.738    520.759    526.514    520.759    521.506    520.759
 31.870    552.000    526.687     25.313    520.514    525.991    520.514    521.209    520.514
 31.970    506.000    526.276    -20.276    520.270    525.625    520.270    520.919    520.270
 32.070    542.000    525.984     16.016    520.027    525.373    520.027    520.637    520.027
 32.170    506.567    525.791    -19.224    519.785    525.216    519.785    520.360    519.785
 32.270    569.116    525.692     43.423    519.545    525.148    519.545    520.088    519.545
 32.370    548.000    525.688     22.312    519.306    525.171    519.306    519.822    519.306
 32.470    537.998    525.783     12.215    519.067    525.291    519.067    519.559    519.067
 32.570    503.314    525.993    -22.679    518.831    525.523    518.831    519.300    518.831
 32.670    564.948    526.341     38.607    518.595    525.890    518.595    519.045    518.595
 32.770    546.000    526.858     19.142    518.361    526.425    518.361    518.793    518.361
 32.870    520.000    527.594     -7.594    518.128    527.177    518.128    518.544    518.128
 32.970    570.000    528.620     41.380    517.896    528.217    517.896    518.297    517.896
 33.070    547.000    530.046     16.954    517.665    529.656    517.665    518.054    517.665
 33.170    513.699    532.062    -18.363    517.436    531.684    517.436    517.812    517.436
 33.270    508.029    535.109    -27.080    517.208    534.741    517.208    517.573    517.208
 33.370    552.872    540.447     12.425    516.982    540.089    516.982    517.337    516.982
 33.470    564.000    551.644     12.356    516.756    551.293    516.756    517.103    516.756
 33.570    568.000    577.072     -9.072    516.532    576.725    516.532    516.870    516.532
 33.670    634.000    631.042      2.958    516.310    630.693    516.310    516.640    516.310
 33.770    762.000    727.805     34.195    516.088    727.446    516.088    516.412    516.088
 33.870    867.485    865.016      2.469    515.868    864.646    515.868    516.185    515.868
 33.970    978.740   1004.642    -25.903    515.649   1004.268    515.649    515.961    515.649
 34.070   1009.440   1073.446    -64.005    515.432   1073.086    515.432    515.738    515.432
 34.170   1012.302   1021.742     -9.441    515.216   1021.416    515.216    515.517    515.216
 34.270    905.095    888.487     16.608    515.001    888.191    515.001    515.298    515.001
 34.370    710.009    747.425    -37.416    514.788    747.143    514.788    515.081    514.788
 34.470    619.000    642.882    -23.882    514.576    642.603    514.576    514.865    514.576
 34.570    616.885    582.025     34.860    514.366    581.746    514.366    514.651    514.366
 34.670    504.987    552.232    -47.245    514.156    551.952    514.156    514.439    514.156
 34.770    550.493    538.723     11.770    513.949    538.444    513.949    514.228    513.949
 34.870    547.000    532.164     14.836    513.742    531.887    513.742    514.019    513.742
 34.970    516.000    528.338    -12.338    513.537    528.063    513.537    513.812    513.537
 35.070    482.290    525.698    -43.408    513.334    525.425    513.334    513.606    513.334
 35.170    521.000    523.701     -2.701    513.132    523.430    513.132    513.402    513.132
 35.270    561.000    522.124     38.876    512.931    521.854    512.931    513.200    512.931
 35.370    559.000    520.844     38.156    512.731    520.576    512.731    512.999    512.731
 35.470    498.740    519.784    -21.044    512.534    519.518    512.534    512.800    512.534
 35.570    462.000    518.891    -56.891    512.337    518.625    512.337    512.602    512.337
 35.670    480.906    518.126    -37.220    512.142    517.861    512.142    512.406    512.142
 35.770    502.000    517.462    -15.462    511.948    517.198    511.948    512.212    511.948
 35.870    548.000    516.879     31.121    511.756    516.616    511.756    512.019    511.756
 35.970    534.000    516.362     17.638    511.566    516.100    511.566    511.828    511.566
 36.070    530.000    515.900     14.100    511.376    515.638    511.376    511.638    511.376
 36.170    544.000    515.484     28.516    511.189    515.223    511.189    511.450    511.189
 36.270    498.954    515.109    -16.155    511.002    514.847    511.002    511.264    511.002
 36.370    559.387    514.770     44.618    510.817    514.508    510.817    511.079    510.817
 36.470    489.538    514.464    -24.925    510.634    514.202    510.634    510.895    510.634
 36.570    497.000    514.190    -17.190    510.452    513.928    510.452    510.714    510.452
 36.670    445.000    513.950    -68.950    510.272    513.689    510.272    510.533    510.272
 36.770    484.517    513.750    -29.233    510.093    513.488    510.093    510.355    510.093
 36.870    540.000    513.607     26.393    509.915    513.345    509.915    510.178    509.915
 36.970    518.000    513.569      4.431    509.739    513.306    509.739    510.003    509.739
 37.070    544.087    513.756     30.331    509.565    513.492    509.565    509.829    509.565
 37.170    506.877    514.400     -7.523    509.392    514.136    509.392    509.656    509.392
 37.270    525.000    515.846      9.154    509.220    515.581    509.220    509.486    509.220
 37.370    504.000    518.391    -14.391    509.050    518.125    509.050    509.317    509.050
 37.470    526.856    521.956      4.899    508.882    521.691    508.882    509.149    508.882
 37.570    529.000    525.728      3.272    508.715    525.462    508.715    508.983    508.715
 37.670    500.835    528.116    -27.280    508.549    527.850    508.549    508.819    508.549
 37.770    513.000    527.789    -14.789    508.385    527.525    508.385    508.656    508.385
 37.870    543.877    525.094     18.783    508.223    524.830    508.223    508.495    508.223
 37.970    503.000    521.483    -18.483    508.062    521.220    508.062    508.336    508.062
 38.070    498.000    518.077    -20.077    507.903    517.813    507.903    508.178    507.903
 38.170    517.000    515.312      1.688    507.745    515.045    507.745    508.022    507.745
 38.270    543.496    513.278     30.218    507.589    513.006    507.589    507.867    507.589
 38.370    522.000    511.892     10.108    507.434    511.616    507.434    507.714    507.434
 38.470    483.402    510.991    -27.589    507.280    510.712    507.280    507.563    507.280
 38.570    481.000    510.412    -29.412    507.129    510.129    507.129    507.413    507.129
 38.670    542.000    510.024     31.976    506.978    509.739    506.978    507.265    506.978
 38.770    546.000    509.740     36.260    506.830    509.453    506.830    507.118    506.830
 38.870    476.312    509.510    -33.198    506.683    509.220    506.683    506.973    506.683
 38.970    483.000    509.310    -26.310    506.537    509.018    506.537    506.830    506.537
 39.070    498.000    509.129    -11.129    506.393    508.834    506.393    506.688    506.393
 39.170    523.000    508.961     14.039    506.251    508.664    506.251    506.548    506.251
 39.270    541.720    508.805     32.915    506.110    508.505    506.110    506.409    506.110
 39.370    541.598    508.658     32.940    505.970    508.356    505.970    506.272    505.970
 39.470    472.566    508.520    -35.954    505.832    508.215    505.832    506.137    505.832
 39.570    524.000    508.390     15.610    505.696    508.082    505.696    506.004    505.696
 39.670    505.000    508.267     -3.267    505.561    507.957    505.561    505.872    505.561
 39.770    538.687    508.152     30.535    505.428    507.839    505.428    505.741    505.428
 39.870    544.000    508.044     35.956    505.296    507.727    505.296    505.613    505.296
 39.970    484.000    507.942    -23.942    505.166    507.623    505.166    505.486    505.166
 40.070    468.000    507.848    -39.848    505.037    507.526    505.037    505.361    505.037
 40.170    464.999    507.762    -42.763    504.910    507.436    504.910    505.237    504.910
 40.270    500.000    507.684     -7.684    504.785    507.355    504.785    505.115    504.785
 40.370    457.000    507.615    -50.615    504.661    507.282    504.661    504.995    504.661
 40.470    468.941    507.556    -38.616    504.539    507.219    504.539    504.876    504.539
 40.570    545.881    507.508     38.373    504.418    507.167    504.418    504.759    504.418
 40.670    496.999    507.472    -10.472    504.298    507.127    504.298    504.644    504.298
 40.770    478.175    507.450    -29.275    504.181    507.101    504.181    504.530    504.181
 40.870    549.888    507.445     42.443    504.064    507.092    504.064    504.418    504.064
 40.970    477.000    507.460    -30.460    503.950    507.103    503.950    504.308    503.950
 41.070    491.000    507.499    -16.499    503.837    507.137    503.837    504.199    503.837
 41.170    519.000    507.566     11.434    503.725    507.200    503.725    504.092    503.725
 41.270    495.000    507.671    -12.671    503.615    507.300    503.615    503.987    503.615
 41.370    520.967    507.821     13.147    503.507    507.445    503.507    503.883    503.507
 41.470    517.000    508.031      8.969    503.400    507.650    503.400    503.782    503.400
 41.570    523.000    508.323     14.677    503.294    507.937    503.294    503.682    503.294
 41.670    478.505    508.734    -30.228    503.191    508.342    503.191    503.583    503.191
 41.770    531.269    509.349     21.921    503.088    508.952    503.088    503.487    503.088
 41.870    546.423    510.382     36.042    502.988    509.980    502.988    503.392    502.988
 41.970    480.000    512.351    -32.351    502.888    511.944    502.888    503.299    502.888
 42.070    479.000    516.351    -37.351    502.791    515.940    502.791    503.207    502.791
 42.170    497.053    524.231    -27.178    502.695    523.817    502.695    503.118    502.695
 42.270    542.000    538.232      3.768    502.600    537.818    502.600    503.030    502.600
 42.370    544.000    559.675    -15.675    502.507    559.264    502.507    502.944    502.507
 42.470    590.502    586.883      3.619    502.416    586.479    502.416    502.860    502.416
 42.570    571.627    613.401    -41.773    502.326    613.004    502.326    502.777    502.326
 42.670    631.000    628.638      2.362    502.237    628.244    502.237    502.697    502.237
 42.770    572.000    624.511    -52.511    502.150    624.111    502.150    502.618    502.150
 42.870    595.000    603.487     -8.487    502.065    603.069    502.065    502.541    502.065
 42.970    554.000    575.655    -21.655    501.981    575.214    501.981    502.466    501.981
 43.070    547.010    550.219     -3.209    501.899    549.754    501.899    502.392    501.899
 43.170    554.833    531.624     23.209    501.818    531.139    501.818    502.321    501.818
 43.270    498.269    520.138    -21.868    501.739    519.635    501.739    502.252    501.739
 43.370    557.000    513.891     43.109    501.661    513.374    501.661    502.184    501.661
 43.470    510.000    510.726     -0.726    501.585    510.196    501.585    502.118    501.585
 43.570    535.000    509.096     25.904    501.510    508.554    501.510    502.055    501.510
 43.670    551.000    508.162     42.838    501.437    507.607    501.437    501.993    501.437
 43.770    469.000    507.546    -38.546    501.365    506.979    501.365    501.934    501.365
 43.870    519.000    507.097     11.903    501.295    506.517    501.295    501.876    501.295
 43.970    502.000    506.752     -4.752    501.226    506.159    501.226    501.821    501.226
 44.070    536.000    506.481     29.519    501.159    505.874    501.159    501.768    501.159
 44.170    488.000    506.267    -18.267    501.093    505.644    501.093    501.717    501.093
 44.270    459.000    506.097    -47.097    501.029    505.459    501.029    501.668    501.029
 44.370    475.285    505.963    -30.677    500.966    505.308    500.966    501.621    500.966
 44.470    474.356    505.858    -31.502    500.905    505.187    500.905    501.577    500.905
 44.570    544.706    505.779     38.927    500.845    505.090    500.845    501.535    500.845
 44.670    466.435    505.722    -39.287    500.787    505.014    500.787    501.495    500.787
 44.770    497.932    505.684     -7.752    500.730    504.956    500.730    501.459    500.730
 44.870    532.000    505.664     26.336    500.675    504.915    500.675    501.424    500.675
 44.970    503.464    505.661     -2.196    500.621    504.889    500.621    501.393    500.621
 45.070    508.374    505.673      2.701    500.569    504.878    500.569    501.364    500.569
 45.170    530.000    505.700     24.300    500.518    504.880    500.518    501.338    500.518
 45.270    519.000    505.742     13.258    500.468    504.896    500.468    501.315    500.468
 45.370    534.000    505.799     28.201    500.420    504.924    500.420    501.295    500.420
 45.470    513.000    505.872      7.128    500.374    504.967    500.374    501.279    500.374
 45.570    476.210    505.960    -29.751    500.329    505.023    500.329    501.266    500.329
 45.670    515.000    506.066      8.934    500.285    505.094    500.285    501.257    500.285
 45.770    484.000    506.189    -22.189    500.243    505.180    500.243    501.251    500.243
 45.870    530.000    506.332     23.668    500.202    505.284    500.202    501.250    500.202
 45.970    461.000    506.497    -45.497    500.163    505.405    500.163    501.254    500.163
 46.070    529.000    506.686     22.314    500.125    505.548    500.125    501.262    500.125
 46.170    535.000    506.902     28.098    500.088    505.715    500.088    501.275    500.088
 46.270    504.909    507.150     -2.240    500.053    505.908    500.053    501.294    500.053
 46.370    494.000    507.434    -13.434    500.019    506.134    500.019    501.319    500.019
 46.470    496.000    507.762    -11.762    499.987    506.397    499.987    501.351    499.987
 46.570    485.000    508.142    -23.142    499.956    506.708    499.956    501.390    499.956
 46.670    480.000    508.588    -28.588    499.927    507.077    499.927    501.437    499.927
 46.770    521.000    509.123     11.877    499.899    507.528    499.899    501.493    499.899
 46.870    491.000    509.787    -18.787    499.872    508.098    499.872    501.560    499.872
 46.970    487.000    510.705    -23.705    499.847    508.912    499.847    501.637    499.847
 47.070    527.000    512.117     14.883    499.823    510.209    499.823    501.728    499.823
 47.170    547.774    514.530     33.245    499.801    512.492    499.801    501.833    499.801
 47.270    528.000    518.801      9.199    499.779    516.617    499.779    501.956    499.779
 47.370    515.000    526.064    -11.064    499.760    523.713    499.760    502.098    499.760
 47.470    547.000    537.294      9.706    499.741    534.751    499.741    502.263    499.741
 47.570    540.000    552.499    -12.499    499.724    549.736    499.724    502.456    499.724
 47.670    555.404    569.830    -14.425    499.709    566.814    499.709    502.680    499.709
 47.770    541.514    585.110    -43.596    499.694    581.807    499.694    502.943    499.694
 47.870    577.723    592.753    -15.030    499.681    589.124    499.681    503.253    499.681
 47.970    572.830    589.455    -16.625    499.670    585.452    499.670    503.620    499.670
 48.070    547.728    577.465    -29.737    499.659    573.023    499.659    504.060    499.659
 48.170    548.000    562.231    -14.231    499.650    557.258    499.650    504.593    499.650
 48.270    528.000    548.456    -20.456    499.642    542.824    499.642    505.255    499.642
 48.370    521.122    538.632    -17.510    499.636    532.151    499.636    506.104    499.636
 48.470    528.630    533.275     -4.646    499.631    525.656    499.631    507.244    499.631
 48.570    536.000    531.801      4.199    499.627    522.571    499.627    508.852    499.627
 48.670    537.000    533.421      3.579    499.625    521.815    499.625    511.227    499.625
 48.770    497.000    537.718    -40.718    499.624    522.524    499.624    514.815    499.624
 48.870    555.000    544.804     10.196    499.624    524.210    499.624    520.214    499.624
 48.970    581.000    555.195     25.805    499.625    526.716    499.625    528.100    499.625
 49.070    592.101    569.580     22.521    499.628    530.158    499.628    539.045    499.628
 49.170    611.000    588.695     22.305    499.632    535.090    499.632    553.231    499.632
 49.270    669.000    613.508     55.492    499.637    543.062    499.637    570.074    499.637
 49.370    682.000    646.324     35.676    499.643    558.198    499.643    587.756    499.643
 49.470    683.326    693.347    -10.021    499.651    590.124    499.651    602.850    499.651
 49.570    797.835    768.958     28.877    499.660    657.683    499.660    610.892    499.660
 49.670    869.000    899.433    -30.433    499.670    790.173    499.670    608.852    499.670
 49.770   1169.000   1118.175     50.825    499.681   1020.129    499.681    597.604    499.681
 49.870   1487.000   1444.915     42.085    499.694   1363.344    499.694    581.096    499.694
 49.970   1809.000   1855.453    -46.453    499.708   1791.463    499.708    563.511    499.708
 50.070   2290.000   2262.639     27.361    499.723   2214.587    499.723    547.623    499.723
 50.170   2483.000   2531.812    -48.812    499.739   2496.776    499.739    534.721    499.739
 50.270   2573.000   2547.046     25.954    499.757   2521.829    499.757    525.048    499.757
 50.370   2246.063   2296.805    -50.742    499.775   2278.515    499.775    518.235    499.775
 50.470   1864.000   1885.050    -21.050    499.795   1871.403    499.795    513.645    499.795
 50.570   1475.744   1451.260     24.484    499.816   1440.639    499.816    510.621    499.816
 50.670    989.000   1095.613   -106.613    499.838   1086.969    499.838    508.621    499.838
 50.770    821.201    855.756    -34.554    499.861    848.452    499.861    507.259    499.861
 50.870    678.000    719.993    -41.993    499.886    713.654    499.886    506.287    499.886
 50.970    670.639    654.318     16.321    499.911    648.716    499.911    505.560    499.911
 51.070    603.000    624.752    -21.752    499.938    619.734    499.938    504.995    499.938
 51.170    613.000    608.026      4.974    499.966    603.483    499.966    504.544    499.966
 51.270    569.000    593.200    -24.200    499.995    589.047    499.995    504.177    499.995
 51.370    620.000    578.031     41.969    500.025    574.202    500.025    503.877    500.025
 51.470    578.000    563.816     14.184    500.057    560.259    500.057    503.631    500.057
 51.570    570.702    552.078     18.624    500.089    548.750    500.089    503.428    500.089
 51.670    557.000    543.489     13.511    500.122    540.358    500.122    503.262    500.122
 51.770    536.202    537.885     -1.683    500.157    534.920    500.157    503.126    500.157
 51.870    576.000    534.632     41.368    500.193    531.812    500.193    503.017    500.193
 51.970    593.000    533.029     59.971    500.229    530.332    500.229    502.929    500.229
 52.070    567.000    532.547     34.453    500.267    529.956    500.267    502.861    500.267
 52.170    551.000    532.902     18.098    500.306    530.401    500.306    502.809    500.306
 52.270    528.000    534.039     -6.039    500.346    531.614    500.346    502.772    500.346
 52.370    563.905    536.149     27.756    500.387    533.788    500.387    502.749    500.387
 52.470    519.938    539.808    -19.871    500.429    537.502    500.429    502.737    500.429
 52.570    531.223    546.342    -15.119    500.472    544.079    500.472    502.735    500.472
 52.670    538.000    558.407    -20.407    500.516    556.179    500.516    502.744    500.516
 52.770    556.000    580.625    -24.625    500.561    578.424    500.561    502.761    500.561
 52.870    605.000    619.683    -14.683    500.607    617.501    500.607    502.787    500.607
 52.970    728.000    683.071     44.929    500.654    680.902    500.654    502.820    500.654
 53.070    811.000    775.855     35.145    500.702    773.693    500.702    502.860    500.702
 53.170    889.646    895.924     -6.278    500.751    893.765    500.751    502.908    500.751
 53.270   1009.000   1029.430    -20.430    500.801   1027.273    500.801    502.962    500.801
 53.370   1100.184   1148.829    -48.645    500.852   1146.671    500.852    503.023    500.852
 53.470   1182.853   1218.051    -35.198    500.904   1215.892    500.904    503.090    500.904
 53.570   1161.000   1210.670    -49.670    500.957   1208.504    500.957    503.163    500.957
 53.670   1068.000   1130.036    -62.036    501.010   1127.851    501.010    503.242    501.010
 53.770   1028.552   1006.155     22.397    501.065   1003.937    501.065    503.327    501.065
 53.870    868.000    874.220     -6.220    501.121    871.959    501.121    503.419    501.121
 53.970    758.000    759.251     -1.251    501.177    756.939    501.177    503.517    501.177
 54.070    706.000    672.653     33.347    501.235    670.286    501.235    503.621    501.235
 54.170    586.000    614.847    -28.847    501.293    612.421    501.293    503.732    501.293
 54.270    551.652    580.022    -28.370    501.353    577.531    501.353    503.850    501.353
 54.370    568.000    560.683      7.317    501.413    558.125    501.413    503.975    501.413
 54.470    571.000    550.504     20.496    501.474    547.873    501.474    504.107    501.474
 54.570    579.938    545.264     34.675    501.536    542.554    501.536    504.248    501.536
 54.670    576.000    542.593     33.407    501.598    539.797    501.598    504.396    501.598
 54.770    564.306    541.329     22.978    501.662    538.439    501.662    504.554    501.662
 54.870    543.765    540.956      2.809    501.727    537.964    501.727    504.720    501.727
 54.970    499.470    541.263    -41.793    501.792    538.159    501.792    504.897    501.792
 55.070    511.954    542.175    -30.221    501.858    538.949    501.858    505.085    501.858
 55.170    565.923    543.681     22.242    501.925    540.322    501.925    505.285    501.925
 55.270    532.485    545.816    -13.331    501.993    542.312    501.993    505.498    501.993
 55.370    583.000    548.658     34.342    502.061    544.995    502.061    505.725    502.061
 55.470    526.000    552.349    -26.349    502.131    548.513    502.131    505.967    502.131
 55.570    583.000    557.163     25.837    502.201    553.138    502.201    506.227    502.201
 55.670    570.000    563.676      6.324    502.272    559.443    502.272    506.506    502.272
 55.770    589.000    573.175     15.825    502.343    568.713    502.343    506.805    502.343
 55.870    618.000    588.484     29.516    502.416    583.770    502.416    507.128    502.416
 55.970    650.000    615.355     34.645    502.489    610.361    502.489    507.478    502.489
 56.070    594.000    664.215    -70.215    502.563    658.909    502.563    507.858    502.563
 56.170    751.701    751.299      0.402    502.638    745.645    502.638    508.271    502.638
 56.270    862.000    897.322    -35.322    502.713    891.277    502.713    508.723    502.713
 56.370   1087.000   1121.614    -34.614    502.789   1115.134    502.789    509.219    502.789
 56.470   1392.000   1431.389    -39.389    502.866   1424.429    502.866    509.765    502.866
 56.570   1825.161   1809.064     16.097    502.943   1801.580    502.943    510.370    502.943
 56.670   2121.000   2203.199    -82.199    503.021   2195.150    503.021    511.043    503.021
 56.770   2420.000   2529.385   -109.385    503.100   2520.722    503.100    511.796    503.100
 56.870   2568.000   2691.618   -123.618    503.180   2682.275    503.180    512.642    503.180
 56.970   2617.000   2632.547    -15.547    503.260   2622.413    503.260    513.600    503.260
 57.070   2359.000   2375.584    -16.584    503.341   2364.494    503.341    514.692    503.341
 57.170   1915.610   2005.488    -89.878    503.422   1993.232    503.422    515.947    503.422
 57.270   1772.000   1615.660    156.340    503.504   1601.998    503.504    517.405    503.504
 57.370   1282.949   1273.866      9.083    503.587   1258.515    503.587    519.125    503.587
 57.470   1051.000   1013.104     37.896    503.670    995.704    503.670    521.202    503.670
 57.570    831.918    836.691     -4.772    503.754    816.740    503.754    523.789    503.754
 57.670    724.800    730.142     -5.342    503.839    706.880    503.839    527.150    503.839
 57.770    678.000    673.526      4.474    503.924    645.754    503.924    531.722    503.924
 57.870    705.000    649.995     55.005    504.009    615.816    504.009    538.199    504.009
 57.970    614.000    649.372    -35.372    504.096    605.860    504.096    547.608    504.096
 58.070    626.439    668.119    -41.679    504.182    610.955    504.182    561.338    504.182
 58.170    710.000    707.444      2.556    504.270    630.648    504.270    581.047    504.270
 58.270    792.000    770.715     21.285    504.358    666.627    504.358    608.415    504.358
 58.370    865.000    860.697      4.303    504.446    720.402    504.446    644.699    504.446
 58.470    905.000    976.989    -71.989    504.535    791.334    504.535    690.139    504.535
 58.570   1098.000   1113.989    -15.989    504.624    875.284    504.624    743.273    504.624
 58.670   1201.025   1259.933    -58.908    504.714    964.417    504.714    800.178    504.714
 58.770   1445.178   1397.912     47.266    504.805   1048.971    504.805    853.705    504.805
 58.870   1507.617   1508.856     -1.239    504.895   1120.213    504.895    893.515    504.895
 58.970   1566.587   1575.049     -8.462    504.987   1171.096    504.987    908.940    504.987
 59.070   1561.676   1584.726    -23.050    505.079   1194.773    505.079    895.054    505.079
 59.170   1469.216   1538.023    -68.807    505.171   1186.835    505.171    856.398    505.171
 59.270   1433.791   1449.125    -15.333    505.264   1150.931    505.264    803.501    505.264
 59.370   1366.000   1340.873     25.127    505.357   1099.474    505.357    746.788    505.357
 59.470   1166.797   1236.286    -69.489    505.450   1048.176    505.450    693.567    505.450
 59.570   1207.500   1154.540     52.960    505.544   1012.149    505.544    647.905    505.544
 59.670   1167.000   1111.619     55.381    505.639   1005.815    505.639    611.367    505.639
 59.770   1166.000   1119.482     46.518    505.734   1041.304    505.734    583.782    505.734
 59.870   1230.000   1181.178     48.822    505.829   1122.887    505.829    563.931    505.829
 59.970   1302.884   1285.971     16.913    505.924   1241.506    505.924    550.144    505.924
 60.070   1496.000   1407.987     88.013    506.020   1372.965    506.020    540.756    506.020
 60.170   1449.091   1509.412    -60.321    506.116   1480.866    506.116    534.364    506.116
 60.270   1600.000   1550.701     49.299    506.213   1526.715    506.213    529.923    506.213
 60.370   1543.980   1508.989     34.990    506.310   1488.351    506.310    526.728    506.310
 60.470   1381.796   1391.673     -9.877    506.407   1373.595    506.407    524.332    506.407
 60.570   1287.177   1229.248     57.929    506.505   1213.190    506.505    522.472    506.505
 60.670   1056.000   1057.162     -1.162    506.603   1042.726    506.603    520.994    506.603
 60.770    851.000    903.050    -52.050    506.701    889.921    506.701    519.813    506.701
 60.870    797.348    782.120     15.229    506.799    770.032    506.799    518.883    506.799
 60.970    631.000    698.007    -67.007    506.898    686.724    506.898    518.180    506.898
 61.070    669.000    646.821     22.179    506.997    636.120    506.997    517.695    506.997
 61.170    663.000    622.144     40.856    507.097    611.809    507.097    517.421    507.097
 61.270    627.000    619.077      7.923    507.196    608.902    507.196    517.353    507.196
 61.370    629.713    636.389     -6.676    507.296    626.181    507.296    517.474    507.296
 61.470    688.000    676.644     11.356    507.396    666.244    507.396    517.749    507.396
 61.570    734.000    744.532    -10.532    507.496    733.838    507.496    518.120    507.496
 61.670    888.820    843.711     45.109    507.597    832.714    507.597    518.492    507.597
 61.770    898.000    972.836    -74.836    507.697    961.659    507.697    518.740    507.697
 61.870   1028.000   1122.012    -94.012    507.798   1110.911    507.798    518.735    507.798
 61.970   1240.000   1271.094    -31.094    507.899   1260.403    507.899    518.408    507.899
 62.070   1461.820   1391.241     70.579    508.000   1381.270    508.000    517.790    508.000
 62.170   1387.000   1452.000    -65.000    508.102   1442.960    508.102    516.986    508.102
 62.270   1430.000   1435.008     -5.008    508.203   1426.980    508.203    516.119    508.203
 62.370   1368.000   1345.323     22.677    508.305   1338.280    508.305    515.283    508.305
 62.470   1195.000   1207.874    -12.874    508.407   1201.717    508.407    514.538    508.407
 62.570   1040.000   1053.630    -13.630    508.509   1048.226    508.509    513.913    508.509
 62.670    879.000    908.379    -29.379    508.611    903.588    508.611    513.415    508.611
 62.770    776.997    788.022    -11.026    508.713    783.717    508.713    513.035    508.713
 62.870    716.711    698.385     18.326    508.815    694.459    508.815    512.755    508.815
 62.970    611.962    637.636    -25.674    508.917    634.006    508.917    512.557    508.917
 63.070    627.000    599.810     27.190    509.020    596.415    509.020    512.419    509.020
 63.170    571.000    578.001     -7.001    509.122    574.798    509.122    512.326    509.122
 63.270    531.921    566.389    -34.468    509.225    563.347    509.225    512.265    509.225
 63.370    570.000    561.039      8.961    509.327    558.135    509.327    512.227    509.327
 63.470    578.702    559.898     18.804    509.430    557.116    509.430    512.206    509.430
 63.570    586.538    562.507     24.031    509.533    559.832    509.533    512.199    509.533
 63.670    557.000    569.699    -12.699    509.635    567.120    509.635    512.202    509.635
 63.770    602.000    583.355     18.645    509.738    580.860    509.738    512.215    509.738
 63.870    640.000    606.067     33.933    509.841    603.645    509.841    512.235    509.841
 63.970    658.000    640.529     17.471    509.943    638.168    509.943    512.262    509.943
 64.070    714.956    688.569     26.387    510.046    686.261    510.046    512.295    510.046
 64.170    696.000    749.945    -53.945    510.148    747.681    510.148    512.333    510.148
 64.270    835.000    821.196     13.804    510.251    818.969    510.251    512.377    510.251
 64.370    949.000    894.935     54.065    510.353    892.746    510.353    512.424    510.353
 64.470    941.000    960.151    -19.151    510.456    958.003    510.456    512.476    510.456
 64.570   1009.000   1004.563      4.437    510.558   1002.464    510.558    512.530    510.558
 64.670    980.000   1019.402    -39.402    510.660   1017.362    510.660    512.589    510.660
 64.770   1059.189   1003.327     55.862    510.763   1001.350    510.763    512.652    510.763
 64.870    996.000    961.963     34.037    510.865    960.051    510.865    512.717    510.865
 64.970    863.850    904.883    -41.034    510.967    903.033    510.967    512.786    510.967
 65.070    932.000    842.439     89.561    511.068    840.643    511.068    512.857    511.068
 65.170    824.694    782.929     41.765    511.170    781.179    511.170    512.930    511.170
 65.270    727.000    731.020     -4.020    511.272    729.307    511.272    513.006    511.272
 65.370    723.031    688.020     35.011    511.373    686.337    511.373    513.084    511.373
 65.470    694.838    653.350     41.488    511.475    651.688    511.475    513.164    511.475
 65.570    626.000    625.917      0.083    511.576    624.270    511.576    513.246    511.576
 65.670    637.000    604.650     32.350    511.677    603.015    511.677    513.330    511.677
 65.770    607.000    588.558     18.442    511.777    586.932    511.777    513.416    511.777
 65.870    534.000    576.752    -42.752    511.878    575.134    511.878    513.504    511.878
 65.970    595.000    568.468     26.532    511.978    566.857    511.978    513.593    511.978
 66.070    558.423    563.052     -4.628    512.078    561.447    512.078    513.685    512.078
 66.170    512.503    559.939    -47.436    512.178    558.341    512.178    513.777    512.178
 66.270    508.000    558.663    -50.663    512.278    557.069    512.278    513.872    512.278
 66.370    507.000    558.866    -51.866    512.377    557.276    512.377    513.967    512.377
 66.470    557.510    560.349     -2.839    512.477    558.761    512.477    514.065    512.477
 66.570    574.000    563.118     10.882    512.575    561.530    512.575    514.164    512.575
 66.670    527.000    567.489    -40.489    512.674    565.900    512.674    514.264    512.674
 66.770    559.000    574.289    -15.289    512.773    572.696    512.773    514.367    512.773
 66.870    556.000    585.193    -29.193    512.871    583.594    512.871    514.470    512.871
 66.970    598.000    603.229     -5.229    512.968    601.620    512.968    514.576    512.968
 67.070    587.000    633.344    -46.344    513.066    631.723    513.066    514.683    513.066
 67.170    634.320    682.819    -48.500    513.163    681.183    513.163    514.791    513.163
 67.270    764.000    761.089      2.911    513.260    759.434    513.260    514.902    513.260
 67.370    909.047    878.494     30.554    513.356    876.818    513.356    515.014    513.356
 67.470   1053.000   1043.634      9.366    513.452   1041.939    513.452    515.129    513.452
 67.570   1276.228   1259.533     16.694    513.548   1257.823    513.548    515.245    513.548
 67.670   1500.000   1519.465    -19.465    513.644   1517.749    513.644    515.363    513.644
 67.770   1764.000   1803.783    -39.783    513.739   1802.074    513.739    515.484    513.739
 67.870   2005.000   2079.054    -74.054    513.833   2077.367    513.833    515.606    513.833
 67.970   2385.998   2301.006     84.992    513.928   2299.354    513.928    515.732    513.928
 68.070   2414.514   2424.054     -9.540    514.021   2422.443    514.021    515.860    514.021
 68.170   2479.011   2418.462     60.549    514.115   2416.879    514.115    515.991    514.115
 68.270   2389.000   2285.763    103.237    514.208   2284.178    514.208    516.125    514.208
 68.370   2202.000   2057.818    144.182    514.301   2056.193    514.301    516.262    514.301
 68.470   1800.174   1780.614     19.561    514.393   1778.916    514.393    516.403    514.393
 68.570   1494.000   1497.706     -3.706    514.484   1495.910    514.484    516.548    514.484
 68.670   1299.090   1241.384     57.706    514.576   1239.476    514.576    516.698    514.576
 68.770   1058.031   1030.112     27.919    514.667   1028.088    514.667    516.851    514.667
 68.870    912.000    869.640     42.360    514.757    867.500    514.757    517.011    514.757
 68.970    731.937    756.308    -24.371    514.847    754.056    514.847    517.175    514.847
 69.070    693.000    681.240     11.760    514.936    678.879    514.936    517.346    514.936
 69.170    633.000    634.098     -1.098    515.025    631.630    515.025    517.524    515.025
 69.270    628.000    605.601     22.399    515.113    603.025    515.113    517.710    515.113
 69.370    575.000    588.666    -13.666    515.201    585.977    515.201    517.903    515.201
 69.470    550.596    578.510    -27.914    515.288    575.700    515.288    518.107    515.288
 69.570    609.253    572.210     37.043    515.375    569.271    515.375    518.321    515.375
 69.670    604.000    568.124     35.876    515.461    565.043    515.461    518.547    515.461
 69.770    592.943    565.389     27.554    515.547    562.153    515.547    518.786    515.547
 69.870    609.697    563.568     46.129    515.632    560.162    515.632    519.041    515.632
 69.970    528.457    562.457    -34.000    515.717    558.864    515.717    519.312    515.717
 70.070    569.000    561.960      7.040    515.801    558.159    515.801    519.603    515.801
 70.170    515.211    562.047    -46.836    515.884    558.014    515.884    519.917    515.884
 70.270    581.000    562.743     18.257    515.967    558.454    515.967    520.256    515.967
 70.370    552.000    564.150    -12.150    516.049    559.573    516.049    520.624    516.049
 70.470    545.000    566.493    -21.493    516.130    561.594    516.130    521.027    516.130
 70.570    555.000    570.224    -15.224    516.211    564.962    516.211    521.469    516.211
 70.670    590.000    576.185     13.815    516.292    570.512    516.292    521.959    516.292
 70.770    565.000    585.848    -20.848    516.371    579.705    516.371    522.505    516.371
 70.870    612.000    601.602     10.398    516.450    594.917    516.450    523.120    516.450
 70.970    637.000    627.014      9.986    516.529    619.696    516.529    523.822    516.529
 71.070    617.000    666.911    -49.911    516.606    658.837    516.606    524.641    516.606
 71.170    673.000    727.070    -54.070    516.683    718.073    516.683    525.623    516.683
 71.270    754.000    813.332    -59.332    516.760    803.166    516.760    526.843    516.760
 71.370    868.000    930.062    -62.062    516.835    918.361    516.835    528.425    516.835
 71.470   1021.000   1078.155    -57.155    516.910   1064.360    516.910    530.564    516.910
 71.570   1268.000   1253.037     14.963    516.985   1236.296    516.985    533.554    516.985
 71.670   1448.000   1443.258      4.742    517.058   1422.301    517.058    537.820    517.058
 71.770   1643.573   1630.203     13.370    517.131   1603.204    517.131    543.923    517.131
 71.870   1765.000   1789.527    -24.527    517.203   1753.974    517.203    552.554    517.203
 71.970   1844.000   1895.472    -51.472    517.274   1848.100    517.274    564.467    517.274
 72.070   1969.000   1928.954     40.046    517.345   1865.787    517.345    580.368    517.345
 72.170   1864.000   1886.310    -22.310    517.415   1802.885    517.415    600.738    517.415
 72.270   1908.000   1781.402    126.598    517.484   1673.190    517.484    625.631    517.484
 72.370   1720.000   1638.553     81.447    517.552   1501.612    517.552    654.458    517.552
 72.470   1503.000   1482.889     20.111    517.620   1314.691    517.620    685.803    517.620
 72.570   1354.793   1334.057     20.736    517.686   1134.455    517.686    717.285    517.686
 72.670   1247.909   1203.713     44.196    517.752    975.942    517.752    745.525    517.752
 72.770   1094.000   1095.508     -1.508    517.818    846.883    517.818    766.445    517.818
 72.870   1050.809   1007.067     43.742    517.882    748.722    517.882    776.228    517.882
 72.970    873.000    933.358    -60.358    517.945    678.470    517.945    772.833    517.945
 73.070    888.024    869.820     18.204    518.008    630.799    518.008    757.029    518.008
 73.170    769.020    813.730    -44.710    518.070    599.831    518.070    731.968    518.070
 73.270    781.058    763.942     17.116    518.131    580.328    518.131    701.744    518.131
 73.370    693.000    720.174    -27.174    518.191    568.240    518.191    670.127    518.191
 73.470    716.768    682.504     34.264    518.251    560.770    518.251    639.986    518.251
 73.570    656.432    651.057      5.375    518.309    556.174    518.309    613.194    518.309
 73.670    583.000    625.818    -42.818    518.367    553.465    518.367    590.724    518.367
 73.770    586.000    606.512    -20.512    518.423    552.133    518.423    572.809    518.423
 73.870    633.478    592.597     40.882    518.479    551.935    518.479    559.151    518.479
 73.970    578.957    583.313     -4.356    518.534    552.730    518.534    549.131    518.534
 74.070    599.000    577.771     21.229    518.588    554.377    518.588    542.002    518.588
 74.170    534.154    575.030    -40.876    518.641    556.663    518.641    537.033    518.641
 74.270    552.667    574.144    -21.478    518.694    559.273    518.694    533.596    518.694
 74.370    620.000    574.200     45.800    518.745    561.780    518.745    531.202    518.745
 74.470    580.000    574.345      5.655    518.795    563.687    518.795    529.495    518.795
 74.570    613.000    573.862     39.138    518.845    564.516    518.845    528.235    518.845
 74.670    653.000    572.298     80.702    518.893    563.969    518.893    527.267    518.893
 74.770    622.000    569.569     52.431    518.941    562.058    518.941    526.495    518.941
 74.870    646.000    565.938     80.062    518.988    559.105    518.988    525.859    518.988
 74.970    523.926    561.876    -37.950    519.033    555.619    519.033    525.322    519.033
 75.070    642.000    557.914     84.086    519.078    552.154    519.078    524.863    519.078
 75.170    586.000    554.564     31.436    519.122    549.240    519.122    524.466    519.122
 75.270    559.000    552.308      6.692    519.164    547.367    519.164    524.119    519.164
 75.370    572.000    551.615     20.385    519.206    547.014    519.206    523.815    519.206
 75.470    562.000    552.973      9.027    519.247    548.674    519.247    523.548    519.247
 75.570    601.644    556.908     44.736    519.287    552.880    519.287    523.311    519.287
 75.670    578.000    563.959     14.041    519.326    560.174    519.326    523.102    519.326
 75.770    556.617    574.602    -17.985    519.363    571.034    519.363    522.916    519.363
 75.870    568.659    589.101    -20.443    519.400    585.728    519.400    522.750    519.400
 75.970    620.000    607.330     12.670    519.436    604.132    519.436    522.601    519.436
 76.070    658.000    628.591     29.409    519.471    625.552    519.471    522.469    519.471
 76.170    652.238    651.502      0.736    519.504    648.607    519.504    522.349    519.504
 76.270    711.000    673.969     37.031    519.537    671.207    519.537    522.242    519.537
 76.370    660.902    693.309    -32.406    519.568    690.670    519.568    522.145    519.568
 76.470    679.000    706.595    -27.595    519.599    704.073    519.599    522.058    519.599
 76.570    700.000    711.391    -11.391    519.628    708.979    519.628    521.979    519.628
 76.670    766.000    706.679     59.321    519.657    704.374    519.657    521.907    519.657
 76.770    670.831    693.358    -22.526    519.684    691.153    519.684    521.842    519.684
 76.870    644.000    673.792    -29.792    519.710    671.683    519.710    521.782    519.710
 76.970    665.213    650.885     14.328    519.736    648.864    519.736    521.728    519.736
 77.070    588.000    627.330    -39.330    519.760    625.391    519.760    521.678    519.760
 77.170    615.000    605.235      9.765    519.783    603.371    519.783    521.632    519.783
 77.270    593.747    585.984      7.763    519.804    584.189    519.804    521.590    519.804
 77.370    608.108    570.236     37.872    519.825    568.505    519.825    521.551    519.825
 77.470    564.000    558.079      5.921    519.845    556.405    519.845    521.515    519.845
 77.570    535.000    549.188    -14.188    519.863    547.568    519.863    521.481    519.863
 77.670    496.207    542.970    -46.763    519.881    541.399    519.881    521.450    519.881
 77.770    574.000    538.780     35.220    519.897    537.256    519.897    521.421    519.897
 77.870    488.000    536.034    -48.034    519.912    534.552    519.912    521.393    519.912
 77.970    511.792    534.258    -22.466    519.926    532.816    519.926    521.367    519.926
 78.070    522.000    533.105    -11.105    519.939    531.701    519.939    521.343    519.939
 78.170    486.000    532.342    -46.342    519.951    530.973    519.951    521.320    519.951
 78.270    550.439    531.822     18.616    519.962    530.486    519.962    521.297    519.962
 78.370    528.000    531.462     -3.462    519.971    530.156    519.971    521.276    519.971
 78.470    558.461    531.214     27.247    519.979    529.937    519.979    521.256    519.979
 78.570    569.052    531.061     37.990    519.987    529.811    519.987    521.236    519.987
 78.670    527.000    531.000     -4.000    519.993    529.774    519.993    521.218    519.993
 78.770    569.434    531.040     38.394    519.997    529.837    519.997    521.200    519.997
 78.870    554.000    531.201     22.799    520.001    530.017    520.001    521.184    520.001
 78.970    529.655    531.508     -1.853    520.003    530.342    520.003    521.168    520.003
 79.070    516.485    531.993    -15.508    520.005    530.841    520.005    521.155    520.005
 79.170    522.000    532.690    -10.690    520.005    531.549    520.005    521.144    520.005
 79.270    554.000    533.629     20.371    520.003    532.495    520.003    521.136    520.003
 79.370    534.000    534.840     -0.840    520.001    533.707    520.001    521.132    520.001
 79.470    539.000    536.347      2.653    519.998    535.208    519.998    521.133    519.998
 79.570    501.000    538.177    -37.177    519.993    537.025    519.993    521.141    519.993
 79.670    576.000    540.375     35.625    519.987    539.200    519.987    521.157    519.987
 79.770    520.000    543.018    -23.018    519.980    541.811    519.980    521.181    519.980
 79.870    516.000    546.239    -30.239    519.971    544.989    519.971    521.215    519.971
 79.970    537.313    550.258    -12.944    519.962    548.955    519.962    521.259    519.962
 80.070    566.000    555.406     10.594    519.951    554.042    519.951    521.310    519.951
 80.170    580.135    562.127     18.008    519.939    560.696    519.939    521.367    519.939
 80.270    543.096    570.929    -27.832    519.925    569.427    519.925    521.426    519.925
 80.370    531.000    582.278    -51.278    519.911    580.709    519.911    521.481    519.911
 80.470    586.972    596.480     -9.508    519.895    594.853    519.895    521.527    519.895
 80.570    569.653    613.562    -43.909    519.878    611.894    519.878    521.554    519.878
 80.670    582.000    633.189    -51.189    519.860    631.507    519.860    521.555    519.860
 80.770    687.000    654.623     32.377    519.840    652.956    519.840    521.527    519.840
 80.870    648.000    676.745    -28.745    519.819    675.121    519.819    521.469    519.819
 80.970    721.000    698.176     22.824    519.797    696.621    519.797    521.384    519.797
 81.070    715.000    717.476     -2.476    519.774    716.007    519.774    521.282    519.774
 81.170    786.043    733.332     52.711    519.749    731.959    519.749    521.168    519.749
 81.270    765.000    744.683     20.317    519.723    743.407    519.723    521.051    519.723
 81.370    697.377    750.804    -53.427    519.696    749.622    519.696    520.936    519.696
 81.470    707.158    751.389    -44.231    519.668    750.294    519.668    520.826    519.668
 81.570    721.194    746.565    -25.371    519.638    745.547    519.638    520.723    519.638
 81.670    770.714    736.841     33.873    519.607    735.887    519.607    520.629    519.607
 81.770    766.000    723.081     42.919    519.575    722.180    519.575    520.545    519.575
 81.870    746.961    706.473     40.489    519.542    705.614    519.542    520.468    519.542
 81.970    704.396    688.355     16.041    519.507    687.529    519.507    520.399    519.507
 82.070    673.000    669.945      3.055    519.471    669.142    519.471    520.336    519.471
 82.170    677.000    652.113     24.887    519.433    651.328    519.433    520.277    519.433
 82.270    592.833    635.343    -42.510    519.395    634.571    519.395    520.221    519.395
 82.370    654.000    619.830     34.170    519.355    619.067    519.355    520.168    519.355
 82.470    610.000    605.657      4.343    519.314    604.898    519.314    520.117    519.314
 82.570    577.464    592.915    -15.451    519.271    592.159    519.271    520.066    519.271
 82.670    584.000    581.743      2.257    519.227    580.987    519.227    520.015    519.227
 82.770    599.373    572.296     27.077    519.182    571.539    519.182    519.964    519.182
 82.870    594.000    564.717     29.283    519.136    563.959    519.136    519.913    519.136
 82.970    566.000    559.119      6.881    519.088    558.358    519.088    519.861    519.088
 83.070    522.000    555.566    -33.566    519.039    554.801    519.039    519.808    519.039
 83.170    528.000    554.058    -26.058    518.989    553.289    518.989    519.755    518.989
 83.270    525.000    554.502    -29.502    518.937    553.728    518.937    519.700    518.937
 83.370    543.000    556.694    -13.694    518.884    555.915    518.884    519.645    518.884
 83.470    558.000    560.305     -2.305    518.830    559.521    518.830    519.589    518.830
 83.570    502.000    564.881    -62.881    518.774    564.092    518.774    519.532    518.774
 83.670    526.000    569.857    -43.857    518.717    569.063    518.717    519.474    518.717
 83.770    589.000    574.585     14.415    518.659    573.787    518.659    519.415    518.659
 83.870    565.091    578.391    -13.300    518.600    577.591    518.600    519.355    518.600
 83.970    575.982    580.662     -4.680    518.539    579.861    518.539    519.294    518.539
 84.070    613.020    580.972     32.048    518.477    580.172    518.477    519.232    518.477
 84.170    617.976    579.191     38.785    518.413    578.393    518.413    519.169    518.413
 84.270    601.724    575.524     26.200    518.349    574.730    518.349    519.105    518.349
 84.370    593.000    570.423     22.577    518.282    569.632    518.282    519.040    518.282
 84.470    511.000    564.453    -53.453    518.215    563.666    518.215    518.974    518.215
 84.570    537.838    558.172    -20.334    518.146    557.389    518.146    518.907    518.146
 84.670    526.118    552.060    -25.942    518.076    551.280    518.076    518.838    518.076
 84.770    545.000    546.478     -1.478    518.005    545.700    518.005    518.769    518.005
 84.870    523.625    541.656    -18.030    517.932    540.878    517.932    518.699    517.932
 84.970    539.000    537.698      1.302    517.859    536.921    517.859    518.628    517.859
 85.070    514.000    534.606    -20.606    517.783    533.828    517.783    518.555    517.783
 85.170    522.000    532.309    -10.309    517.707    531.529    517.707    518.482    517.707
 85.270    530.000    530.694     -0.694    517.629    529.911    517.629    518.408    517.629
 85.370    528.000    529.639     -1.639    517.550    528.853    517.550    518.332    517.550
 85.470    469.000    529.035    -60.035    517.469    528.244    517.469    518.256    517.469
 85.570    516.000    528.798    -12.798    517.387    528.003    517.387    518.178    517.387
 85.670    562.000    528.883     33.117    517.304    528.082    517.304    518.100    517.304
 85.770    521.000    529.285     -8.285    517.220    528.479    517.220    518.020    517.220
 85.870    523.000    530.045     -7.045    517.134    529.233    517.134    517.940    517.134
 85.970    529.000    531.246     -2.246    517.047    530.426    517.047    517.859    517.047
 86.070    559.000    533.007     25.993    516.959    532.179    516.959    517.776    516.959
 86.170    509.000    535.512    -26.512    516.869    534.674    516.869    517.693    516.869
 86.270    513.000    538.961    -25.961    516.778    538.112    516.778    517.608    516.778
 86.370    530.736    543.551    -12.815    516.686    542.689    516.686    517.523    516.686
 86.470    570.000    549.462     20.538    516.592    548.585    516.592    517.437    516.592
 86.570    563.153    556.817      6.336    516.497    555.923    516.497    517.350    516.497
 86.670    568.433    565.629      2.803    516.401    564.717    516.401    517.262    516.401
 86.770    564.000    575.765    -11.765    516.304    574.833    516.304    517.173    516.304
 86.870    615.234    586.907     28.327    516.205    585.953    516.205    517.083    516.205
 86.970    610.000    598.535     11.465    516.105    597.560    516.105    516.992    516.105
 87.070    613.860    609.935      3.925    516.004    608.939    516.004    516.901    516.004
 87.170    642.589    620.232     22.357    515.901    619.216    515.901    516.809    515.901
 87.270    672.000    628.472     43.528    515.797    627.440    515.797    516.716    515.797
 87.370    663.000    633.773     29.227    515.692    632.728    515.692    516.622    515.692
 87.470    662.000    635.524     26.476    515.585    634.469    515.585    516.528    515.585
 87.570    657.682    633.567     24.115    515.478    632.507    515.478    516.433    515.478
 87.670    662.000    628.243     33.757    515.369    627.180    515.369    516.337    515.369
 87.770    589.015    620.283    -31.268    515.258    619.219    515.258    516.241    515.258
 87.870    590.386    610.632    -20.246    515.147    609.568    515.147    516.142    515.147
 87.970    625.000    600.292     24.708    515.034    599.226    515.034    516.044    515.034
 88.070    595.000    590.209      4.791    514.920    589.140    514.920    515.947    514.920
 88.170    604.000    581.201     22.799    514.805    580.127    514.805    515.848    514.805
 88.270    577.000    573.908      3.092    514.688    572.827    514.688    515.750    514.688
 88.370    605.000    568.771     36.229    514.570    567.680    514.570    515.651    514.570
 88.470    579.000    566.016     12.984    514.451    564.914    514.451    515.552    514.451
 88.570    528.000    565.670    -37.670    514.331    564.555    514.331    515.452    514.331
 88.670    549.000    567.569    -18.569    514.209    566.439    514.209    515.353    514.209
 88.770    547.707    571.378    -23.671    514.086    570.233    514.086    515.253    514.086
 88.870    588.350    576.620     11.730    513.962    575.457    513.962    515.154    513.962
 88.970    546.104    582.692    -36.588    513.837    581.511    513.837    515.055    513.837
 89.070    548.846    588.905    -40.059    513.711    587.703    513.711    514.957    513.711
 89.170    609.556    594.520     15.036    513.583    593.295    513.583    514.858    513.583
 89.270    645.048    598.812     46.236    513.454    597.562    513.454    514.761    513.454
 89.370    598.717    601.167     -2.450    513.324    599.888    513.324    514.664    513.324
 89.470    611.000    601.193      9.807    513.193    599.880    513.193    514.568    513.193
 89.570    633.852    598.807     35.045    513.060    597.457    513.060    514.474    513.060
 89.670    557.144    594.249    -37.105    512.926    592.857    512.926    514.380    512.926
 89.770    581.637    587.995     -6.358    512.791    586.555    512.791    514.289    512.791
 89.870    584.000    580.636      3.364    512.655    579.144    512.655    514.199    512.655
 89.970    574.820    572.768      2.052    512.518    571.219    512.518    514.112    512.518
 90.070    607.000    564.924     42.076    512.380    563.315    512.380    514.027    512.380
 90.170    591.000    557.529     33.471    512.240    555.855    512.240    513.945    512.240
 90.270    543.000    550.857     -7.857    512.099    549.114    512.099    513.867    512.099
 90.370    525.000    545.155    -20.155    511.957    543.338    511.957    513.794    511.957
 90.470    536.000    540.485     -4.485    511.814    538.589    511.814    513.725    511.814
 90.570    579.000    536.812     42.188    511.670    534.830    511.670    513.663    511.670
 90.670    479.000    534.055    -55.055    511.524    531.978    511.524    513.608    511.524
 90.770    552.869    532.099     20.769    511.378    529.919    511.378    513.563    511.378
 90.870    509.000    530.818    -21.818    511.230    528.521    511.230    513.530    511.230
 90.970    584.000    530.096     53.904    511.081    527.666    511.081    513.513    511.081
 91.070    481.000    529.845    -48.845    510.932    527.259    510.932    513.518    510.932
 91.170    541.880    530.012     11.868    510.781    527.240    510.781    513.552    510.781
 91.270    547.000    530.587     16.413    510.628    527.590    510.628    513.624    510.628
 91.370    517.000    531.604    -14.604    510.475    528.329    510.475    513.748    510.475
 91.470    544.000    533.147     10.853    510.321    529.524    510.321    513.941    510.321
 91.570    536.000    535.349      0.651    510.166    531.284    510.166    514.226    510.166
 91.670    509.000    538.387    -29.387    510.009    533.762    510.009    514.628    510.009
 91.770    510.000    542.483    -32.483    509.852    537.146    509.852    515.180    509.852
 91.870    562.000    547.891     14.109    509.693    541.655    509.693    515.917    509.693
 91.970    542.000    554.875    -12.875    509.533    547.513    509.533    516.879    509.533
 92.070    553.000    563.699    -10.699    509.373    554.948    509.373    518.104    509.373
 92.170    589.000    574.597     14.403    509.211    564.152    509.211    519.630    509.211
 92.270    567.000    587.724    -20.724    509.048    575.251    509.048    521.490    509.048
 92.370    605.000    603.132      1.868    508.884    588.278    508.884    523.700    508.884
 92.470    599.986    620.745    -20.760    508.720    603.157    508.720    526.263    508.720
 92.570    575.000    640.332    -65.332    508.554    619.674    508.554    529.160    508.554
 92.670    644.083    661.488    -17.405    508.387    637.470    508.387    532.346    508.387
 92.770    717.647    683.636     34.011    508.219    656.042    508.219    535.748    508.219
 92.870    719.961    706.041     13.920    508.050    674.764    508.050    539.258    508.050
 92.970    707.000    727.868    -20.868    507.881    692.943    507.881    542.731    507.881
 93.070    757.142    748.273      8.868    507.710    709.919    507.710    545.987    507.710
 93.170    832.000    766.545     65.455    507.538    725.189    507.538    548.817    507.538
 93.270    783.000    782.215      0.785    507.366    738.511    507.366    550.992    507.366
 93.370    807.043    795.110     11.933    507.192    749.920    507.192    552.306    507.192
 93.470    804.362    805.328     -0.966    507.018    759.665    507.018    552.607    507.018
 93.570    836.325    813.174     23.150    506.842    768.097    506.842    551.848    506.842
 93.670    819.207    819.101      0.106    506.666    775.604    506.666    550.094    506.666
 93.770    808.000    823.689    -15.689    506.489    782.608    506.489    547.504    506.489
 93.870    773.801    827.638    -53.837    506.311    789.592    506.311    544.293    506.311
 93.970    857.000    831.734     25.266    506.132    797.117    506.132    540.687    506.132
 94.070    889.146    836.733     52.413    505.952    805.732    505.952    536.893    505.952
 94.170    836.067    843.190     -7.123    505.771    815.816    505.771    533.086    505.771
 94.270    845.000    851.273     -6.273    505.590    827.400    505.590    529.406    505.590
 94.370    901.980    860.660     41.320    505.407    840.058    505.407    525.955    505.407
 94.470    860.000    870.512    -10.512    505.224    852.882    505.224    522.802    505.224
 94.570    907.000    879.534     27.466    505.040    864.538    505.040    519.989    505.040
 94.670    890.252    886.180      4.072    504.855    873.463    504.855    517.532    504.855
 94.770    893.000    888.807      4.193    504.670    878.019    504.670    515.424    504.670
 94.870    909.892    886.014     23.878    504.483    876.827    504.483    513.645    504.483
 94.970    907.000    876.964     30.036    504.296    869.079    504.296    512.164    504.296
 95.070    823.918    861.597    -37.680    504.108    854.753    504.108    510.943    504.108
 95.170    879.000    840.652     38.348    503.919    834.627    503.919    509.944    503.919
 95.270    760.171    815.507    -55.335    503.730    810.115    503.730    509.126    503.730
 95.370    817.000    787.933     29.067    503.540    783.026    503.540    508.456    503.540
 95.470    777.000    759.866     17.134    503.349    755.325    503.349    507.901    503.349
 95.570    762.631    733.237     29.393    503.157    728.970    503.157    507.436    503.157
 95.670    760.329    709.868     50.461    502.965    705.802    502.965    507.041    502.965
 95.770    702.000    691.406     10.594    502.772    687.486    502.772    506.698    502.772
 95.870    705.000    679.284     25.716    502.579    675.468    502.579    506.395    502.579
 95.970    664.823    674.729     -9.906    502.384    670.984    502.384    506.123    502.384
 96.070    679.000    678.763      0.237    502.189    675.063    502.189    505.875    502.189
 96.170    680.000    692.215    -12.215    501.994    688.538    501.994    505.647    501.994
 96.270    731.874    715.703     16.171    501.798    712.031    501.798    505.435    501.798
 96.370    803.000    749.595     53.405    501.601    745.914    501.601    505.237    501.601
 96.470    752.587    793.933    -41.346    501.403    790.229    501.403    505.051    501.403
 96.570    801.000    848.325    -47.325    501.206    844.586    501.206    504.876    501.206
 96.670    884.000    911.836    -27.836    501.007    908.051    501.007    504.713    501.007
 96.770    925.350    982.891    -57.541    500.808    979.051    500.808    504.560    500.808
 96.870   1032.000   1059.208    -27.208    500.608   1055.304    500.608    504.417    500.608
 96.970   1102.263   1137.785    -35.522    500.408   1133.809    500.408    504.285    500.408
 97.070   1213.000   1214.950     -1.950    500.208   1210.895    500.208    504.163    500.208
 97.170   1248.000   1286.493    -38.493    500.007   1282.351    500.007    504.053    500.007
 97.270   1359.000   1347.924     11.076    499.805   1343.689    499.805    503.954    499.805
 97.370   1347.780   1394.904    -47.124    499.603   1390.567    499.603    503.868    499.603
 97.470   1411.752   1423.844    -12.092    499.400   1419.397    499.400    503.794    499.400
 97.570   1447.000   1432.549     14.451    499.197   1427.979    499.197    503.735    499.197
 97.670   1480.000   1420.651     59.349    498.994   1415.942    498.994    503.692    498.994
 97.770   1326.801   1389.635    -62.834    498.790   1384.769    498.790    503.667    498.790
 97.870   1284.000   1342.449    -58.449    498.586   1337.403    498.586    503.661    498.586
 97.970   1302.806   1282.936     19.870    498.382   1277.681    498.382    503.679    498.382
 98.070   1234.000   1215.299     18.701    498.177   1209.804    498.177    503.725    498.177
 98.170   1144.000   1143.706      0.294    497.971   1137.933    497.971    503.803    497.971
 98.270   1064.000   1072.079     -8.079    497.766   1065.982    497.766    503.924    497.766
 98.370   1013.211   1003.880      9.332    497.560    997.401    497.560    504.097    497.560
 98.470    981.000    942.041     38.959    497.354    935.111    497.354    504.337    497.354
 98.570    889.683    888.959      0.724    497.147    881.487    497.147    504.665    497.147
 98.670    928.000    846.510     81.490    496.940    838.380    496.940    505.107    496.940
 98.770    808.000    816.108     -8.108    496.733    807.170    496.733    505.698    496.733
 98.870    786.000    798.787    -12.787    496.526    788.848    496.526    506.482    496.526
 98.970    769.000    795.286    -26.286    496.319    784.095    496.319    507.517    496.319
 99.070    814.000    806.116      7.884    496.111    793.355    496.111    508.869    496.111
 99.170    893.000    831.600     61.400    495.903    816.872    495.903    510.621    495.903
 99.270    889.000    871.869     17.131    495.695    854.681    495.695    512.866    495.695
 99.370    974.985    926.816     48.169    495.487    906.572    495.487    515.708    495.487
 99.470   1007.000    996.017     10.983    495.279    972.011    495.279    519.259    495.279
 99.570   1119.000   1078.633     40.367    495.070   1050.045    495.070    523.632    495.070
 99.670   1218.000   1173.304     44.696    494.862   1139.209    494.862    528.934    494.862
 99.770   1257.000   1278.052    -21.052    494.653   1237.432    494.653    535.258    494.653
 99.870   1368.000   1390.216    -22.216    494.445   1341.986    494.445    542.670    494.445
 99.970   1435.461   1506.430    -70.969    494.236   1449.479    494.236    551.199    494.236
100.070   1622.000   1622.700     -0.700    494.027   1555.932    494.027    560.827    494.027
100.170   1770.504   1734.586     35.917    493.819   1656.986    493.819    571.474    493.819
100.270   1975.000   1837.533    137.467    493.610   1748.231    493.610    582.993    493.610
100.370   1852.885   1927.262    -74.377    493.401   1825.612    493.401    595.160    493.401
100.470   2012.000   2000.116     11.884    493.193   1885.776    493.193    607.668    493.193
100.570   2088.000   2053.236     34.764    492.984   1926.256    492.984    620.126    492.984
100.670   2080.000   2084.562     -4.562    492.776   1945.467    492.776    632.055    492.776
100.770   2128.000   2092.808     35.192    492.567   1942.675    492.567    642.904    492.567
100.870   2059.000   2077.578    -18.578    492.359   1918.085    492.359    652.070    492.359
100.970   2120.878   2039.627     81.250    492.151   1873.048    492.151    658.957    492.151
101.070   2092.000   1981.119    110.881    491.943   1810.244    491.943    663.047    491.943
101.170   1956.000   1905.646     50.354    491.736   1733.611    491.736    663.997    491.736
101.270   1867.695   1817.919     49.776    491.528   1647.955    491.528    661.711    491.528
101.370   1733.000   1723.203      9.797    491.321   1558.370    491.321    656.360    491.321
101.470   1550.000   1626.713    -76.713    491.114   1469.670    491.114    648.349    491.114
101.570   1490.000   1533.109    -43.109    490.907   1385.965    490.907    638.226    490.907
101.670   1403.514   1446.160    -42.646    490.701   1310.418    490.701    626.599    490.701
101.770   1327.242   1368.562    -41.321    490.494   1245.136    490.494    614.061    490.494
101.870   1246.306   1301.880    -55.574    490.289   1191.151    490.289    601.142    490.289
101.970   1192.571   1246.575    -54.004    490.083   1148.471    490.083    588.298    490.083
102.070   1141.000   1202.101    -61.101    489.878   1116.185    489.878    575.894    489.878
102.170   1183.403   1167.049     16.354    489.673   1092.601    489.673    564.213    489.673
102.270   1124.000   1139.340    -15.340    489.469   1075.439    489.469    553.455    489.469
102.370   1163.147   1116.460     46.686    489.265   1062.061    489.265    543.748    489.265
102.470   1130.000   1095.749     34.251    489.062   1049.742    489.062    535.151    489.062
102.570   1047.000   1074.717    -27.717    488.859   1035.990    488.859    527.669    488.859
102.670   1006.000   1051.364    -45.364    488.656   1018.847    488.656    521.259    488.656
102.770   1030.000   1024.413      5.587    488.455    997.107    488.455    515.846    488.455
102.870    951.595    993.390    -41.795    488.253    970.395    488.253    511.333    488.253
102.970    924.000    958.536    -34.536    488.052    939.063    488.052    507.610    488.052
103.070    912.007    920.622     -8.616    487.852    903.993    487.852    504.563    487.852
103.170    929.172    880.727     48.445    487.653    866.375    487.653    502.083    487.653
103.270    800.513    840.037    -39.524    487.454    827.496    487.454    500.068    487.454
103.370    781.000    799.743    -18.743    487.256    788.637    487.256    498.428    487.256
103.470    767.000    760.907      6.093    487.058    750.939    487.058    497.085    487.058
103.570    740.000    724.421     15.579    486.861    715.360    486.861    495.975    486.861
103.670    712.000    690.969     21.031    486.665    682.635    486.665    495.045    486.665
103.770    666.000    661.007      4.993    486.470    653.262    486.470    494.254    486.470
103.870    612.456    634.768    -22.312    486.275    627.507    486.275    493.568    486.275
103.970    628.000    612.283     15.717    486.082    605.426    486.082    492.965    486.082
104.070    590.000    593.415     -3.415    485.889    586.901    485.889    492.425    485.889
104.170    575.631    577.902     -2.271    485.697    571.681    485.697    491.934    485.697
104.270    591.576    565.398     26.178    485.505    559.433    485.505    491.483    485.505
104.370    564.759    555.515      9.244    485.315    549.775    485.315    491.065    485.315
104.470    564.208    547.861     16.347    485.126    542.321    485.126    490.673    485.126
104.570    586.889    542.062     44.827    484.938    536.701    484.938    490.303    484.938
104.670    569.473    537.780     31.693    484.750    532.584    484.750    489.949    484.750
104.770    541.000    534.742      6.258    484.564    529.690    484.564    489.616    484.564
104.870    511.000    532.716    -21.716    484.378    527.794    484.378    489.300    484.378
104.970    542.000    531.533     10.467    484.194    526.727    484.194    488.998    484.194
105.070    555.000    531.078     23.922    484.011    526.376    484.011    488.710    484.011
105.170    526.000    531.285     -5.285    483.829    526.676    483.829    488.433    483.829
105.270    545.430    532.135     13.296    483.648    527.609    483.648    488.168    483.648
105.370    546.000    533.652     12.348    483.468    529.200    483.468    487.913    483.468
105.470    576.851    535.890     40.961    483.290    531.504    483.290    487.667    483.290
105.570    589.000    538.926     50.074    483.112    534.606    483.112    487.421    483.112
105.670    556.000    542.879     13.121    482.936    538.609    482.936    487.193    482.936
105.770    541.213    547.848     -6.634    482.762    543.619    482.762    486.975    482.762
105.870    566.000    553.929     12.071    482.588    549.734    482.588    486.765    482.588
105.970    569.000    561.195      7.805    482.416    557.027    482.416    486.562    482.416
106.070    585.623    569.678     15.945    482.245    565.530    482.245    486.368    482.245
106.170    576.000    579.357     -3.357    482.076    575.224    482.076    486.181    482.076
106.270    570.000    590.150    -20.150    481.908    586.025    481.908    486.000    481.908
106.370    613.000    601.902     11.098    481.741    597.781    481.741    485.827    481.741
106.470    627.000    614.390     12.610    481.576    610.267    481.576    485.661    481.576
106.570    672.741    627.319     45.421    481.413    623.190    481.413    485.502    481.413
106.670    635.000    640.335     -5.335    481.251    636.194    481.251    485.349    481.251
106.770    599.000    653.034    -54.034    481.090    648.877    481.090    485.202    481.090
106.870    622.226    664.984    -42.757    480.931    660.807    480.931    485.063    480.931
106.970    629.840    675.751    -45.911    480.774    671.550    480.774    484.930    480.774
107.070    736.064    684.940     51.123    480.618    680.712    480.618    484.803    480.618
107.170    666.476    692.243    -25.767    480.464    687.982    480.464    484.683    480.464
107.270    667.000    697.486    -30.486    480.312    693.190    480.312    484.570    480.312
107.370    668.000    700.674    -32.674    480.162    696.337    480.162    484.463    480.162
107.470    663.523    701.992    -38.469    480.013    697.610    480.013    484.364    480.013
107.570    673.696    701.780    -28.085    479.866    697.348    479.866    484.271    479.866
107.670    626.000    700.479    -74.479    479.721    695.992    479.721    484.185    479.721
107.770    661.000    698.562    -37.562    479.578    694.014    479.578    484.107    479.578
107.870    714.000    696.476     17.524    479.437    691.863    479.437    484.036    479.437
107.970    683.000    694.597    -11.597    479.297    689.912    479.297    483.973    479.297
108.070    619.000    693.196    -74.196    479.160    688.433    479.160    483.917    479.160
108.170    671.367    692.422    -21.055    479.024    687.574    479.024    483.870    479.024
108.270    655.000    692.289    -37.289    478.891    687.351    478.891    483.831    478.891
108.370    696.000    692.683      3.317    478.760    687.648    478.760    483.801    478.760
108.470    668.000    693.365    -25.365    478.630    688.225    478.630    483.779    478.630
108.570    648.910    693.993    -45.084    478.503    688.742    478.503    483.767    478.503
108.670    694.000    694.157     -0.157    478.378    688.786    478.378    483.765    478.378
108.770    701.000    693.403      7.597    478.256    687.904    478.256    483.773    478.256
108.870    733.346    691.361     41.985    478.135    685.725    478.135    483.792    478.135
108.970    674.000    687.744    -13.744    478.017    681.962    478.017    483.821    478.017
109.070    687.000    682.370      4.630    477.901    676.432    477.901    483.863    477.901
109.170    672.134    675.237     -3.102    477.787    669.132    477.787    483.916    477.787
109.270    639.000    666.492    -27.492    477.675    660.210    477.675    483.983    477.675
109.370    631.000    656.402    -25.402    477.566    649.930    477.566    484.064    477.566
109.470    635.000    645.306    -10.306    477.460    638.632    477.460    484.159    477.460
109.570    642.000    633.575      8.425    477.356    626.684    477.356    484.269    477.356
109.670    623.000    621.579      1.421    477.254    614.458    477.254    484.396    477.254
109.770    597.000    609.668    -12.668    477.155    602.302    477.155    484.541    477.155
109.870    589.000    598.153     -9.153    477.058    590.524    477.058    484.705    477.058
109.970    569.000    587.297    -18.297    476.964    579.388    476.964    484.889    476.964
110.070    630.000    577.309     52.691    476.873    569.099    476.873    485.096    476.873
110.170    602.018    568.340     33.679    476.784    559.808    476.784    485.327    476.784
110.270    513.000    560.485    -47.485    476.698    551.607    476.698    485.585    476.698
110.370    575.000    553.787     21.213    476.615    544.535    476.615    485.874    476.615
110.470    563.000    548.244     14.756    476.535    538.586    476.535    486.198    476.535
110.570    565.000    543.816     21.184    476.457    533.715    476.457    486.561    476.457
110.670    544.308    540.436      3.872    476.382    529.850    476.382    486.970    476.382
110.770    515.931    538.019    -22.088    476.310    526.895    476.310    487.434    476.310
110.870    513.118    536.470    -23.352    476.241    524.748    476.241    487.963    476.241
110.970    552.000    535.695     16.305    476.175    523.298    476.175    488.570    476.175
111.070    575.916    535.604     40.312    476.112    522.440    476.112    489.272    476.112
111.170    550.066    536.117     13.949    476.052    522.074    476.052    490.091    476.052
111.270    544.000    537.171      6.829    475.995    522.107    475.995    491.054    475.995
111.370    544.604    538.716      5.888    475.941    522.459    475.941    492.193    475.941
111.470    543.000    540.725      2.275    475.890    523.060    475.890    493.548    475.890
111.570    526.880    543.187    -16.307    475.843    523.854    475.843    495.169    475.843
111.670    568.000    546.115     21.885    475.799    524.792    475.799    497.114    475.799
111.770    552.335    549.541      2.794    475.758    525.839    475.758    499.452    475.758
111.870    527.000    553.520    -26.520    475.720    526.970    475.720    502.262    475.720
111.970    551.000    558.129     -7.129    475.685    528.172    475.685    505.634    475.685
112.070    551.000    563.464    -12.464    475.654    529.440    475.654    509.669    475.654
112.170    593.000    569.641     23.359    475.627    530.780    475.627    514.479    475.627
112.270    551.000    576.793    -25.793    475.602    532.208    475.602    520.179    475.602
112.370    614.000    585.065     28.935    475.582    533.745    475.582    526.892    475.582
112.470    605.083    594.607     10.476    475.564    535.422    475.564    534.740    475.564
112.570    570.315    605.578    -35.263    475.551    537.277    475.551    543.842    475.551
112.670    622.668    618.132      4.537    475.541    539.358    475.541    554.304    475.541
112.770    635.000    632.419      2.581    475.535    541.726    475.535    566.217    475.535
112.870    669.943    648.584     21.359    475.532    544.457    475.532    579.648    475.532
112.970    690.000    666.760     23.240    475.533    547.652    475.533    594.629    475.533
113.070    667.000    687.073    -20.073    475.538    551.444    475.538    611.154    475.538
113.170    748.000    709.645     38.355    475.546    556.006    475.546    629.172    475.546
113.270    718.000    734.599    -16.599    475.559    561.568    475.559    648.574    475.559
113.370    774.154    762.073     12.081    475.575    568.435    475.575    669.196    475.575
113.470    778.000    792.234    -14.234    475.596    577.003    475.596    690.808    475.596
113.570    834.000    825.300      8.700    475.620    587.786    475.620    713.112    475.620
113.670    828.000    861.560    -33.560    475.649    601.442    475.649    735.741    475.649
113.770    898.000    901.406     -3.406    475.681    618.798    475.681    758.257    475.681
113.870    964.000    945.361     18.639    475.718    640.887    475.718    780.154    475.718
113.970   1010.772    994.112     16.660    475.758    668.964    475.758    800.860    475.758
114.070   1013.000   1048.549    -35.549    475.803    704.540    475.803    819.755    475.803
114.170   1087.000   1109.799    -22.799    475.852    749.388    475.852    836.194    475.852
114.270   1151.148   1179.271    -28.123    475.906    805.549    475.906    849.541    475.906
114.370   1271.000   1258.689     12.311    475.964    875.320    475.964    859.225    475.964
114.470   1415.963   1350.117     65.846    476.026    961.213    476.026    864.797    476.026
114.570   1526.219   1455.952     70.266    476.092   1065.898    476.092    865.985    476.092
114.670   1542.000   1578.876    -36.876    476.164   1192.113    476.164    862.730    476.164
114.770   1702.552   1721.738    -19.187    476.239   1342.542    476.239    855.201    476.239
114.870   1922.352   1887.386     34.966    476.319   1519.665    476.319    843.762    476.319
114.970   2132.083   2078.441     53.642    476.404   1725.586    476.404    828.931    476.404
115.070   2235.730   2297.044    -61.313    476.493   1961.838    476.493    811.320    476.493
115.170   2625.561   2544.596     80.965    476.587   2229.176    476.587    791.573    476.587
115.270   2919.000   2821.515     97.485    476.686   2527.382    476.686    770.330    476.686
115.370   3080.000   3127.019    -47.019    476.790   2855.077    476.790    748.188    476.790
115.470   3293.000   3458.959   -165.959    476.898   3209.574    476.898    725.687    476.898
115.570   3815.000   3813.709      1.291    477.011   3586.776    477.011    703.302    477.011
115.670   4083.000   4186.113   -103.113    477.129   3981.126    477.129    681.433    477.129
115.770   4418.000   4569.501   -151.501    477.252   4385.627    477.252    660.415    477.252
115.870   4770.000   4955.803   -185.803    477.381   4791.944    477.381    640.511    477.381
115.970   5290.178   5335.744    -45.566    477.514   5190.609    477.514    621.917    477.514
116.070   5721.511   5699.013     22.498    477.652   5571.175    477.652    604.770    477.652
116.170   5907.989   6034.670   -126.682    477.796   5922.628    477.796    589.149    477.796
116.270   6302.000   6331.578    -29.578    477.944   6233.799    477.944    575.083    477.944
116.370   6702.958   6578.958    124.000    478.098   6493.924    478.098    562.557    478.098
116.470   6811.226   6767.072     44.154    478.257   6693.316    478.257    551.520    478.257
116.570   6971.551   6887.980     83.571    478.422   6824.110    478.422    541.894    478.422
116.670   7039.000   6936.280    102.720    478.592   6881.000    478.592    533.579    478.592
116.770   6930.000   6909.667     20.333    478.767   6861.791    478.767    526.461    478.767
116.870   6840.000   6809.186     30.814    478.948   6767.642    478.948    520.421    478.948
116.970   6821.000   6639.091    181.909    479.134   6602.926    479.134    515.334    479.134
117.070   6368.000   6406.358    -38.358    479.326   6374.734    479.326    511.081    479.326
117.170   6274.391   6119.993    154.398    479.524   6092.185    479.524    507.548    479.524
117.270   5686.000   5790.275   -104.275    479.727   5765.659    479.727    504.630    479.727
117.370   5486.000   5428.058     57.942    479.937   5406.104    479.937    502.229    479.937
117.470   4947.000   5044.183    -97.183    480.151   5024.450    480.151    500.263    480.151
117.570   4541.000   4649.019   -108.019    480.372   4631.136    480.372    498.656    480.372
117.670   4305.000   4252.100     52.900    480.599   4235.764    480.599    497.346    480.599
117.770   4024.000   3861.862    162.138    480.831   3846.822    480.831    496.278    480.831
117.870   3510.772   3485.459     25.313    481.070   3471.513    481.070    495.409    481.070
117.970   3310.000   3128.663    181.337    481.315   3115.645    481.315    494.702    481.315
118.070   2944.000   2795.834    148.166    481.565   2783.613    481.565    494.128    481.565
118.170   2544.743   2489.966     54.777    481.822   2478.435    481.822    493.662    481.822
118.270   2227.000   2212.786     14.214    482.085   2201.857    482.085    493.285    482.085
118.370   1963.642   1964.890     -1.249    482.355   1954.496    482.355    492.984    482.355
118.470   1731.000   1745.921    -14.921    482.630   1736.005    482.630    492.745    482.630
118.570   1571.000   1554.744     16.256    482.912   1545.262    482.912    492.560    482.912
118.670   1312.000   1389.639    -77.639    483.201   1380.552    483.201    492.422    483.201
118.770   1235.000   1248.474    -13.474    483.495   1239.752    483.495    492.325    483.495
118.870   1101.000   1128.877    -27.877    483.797   1120.493    483.797    492.264    483.797
118.970   1014.000   1028.375    -14.375    484.105   1020.306    484.105    492.237    484.105
119.070    959.000    944.516     14.484    484.419    936.742    484.419    492.240    484.419
119.170    831.396    874.963    -43.567    484.741    867.465    484.741    492.272    484.741
119.270    854.000    817.552     36.448    485.069    810.314    485.069    492.330    485.069
119.370    775.000    770.337      4.663    485.404    763.342    485.404    492.414    485.404
119.470    733.000    731.607      1.393    485.745    724.840    485.745    492.523    485.745
119.570    718.700    699.888     18.812    486.094    693.333    486.094    492.655    486.094
119.670    686.144    673.933     12.211    486.449    667.575    486.449    492.811    486.449
119.770    646.000    652.701     -6.701    486.812    646.526    486.812    492.989    486.812
119.870    651.000    635.340     15.660    487.181    629.332    487.181    493.191    487.181
119.970    618.000    621.154     -3.154    487.558    615.297    487.558    493.416    487.558
120.070    608.000    609.586     -1.586    487.942    603.865    487.942    493.664    487.942
120.170    588.089    600.191    -12.103    488.333    594.591    488.333    493.936    488.333
120.270    583.000    592.620     -9.620    488.732    587.122    488.732    494.232    488.732
120.370    568.000    586.595    -18.595    489.138    581.182    489.138    494.553    489.138
120.470    586.538    581.902      4.636    489.551    576.554    489.551    494.901    489.551
120.570    578.000    578.372     -0.372    489.971    573.071    489.971    495.276    489.971
120.670    576.269    575.876      0.394    490.400    570.601    490.400    495.678    490.400
120.770    577.000    574.312      2.688    490.835    569.042    490.835    496.110    490.835
120.870    556.000    573.604    -17.604    491.279    568.316    491.279    496.572    491.279
120.970    577.000    573.688      3.312    491.730    568.358    491.730    497.066    491.730
121.070    596.000    574.511     21.489    492.189    569.116    492.189    497.591    492.189
121.170    535.000    576.029    -41.029    492.655    570.544    492.655    498.149    492.655
121.270    569.000    578.199     -9.199    493.130    572.598    493.130    498.741    493.130
121.370    538.336    580.975    -42.639    493.613    575.233    493.613    499.366    493.613
121.470    564.000    584.310    -20.310    494.103    578.402    494.103    500.024    494.103
121.570    591.621    588.150      3.471    494.602    582.052    494.602    500.715    494.602
121.670    591.000    592.433     -1.433    495.108    586.122    495.108    501.437    495.108
121.770    601.000    597.089      3.911    495.623    590.543    495.623    502.189    495.623
121.870    588.415    602.038    -13.623    496.146    595.238    496.146    502.969    496.146
121.970    566.000    607.189    -41.189    496.678    600.118    496.678    503.773    496.678
122.070    639.087    612.444     26.643    497.217    605.090    497.217    504.599    497.217
122.170    630.000    617.695     12.305    497.765    610.051    497.765    505.440    497.765
122.270    633.000    622.832     10.168    498.322    614.892    498.322    506.295    498.322
122.370    635.000    627.738      7.262    498.887    619.502    498.887    507.158    498.887
122.470    648.738    632.295     16.443    499.461    623.772    499.461    508.023    499.461
122.570    624.000    636.390    -12.390    500.043    627.593    500.043    508.882    500.043
122.670    699.000    639.921     59.079    500.635    630.870    500.635    509.728    500.635
122.770    651.000    642.798      8.202    501.234    633.522    501.234    510.555    501.234
122.870    681.729    644.954     36.775    501.843    635.489    501.843    511.354    501.843
122.970    667.055    646.345     20.710    502.461    636.733    502.461    512.119    502.461
123.070    645.000    646.956     -1.956    503.088    637.247    503.088    512.844    503.088
123.170    615.618    646.799    -31.181    503.723    637.046    503.723    513.523    503.723
123.270    635.000    645.910    -10.910    504.368    636.170    504.368    514.154    504.368
123.370    697.403    644.346     53.057    505.022    634.678    505.022    514.734    505.022
123.470    675.428    642.179     33.249    505.685    632.642    505.685    515.266    505.685
123.570    662.000    639.493     22.507    506.358    630.140    506.358    515.752    506.358
123.670    667.550    636.375     31.175    507.040    627.258    507.040    516.196    507.040
123.770    655.000    632.917     22.083    507.731    624.080    507.731    516.605    507.731
123.870    657.796    629.208     28.588    508.432    620.687    508.432    516.986    508.432
123.970    628.660    625.330      3.330    509.142    617.157    509.142    517.346    509.142
124.070    575.164    621.356    -46.193    509.862    613.554    509.862    517.692    509.862
124.170    645.719    617.361     28.358    510.592    609.945    510.592    518.032    510.592
124.270    595.482    613.397    -17.914    511.332    606.378    511.332    518.372    511.332
124.370    600.000    609.507     -9.507    512.081    602.888    512.081    518.718    512.081
124.470    568.655    605.725    -37.071    512.840    599.506    512.840    519.076    512.840
124.570    626.000    602.074     23.926    513.609    596.246    513.609    519.450    513.609
124.670    586.000    598.565    -12.565    514.388    593.119    514.388    519.845    514.388
124.770    555.859    595.203    -39.344    515.178    590.127    515.178    520.263    515.178
124.870    593.000    591.989      1.011    515.977    587.264    515.977    520.709    515.977
124.970    578.968    588.916     -9.948    516.787    584.526    516.787    521.183    516.787
