neutron_powder_diffraction_0074
R_wp: 4.662
Temperature (K): 764.932
Counts: 83315.00
Wavelength (Ã…): 2.52098
COMMENTS
Test file for demonstrating the .xyy file format in Reel1.0
END OF HEADER
   tth       Y_obs     Y_calc      Y_res    Background    Phase_1_Nuc    Phase_1_Mag    Phase_2_Nuc    Phase_2_Mag
  9.970    541.560    603.478    -61.918    602.290    603.477    602.290    602.290    602.290
 10.070    550.349    604.347    -53.998    603.062    604.346    603.062    603.062    603.062
 10.170    676.000    605.214     70.786    603.820    605.213    603.820    603.820    603.820
 10.270    613.711    606.083      7.628    604.563    606.082    604.563    604.563    604.563
 10.370    665.000    606.957     58.043    605.293    606.956    605.293    605.293    605.293
 10.470    586.464    607.841    -21.377    606.008    607.840    606.008    606.008    606.008
 10.570    670.000    608.741     61.259    606.710    608.740    606.710    606.710    606.710
 10.670    646.000    609.663     36.337    607.398    609.662    607.398    607.398    607.398
 10.770    654.000    610.618     43.382    608.073    610.616    608.073    608.073    608.073
 10.870    660.192    611.617     48.574    608.734    611.616    608.734    608.734    608.734
 10.970    634.000    612.679     21.321    609.382    612.677    609.382    609.382    609.382
 11.070    681.000    613.836     67.164    610.016    613.834    610.016    610.016    610.016
 11.170    675.000    615.193     59.807    610.637    615.190    610.637    610.637    610.637
 11.270    645.000    616.713     28.287    611.245    616.710    611.245    611.245    611.245
 11.370    611.000    618.430     -7.430    611.840    618.427    611.840    611.840    611.840
 11.470    648.000    620.585     27.415    612.422    620.580    612.422    612.422    612.422
 11.570    669.877    623.592     46.284    612.992    623.586    612.992    612.992    612.992
 11.670    672.000    628.376     43.624    613.548    628.368    613.548    613.548    613.548
 11.770    690.000    636.718     53.282    614.092    636.706    614.092    614.092    614.092
 11.870    683.000    651.284     31.716    614.624    651.263    614.624    614.624    614.624
 11.970    716.000    674.536     41.464    615.143    674.502    615.143    615.143    615.143
 12.070    701.000    706.127     -5.127    615.650    706.075    615.650    615.650    615.650
 12.170    767.000    738.882     28.118    616.144    738.813    616.144    616.144    616.144
 12.270    748.676    756.639     -7.963    616.627    756.559    616.627    616.627    616.627
 12.370    758.620    746.808     11.812    617.098    746.735    617.098    617.098    617.098
 12.470    706.098    717.632    -11.534    617.556    717.575    617.556    617.556    617.556
 12.570    741.733    685.788     55.945    618.003    685.749    618.003    618.003    618.003
 12.670    694.000    660.954     33.046    618.438    660.930    618.438    618.438    618.438
 12.770    654.000    645.019      8.981    618.861    645.004    618.861    618.861    618.861
 12.870    637.245    636.077      1.168    619.273    636.068    619.273    619.273    619.273
 12.970    614.000    631.399    -17.399    619.674    631.393    619.674    619.674    619.674
 13.070    625.000    628.930     -3.930    620.063    628.926    620.063    620.063    620.063
 13.170    649.000    627.530     21.470    620.441    627.527    620.441    620.441    620.441
 13.270    602.000    626.671    -24.671    620.808    626.668    620.808    620.808    620.808
 13.370    549.000    626.121    -77.121    621.163    626.118    621.163    621.163    621.163
 13.470    585.000    625.770    -40.770    621.508    625.768    621.508    621.508    621.508
 13.570    665.100    625.560     39.541    621.842    625.558    621.842    621.842    621.842
 13.670    683.116    625.450     57.667    622.165    625.448    622.165    622.165    622.165
 13.770    578.000    625.408    -47.408    622.478    625.407    622.478    622.478    622.478
 13.870    641.000    625.419     15.581    622.779    625.417    622.779    622.779    622.779
 13.970    641.669    625.468     16.200    623.071    625.467    623.071    623.071    623.071
 14.070    608.730    625.546    -16.816    623.351    625.545    623.351    623.351    623.351
 14.170    640.000    625.645     14.355    623.622    625.644    623.622    623.622    623.622
 14.270    659.107    625.761     33.346    623.882    625.760    623.882    623.882    623.882
 14.370    581.398    625.886    -44.488    624.132    625.886    624.132    624.132    624.132
 14.470    607.000    626.018    -19.018    624.373    626.017    624.373    624.373    624.373
 14.570    548.000    626.154    -78.154    624.603    626.153    624.603    624.603    624.603
 14.670    649.996    626.291     23.704    624.823    626.291    624.823    624.823    624.823
 14.770    619.000    626.430     -7.430    625.033    626.429    625.033    625.033    625.033
 14.870    599.000    626.570    -27.570    625.234    626.570    625.234    625.234    625.234
 14.970    555.000    626.744    -71.744    625.425    626.743    625.425    625.425    625.425
 15.070    605.000    626.921    -21.921    625.607    626.921    625.607    625.607    625.607
 15.170    604.000    627.056    -23.056    625.779    627.056    625.779    625.779    625.779
 15.270    622.000    627.185     -5.185    625.942    627.185    625.942    625.942    625.942
 15.370    573.323    627.305    -53.982    626.095    627.305    626.095    626.095    626.095
 15.470    588.400    627.429    -39.029    626.239    627.428    626.239    626.239    626.239
 15.570    622.000    627.541     -5.541    626.375    627.541    626.375    626.375    626.375
 15.670    567.000    627.643    -60.643    626.501    627.642    626.501    626.501    626.501
 15.770    589.000    627.738    -38.738    626.618    627.737    626.618    626.618    626.618
 15.870    579.000    627.826    -48.826    626.726    627.826    626.726    626.726    626.726
 15.970    570.000    627.908    -57.908    626.826    627.908    626.826    626.826    626.826
 16.070    560.000    627.983    -67.983    626.917    627.983    626.917    626.917    626.917
 16.170    621.000    628.052     -7.052    626.999    628.052    626.999    626.999    626.999
 16.270    551.000    628.121    -77.121    627.073    628.121    627.073    627.073    627.073
 16.370    660.668    628.198     32.471    627.138    628.197    627.138    627.138    627.138
 16.470    632.139    628.247      3.892    627.195    628.247    627.195    627.195    627.195
 16.570    598.912    628.287    -29.375    627.244    628.287    627.244    627.244    627.244
 16.670    623.658    628.321     -4.663    627.284    628.320    627.284    627.284    627.284
 16.770    567.000    628.351    -61.351    627.316    628.351    627.316    627.316    627.316
 16.870    617.291    628.422    -11.131    627.341    628.422    627.341    627.341    627.341
 16.970    583.179    628.465    -45.285    627.357    628.464    627.357    627.357    627.357
 17.070    621.000    628.472     -7.472    627.365    628.472    627.365    627.365    627.365
 17.170    603.000    628.471    -25.471    627.366    628.471    627.366    627.366    627.366
 17.270    596.000    628.462    -32.462    627.359    628.462    627.359    627.359    627.359
 17.370    581.000    628.447    -47.447    627.344    628.447    627.344    627.344    627.344
 17.470    613.000    628.424    -15.424    627.322    628.424    627.322    627.322    627.322
 17.570    567.000    628.395    -61.395    627.292    628.395    627.292    627.292    627.292
 17.670    594.000    628.359    -34.359    627.255    628.359    627.255    627.255    627.255
 17.770    695.000    628.318     66.682    627.210    628.318    627.210    627.210    627.210
 17.870    601.000    628.293    -27.293    627.158    628.293    627.158    627.158    627.158
 17.970    596.913    628.277    -31.364    627.099    628.277    627.099    627.099    627.099
 18.070    570.000    628.219    -58.219    627.033    628.219    627.033    627.033    627.033
 18.170    624.000    628.156     -4.156    626.960    628.156    626.960    626.960    626.960
 18.270    607.442    628.141    -20.700    626.879    628.141    626.879    626.879    626.879
 18.370    594.757    628.106    -33.349    626.792    628.106    626.792    626.792    626.792
 18.470    650.748    628.025     22.724    626.698    628.025    626.698    626.698    626.698
 18.570    638.965    627.944     11.021    626.598    627.944    626.598    626.598    626.598
 18.670    606.000    627.855    -21.855    626.490    627.855    626.490    626.490    626.490
 18.770    599.000    627.757    -28.757    626.376    627.757    626.376    626.376    626.376
 18.870    582.504    627.690    -45.186    626.256    627.690    626.256    626.256    626.256
 18.970    670.007    627.582     42.425    626.129    627.582    626.129    626.129    626.129
 19.070    685.550    627.470     58.080    625.996    627.470    625.996    625.996    625.996
 19.170    590.000    627.342    -37.342    625.856    627.342    625.856    625.856    625.856
 19.270    625.000    627.210     -2.210    625.710    627.210    625.710    625.710    625.710
 19.370    622.000    627.075     -5.075    625.558    627.075    625.558    625.558    625.558
 19.470    574.000    626.936    -52.936    625.400    626.935    625.400    625.400    625.400
 19.570    582.000    626.788    -44.788    625.236    626.788    625.236    625.236    625.236
 19.670    624.000    626.634     -2.634    625.065    626.634    625.065    625.065    625.065
 19.770    569.000    626.474    -57.474    624.889    626.473    624.889    624.889    624.889
 19.870    666.300    626.308     39.992    624.707    626.308    624.707    624.707    624.707
 19.970    605.000    626.136    -21.136    624.520    626.136    624.520    624.520    624.520
 20.070    619.000    625.959     -6.959    624.326    625.960    624.326    624.326    624.326
 20.170    604.000    625.778    -21.778    624.127    625.778    624.127    624.127    624.127
 20.270    670.904    625.595     45.309    623.923    625.595    623.923    623.923    623.923
 20.370    683.165    625.411     57.754    623.713    625.411    623.713    623.713    623.713
 20.470    593.000    625.218    -32.218    623.497    625.218    623.497    623.497    623.497
 20.570    567.446    625.020    -57.575    623.277    625.020    623.277    623.277    623.277
 20.670    594.000    624.817    -30.817    623.051    624.817    623.051    623.051    623.051
 20.770    579.224    624.610    -45.386    622.819    624.610    622.819    622.819    622.819
 20.870    563.000    624.398    -61.398    622.583    624.398    622.583    622.583    622.583
 20.970    607.000    624.183    -17.183    622.341    624.183    622.341    622.341    622.341
 21.070    596.000    623.964    -27.964    622.095    623.964    622.095    622.095    622.095
 21.170    600.000    623.741    -23.741    621.843    623.741    621.843    621.843    621.843
 21.270    674.025    623.516     50.509    621.587    623.516    621.587    621.587    621.587
 21.370    596.000    623.288    -27.288    621.325    623.288    621.325    621.325    621.325
 21.470    573.000    623.057    -50.057    621.059    623.057    621.059    621.059    621.059
 21.570    580.000    622.823    -42.823    620.788    622.824    620.788    620.788    620.788
 21.670    658.842    622.588     36.254    620.513    622.588    620.513    620.513    620.513
 21.770    572.000    622.350    -50.350    620.233    622.350    620.233    620.233    620.233
 21.870    602.000    622.111    -20.111    619.948    622.111    619.948    619.948    619.948
 21.970    644.000    621.870     22.130    619.659    621.870    619.659    619.659    619.659
 22.070    576.000    621.629    -45.629    619.366    621.630    619.366    619.366    619.366
 22.170    579.000    621.388    -42.388    619.068    621.389    619.068    619.068    619.068
 22.270    543.000    621.149    -78.149    618.766    621.149    618.766    618.766    618.766
 22.370    606.000    620.911    -14.911    618.460    620.911    618.460    618.460    618.460
 22.470    587.000    620.674    -33.674    618.150    620.674    618.150    618.150    618.150
 22.570    583.000    620.440    -37.440    617.835    620.440    617.835    617.835    617.835
 22.670    677.913    620.210     57.703    617.517    620.211    617.517    617.517    617.517
 22.770    617.000    619.987     -2.987    617.194    619.987    617.194    617.194    617.194
 22.870    586.000    619.770    -33.770    616.868    619.771    616.868    616.868    616.868
 22.970    664.382    619.564     44.818    616.537    619.565    616.537    616.537    616.537
 23.070    600.789    619.371    -18.582    616.203    619.372    616.203    616.203    616.203
 23.170    619.693    619.195      0.498    615.865    619.196    615.865    615.865    615.865
 23.270    600.142    619.039    -18.897    615.524    619.040    615.524    615.524    615.524
 23.370    588.000    618.910    -30.910    615.178    618.911    615.178    615.178    615.178
 23.470    641.000    618.816     22.184    614.830    618.817    614.830    614.830    614.830
 23.570    605.000    618.767    -13.767    614.477    618.768    614.477    614.477    614.477
 23.670    625.000    618.778      6.222    614.121    618.780    614.121    614.121    614.121
 23.770    664.000    618.871     45.129    613.762    618.873    613.762    613.762    613.762
 23.870    567.000    619.076    -52.076    613.400    619.078    613.400    613.400    613.400
 23.970    631.000    619.445     11.555    613.034    619.448    613.034    613.034    613.034
 24.070    671.049    620.077     50.971    612.665    620.081    612.665    612.665    612.665
 24.170    593.000    621.191    -28.191    612.292    621.195    612.292    612.292    612.292
 24.270    591.000    623.257    -32.257    611.917    623.263    611.917    611.917    611.917
 24.370    618.000    627.217     -9.217    611.538    627.226    611.538    611.538    611.538
 24.470    633.232    634.544     -1.311    611.157    634.558    611.157    611.157    611.157
 24.570    672.000    646.840     25.160    610.772    646.863    610.772    610.772    610.772
 24.670    701.000    664.649     36.351    610.385    664.685    610.385    610.385    610.385
 24.770    710.310    685.375     24.935    609.995    685.425    609.995    609.995    609.995
 24.870    689.000    701.396    -12.396    609.601    701.458    609.601    609.601    609.601
 24.970    768.334    703.175     65.159    609.205    703.239    609.205    609.205    609.205
 25.070    726.011    689.106     36.905    608.807    689.160    608.807    608.807    608.807
 25.170    610.101    667.872    -57.771    608.405    667.912    608.405    608.405    608.405
 25.270    749.000    648.339    100.661    608.002    648.365    608.002    608.002    608.002
 25.370    673.000    634.151     38.849    607.595    634.167    607.595    607.595    607.595
 25.470    601.611    625.253    -23.641    607.186    625.262    607.186    607.186    607.186
 25.570    638.000    620.120     17.880    606.775    620.126    606.775    606.775    606.775
 25.670    672.797    617.177     55.619    606.361    617.182    606.361    606.361    606.361
 25.770    636.126    615.363     20.763    605.944    615.366    605.944    605.944    605.944
 25.870    656.000    614.117     41.883    605.526    614.120    605.526    605.526    605.526
 25.970    738.000    613.186    124.814    605.105    613.188    605.105    605.105    605.105
 26.070    643.000    612.458     30.542    604.682    612.460    604.682    604.682    604.682
 26.170    595.062    611.880    -16.819    604.257    611.881    604.257    604.257    604.257
 26.270    671.000    611.422     59.578    603.829    611.423    603.829    603.829    603.829
 26.370    674.000    611.069     62.931    603.400    611.070    603.400    603.400    603.400
 26.470    589.510    610.813    -21.303    602.968    610.814    602.968    602.968    602.968
 26.570    705.000    610.653     94.347    602.535    610.653    602.535    602.535    602.535
 26.670    683.000    610.593     72.407    602.099    610.593    602.099    602.099    602.099
 26.770    630.000    610.643     19.357    601.662    610.643    601.662    601.662    601.662
 26.870    634.000    610.821     23.179    601.223    610.821    601.223    601.223    601.223
 26.970    692.000    611.152     80.848    600.782    611.151    600.782    600.782    600.782
 27.070    636.000    611.672     24.328    600.339    611.671    600.339    600.339    600.339
 27.170    582.768    612.433    -29.665    599.895    612.431    599.895    599.895    599.895
 27.270    694.000    613.510     80.490    599.449    613.508    599.449    599.449    599.449
 27.370    600.930    615.016    -14.086    599.001    615.013    599.001    599.001    599.001
 27.470    735.000    617.143    117.857    598.552    617.140    598.552    598.552    598.552
 27.570    678.000    620.293     57.707    598.101    620.288    598.101    598.101    598.101
 27.670    696.000    625.477     70.523    597.649    625.471    597.649    597.649    597.649
 27.770    700.000    635.289     64.711    597.195    635.279    597.195    597.195    597.195
 27.870    695.000    655.358     39.642    596.740    655.339    596.740    596.740    596.740
 27.970    712.421    694.732     17.689    596.284    694.698    596.284    596.284    596.284
 28.070    828.000    761.929     66.071    595.826    761.876    595.826    595.826    595.826
 28.170    800.414    854.975    -54.561    595.367    854.903    595.367    595.367    595.367
 28.270    992.000    949.033     42.967    594.906    948.954    594.906    594.906    594.906
 28.370    929.471    994.753    -65.282    594.445    994.683    594.445    594.445    594.445
 28.470   1040.000    961.715     78.285    593.982    961.663    593.982    593.982    593.982
 28.570    990.000    886.637    103.363    593.519    886.602    593.519    593.519    593.519
 28.670    922.000    825.010     96.990    593.054    824.984    593.054    593.054    593.054
 28.770    859.000    805.703     53.297    592.588    805.680    592.588    592.588    592.588
 28.870    903.000    827.884     75.116    592.121    827.859    592.121    592.121    592.121
 28.970    949.000    866.971     82.029    591.653    866.947    591.653    591.653    591.653
 29.070    861.379    883.554    -22.174    591.185    883.537    591.185    591.185    591.185
 29.170    966.000    852.624    113.376    590.715    852.620    590.715    590.715    590.715
 29.270    859.526    790.612     68.914    590.245    790.617    590.245    590.245    590.245
 29.370    752.033    727.007     25.026    589.774    727.015    589.774    589.774    589.774
 29.470    706.999    677.823     29.176    589.302    677.829    589.302    589.302    589.302
 29.570    632.813    645.960    -13.148    588.829    645.964    588.829    588.829    588.829
 29.670    692.000    627.613     64.387    588.356    627.614    588.356    588.356    588.356
 29.770    651.743    617.527     34.215    587.882    617.527    587.882    587.882    587.882
 29.870    722.000    611.759    110.241    587.407    611.758    587.407    587.407    587.407
 29.970    546.516    608.135    -61.619    586.932    608.133    586.932    586.932    586.932
 30.070    643.823    605.679     38.144    586.456    605.676    586.456    586.456    586.456
 30.170    710.000    604.018    105.982    585.980    604.014    585.980    585.980    585.980
 30.270    707.000    603.081    103.919    585.504    603.077    585.504    585.504    585.504
 30.370    707.000    603.042    103.958    585.027    603.037    585.027    585.027    585.027
 30.470    688.000    604.390     83.610    584.549    604.383    584.549    584.549    584.549
 30.570    689.000    607.976     81.024    584.072    607.965    584.072    584.072    584.072
 30.670    659.000    614.844     44.156    583.593    614.828    583.593    583.593    583.593
 30.770    703.000    625.654     77.346    583.115    625.629    583.115    583.115    583.115
 30.870    705.000    639.671     65.329    582.637    639.635    582.637    582.637    582.637
 30.970    588.062    653.439    -65.378    582.158    653.394    582.158    582.158    582.158
 31.070    695.000    660.490     34.510    581.679    660.442    581.679    581.679    581.679
 31.170    695.000    656.015     38.985    581.200    655.972    581.200    581.200    581.200
 31.270    740.000    642.674     97.326    580.721    642.641    580.721    580.721    580.721
 31.370    659.000    626.976     32.024    580.241    626.954    580.241    580.241    580.241
 31.470    675.620    613.493     62.126    579.762    613.479    579.762    579.762    579.762
 31.570    592.314    603.807    -11.493    579.283    603.798    579.283    579.283    579.283
 31.670    577.710    597.633    -19.924    578.803    597.627    578.803    578.803    578.803
 31.770    660.000    593.965     66.035    578.324    593.961    578.324    578.324    578.324
 31.870    628.000    591.812     36.188    577.845    591.809    577.845    577.845    577.845
 31.970    593.392    590.496      2.896    577.366    590.493    577.366    577.366    577.366
 32.070    566.000    589.649    -23.649    576.887    589.646    576.887    576.887    576.887
 32.170    630.000    589.099     40.901    576.408    589.097    576.408    576.408    576.408
 32.270    622.000    588.777     33.223    575.930    588.775    575.930    575.930    575.930
 32.370    596.000    588.658      7.342    575.451    588.656    575.451    575.451    575.451
 32.470    554.000    588.740    -34.740    574.974    588.738    574.974    574.974    574.974
 32.570    629.000    589.037     39.963    574.496    589.035    574.496    574.496    574.496
 32.670    604.000    589.579     14.421    574.018    589.577    574.018    574.018    574.018
 32.770    616.000    590.409     25.591    573.541    590.407    573.541    573.541    573.541
 32.870    613.000    591.595     21.405    573.065    591.593    573.065    573.065    573.065
 32.970    644.071    593.235     50.837    572.589    593.232    572.589    572.589    572.589
 33.070    577.000    595.478    -18.478    572.113    595.475    572.113    572.113    572.113
 33.170    608.000    598.584      9.416    571.638    598.581    571.638    571.638    571.638
 33.270    617.328    603.046     14.282    571.163    603.042    571.163    571.163    571.163
 33.370    644.000    609.883     34.117    570.689    609.878    570.689    570.689    570.689
 33.470    613.000    621.132     -8.132    570.215    621.124    570.215    570.215    570.215
 33.570    605.000    640.443    -35.443    569.742    640.431    569.742    569.742    569.742
 33.670    680.000    673.270      6.730    569.270    673.253    569.270    569.270    569.270
 33.770    687.000    725.791    -38.791    568.798    725.765    568.798    568.798    568.798
 33.870    779.000    801.828    -22.828    568.327    801.790    568.327    568.327    568.327
 33.970    880.000    897.608    -17.608    567.856    897.557    567.856    567.856    567.856
 34.070   1014.272    994.817     19.455    567.387    994.759    567.387    567.387    567.387
 34.170   1032.477   1057.920    -25.443    566.918   1057.867    566.918    566.918    566.918
 34.270   1094.483   1053.688     40.795    566.450   1053.651    566.450    566.450    566.450
 34.370    990.000    984.504      5.496    565.982    984.484    565.982    565.982    565.982
 34.470    866.000    885.302    -19.302    565.516    885.294    565.516    565.516    565.516
 34.570    730.000    790.041    -60.041    565.050    790.037    565.050    565.050    565.050
 34.670    688.000    715.324    -27.324    564.585    715.323    564.585    564.585    564.585
 34.770    655.000    663.938     -8.938    564.121    663.937    564.121    564.121    564.121
 34.870    612.002    631.660    -19.658    563.659    631.659    563.659    563.659    563.659
 34.970    643.000    612.302     30.698    563.196    612.300    563.196    563.196    563.196
 35.070    574.072    600.572    -26.500    562.735    600.571    562.735    562.735    562.735
 35.170    562.000    592.998    -30.998    562.275    592.997    562.275    562.275    562.275
 35.270    564.000    587.664    -23.664    561.816    587.662    561.816    561.816    561.816
 35.370    561.932    583.615    -21.683    561.358    583.614    561.358    561.358    561.358
 35.470    584.000    580.385      3.615    560.901    580.384    560.901    560.901    560.901
 35.570    549.000    577.726    -28.726    560.446    577.725    560.446    560.446    560.446
 35.670    543.000    575.490    -32.490    559.991    575.490    559.991    559.991    559.991
 35.770    569.000    573.579     -4.579    559.537    573.578    559.537    559.537    559.537
 35.870    517.492    571.920    -54.429    559.085    571.920    559.085    559.085    559.085
 35.970    551.000    570.463    -19.463    558.634    570.463    558.634    558.634    558.634
 36.070    570.000    569.170      0.830    558.184    569.169    558.184    558.184    558.184
 36.170    516.601    568.010    -51.409    557.735    568.010    557.735    557.735    557.735
 36.270    536.000    566.962    -30.962    557.287    566.962    557.287    557.287    557.287
 36.370    569.263    566.009      3.254    556.841    566.009    556.841    556.841    556.841
 36.470    566.000    565.138      0.862    556.396    565.138    556.396    556.396    556.396
 36.570    539.000    564.341    -25.341    555.952    564.341    555.952    555.952    555.952
 36.670    579.275    563.611     15.664    555.510    563.611    555.510    555.510    555.510
 36.770    551.304    562.947    -11.643    555.069    562.947    555.069    555.069    555.069
 36.870    501.000    562.352    -61.352    554.629    562.352    554.629    554.629    554.629
 36.970    545.000    561.839    -16.839    554.191    561.839    554.191    554.191    554.191
 37.070    536.000    561.445    -25.445    553.754    561.445    553.754    553.754    553.754
 37.170    555.950    561.245     -5.295    553.318    561.246    553.318    553.318    553.318
 37.270    556.000    561.378     -5.378    552.884    561.378    552.884    552.884    552.884
 37.370    553.000    562.044     -9.044    552.452    562.045    552.452    552.452    552.452
 37.470    578.880    563.462     15.419    552.021    563.463    552.021    552.021    552.021
 37.570    571.000    565.739      5.261    551.591    565.741    551.591    551.591    551.591
 37.670    558.000    568.690    -10.690    551.163    568.693    551.163    551.163    551.163
 37.770    578.000    571.611      6.389    550.736    571.615    550.736    550.736    550.736
 37.870    572.000    573.262     -1.262    550.311    573.268    550.311    550.311    550.311
 37.970    574.000    572.654      1.346    549.888    572.662    549.888    549.888    549.888
 38.070    554.000    570.044    -16.044    549.466    570.054    549.466    549.466    549.466
 38.170    518.000    566.503    -48.503    549.046    566.514    549.046    549.046    549.046
 38.270    569.000    562.928      6.072    548.627    562.938    548.627    548.627    548.627
 38.370    602.988    559.803     43.184    548.210    559.812    548.210    548.210    548.210
 38.470    544.000    557.322    -13.322    547.795    557.329    547.795    547.795    547.795
 38.570    605.366    555.468     49.898    547.381    555.473    547.381    547.381    547.381
 38.670    546.000    554.109     -8.109    546.969    554.113    546.969    546.969    546.969
 38.770    535.000    553.093    -18.093    546.559    553.096    546.559    546.559    546.559
 38.870    547.252    552.298     -5.046    546.150    552.300    546.150    546.150    546.150
 38.970    510.000    551.642    -41.642    545.743    551.643    545.743    545.743    545.743
 39.070    538.370    551.072    -12.702    545.338    551.073    545.338    545.338    545.338
 39.170    543.066    550.557     -7.490    544.935    550.557    544.935    544.935    544.935
 39.270    482.000    550.073    -68.073    544.533    550.074    544.533    544.533    544.533
 39.370    560.000    549.622     10.378    544.133    549.623    544.133    544.133    544.133
 39.470    518.000    549.194    -31.194    543.735    549.194    543.735    543.735    543.735
 39.570    530.000    548.784    -18.784    543.339    548.785    543.339    543.339    543.339
 39.670    528.000    548.391    -20.391    542.944    548.391    542.944    542.944    542.944
 39.770    532.000    548.013    -16.013    542.552    548.013    542.552    542.552    542.552
 39.870    552.000    547.649      4.351    542.161    547.650    542.161    542.161    542.161
 39.970    593.837    547.300     46.537    541.772    547.300    541.772    541.772    541.772
 40.070    527.162    546.964    -19.801    541.385    546.964    541.385    541.385    541.385
 40.170    524.000    546.642    -22.642    541.000    546.643    541.000    541.000    541.000
 40.270    507.000    546.336    -39.336    540.617    546.336    540.617    540.617    540.617
 40.370    545.000    546.045     -1.045    540.236    546.046    540.236    540.236    540.236
 40.470    531.000    545.771    -14.771    539.857    545.772    539.857    539.857    539.857
 40.570    519.000    545.516    -26.516    539.479    545.517    539.479    539.479    539.479
 40.670    528.000    545.282    -17.282    539.104    545.282    539.104    539.104    539.104
 40.770    537.095    545.071     -7.975    538.730    545.072    538.730    538.730    538.730
 40.870    493.797    544.887    -51.090    538.359    544.887    538.359    538.359    538.359
 40.970    523.944    544.734    -20.789    537.989    544.734    537.989    537.989    537.989
 41.070    572.487    544.617     27.870    537.622    544.618    537.622    537.622    537.622
 41.170    511.000    544.544    -33.544    537.256    544.546    537.256    537.256    537.256
 41.270    513.000    544.525    -31.525    536.893    544.526    536.893    536.893    536.893
 41.370    534.000    544.570    -10.570    536.531    544.572    536.531    536.531    536.531
 41.470    491.000    544.697    -53.697    536.172    544.699    536.172    536.172    536.172
 41.570    493.000    544.929    -51.929    535.814    544.931    535.814    535.814    535.814
 41.670    569.079    545.303     23.776    535.459    545.306    535.459    535.459    535.459
 41.770    561.372    545.884     15.488    535.106    545.887    535.106    535.106    535.106
 41.870    570.000    546.794     23.206    534.755    546.797    534.755    534.755    534.755
 41.970    518.000    548.266    -30.266    534.405    548.271    534.405    534.405    534.405
 42.070    546.975    550.728     -3.753    534.058    550.733    534.058    534.058    534.058
 42.170    522.031    554.873    -32.842    533.714    554.880    533.714    533.714    533.714
 42.270    529.000    561.671    -32.671    533.371    561.682    533.371    533.371    533.371
 42.370    608.759    572.194     36.565    533.030    572.209    533.030    533.030    533.030
 42.470    582.000    587.198     -5.198    532.691    587.221    532.691    532.691    532.691
 42.570    606.142    606.478     -0.336    532.355    606.510    532.355    532.355    532.355
 42.670    688.279    628.006     60.273    532.021    628.049    532.021    532.021    532.021
 42.770    706.384    647.056     59.327    531.689    647.110    531.689    531.689    531.689
 42.870    688.355    656.748     31.607    531.359    656.808    531.359    531.359    531.359
 42.970    677.893    652.432     25.461    531.031    652.493    531.031    531.031    531.031
 43.070    597.000    636.214    -39.214    530.705    636.269    530.705    530.705    530.705
 43.170    620.506    614.629      5.876    530.382    614.674    530.382    530.382    530.382
 43.270    598.754    593.504      5.250    530.061    593.537    530.061    530.061    530.061
 43.370    534.000    575.984    -41.984    529.741    576.007    529.741    529.741    529.741
 43.470    532.761    562.992    -30.231    529.425    563.008    529.425    529.425    529.425
 43.570    527.855    554.123    -26.267    529.110    554.134    529.110    529.110    529.110
 43.670    581.595    548.389     33.207    528.798    548.396    528.798    528.798    528.798
 43.770    584.000    544.748     39.252    528.487    544.754    528.487    528.487    528.487
 43.870    537.719    542.380     -4.661    528.179    542.384    528.179    528.179    528.179
 43.970    541.000    540.744      0.256    527.873    540.747    527.873    527.873    527.873
 44.070    554.000    539.531     14.469    527.570    539.533    527.570    527.570    527.570
 44.170    571.456    538.575     32.881    527.269    538.577    527.269    527.269    527.269
 44.270    492.504    537.790    -45.287    526.970    537.792    526.970    526.970    526.970
 44.370    574.290    537.130     37.160    526.673    537.132    526.673    526.673    526.673
 44.470    548.000    536.566     11.434    526.378    536.567    526.378    526.378    526.378
 44.570    503.000    536.078    -33.078    526.086    536.080    526.086    526.086    526.086
 44.670    497.194    535.655    -38.461    525.796    535.656    525.796    525.796    525.796
 44.770    542.000    535.285      6.715    525.508    535.285    525.508    525.508    525.508
 44.870    541.000    534.961      6.039    525.222    534.961    525.222    525.222    525.222
 44.970    545.000    534.678     10.322    524.939    534.678    524.939    524.939    524.939
 45.070    480.433    534.431    -53.998    524.658    534.432    524.658    524.658    524.658
 45.170    570.202    534.219     35.983    524.380    534.219    524.380    524.380    524.380
 45.270    516.000    534.038    -18.038    524.103    534.038    524.103    524.103    524.103
 45.370    559.000    533.887     25.113    523.829    533.887    523.829    523.829    523.829
 45.470    523.000    533.766    -10.766    523.557    533.766    523.557    523.557    523.557
 45.570    506.076    533.674    -27.598    523.288    533.674    523.288    523.288    523.288
 45.670    582.752    533.613     49.139    523.020    533.612    523.020    523.020    523.020
 45.770    496.000    533.582    -37.582    522.756    533.581    522.756    522.756    522.756
 45.870    534.000    533.583      0.417    522.493    533.583    522.493    522.493    522.493
 45.970    477.276    533.619    -56.343    522.233    533.619    522.233    522.233    522.233
 46.070    557.000    533.692     23.308    521.975    533.692    521.975    521.975    521.975
 46.170    554.000    533.807     20.193    521.719    533.806    521.719    521.719    521.719
 46.270    525.000    533.967     -8.967    521.465    533.966    521.465    521.465    521.465
 46.370    549.266    534.178     15.088    521.214    534.177    521.214    521.214    521.214
 46.470    572.000    534.449     37.551    520.965    534.448    520.965    520.965    520.965
 46.570    522.000    534.790    -12.790    520.719    534.788    520.719    520.719    520.719
 46.670    523.953    535.213    -11.260    520.475    535.211    520.475    520.475    520.475
 46.770    575.488    535.739     39.748    520.233    535.737    520.233    520.233    520.233
 46.870    556.000    536.401     19.599    519.993    536.399    519.993    519.993    519.993
 46.970    546.529    537.257      9.273    519.756    537.254    519.756    519.756    519.756
 47.070    525.000    538.410    -13.410    519.521    538.407    519.521    519.521    519.521
 47.170    547.000    540.048      6.952    519.289    540.043    519.289    519.289    519.289
 47.270    539.000    542.475     -3.475    519.058    542.469    519.058    519.058    519.058
 47.370    574.000    546.140     27.860    518.830    546.132    518.830    518.830    518.830
 47.470    548.000    551.601     -3.601    518.605    551.588    518.605    518.605    518.605
 47.570    593.000    559.398     33.602    518.381    559.380    518.381    518.381    518.381
 47.670    535.000    569.826    -34.826    518.160    569.800    518.160    518.160    518.160
 47.770    583.000    582.611      0.389    517.942    582.576    517.942    517.942    517.942
 47.870    610.000    596.532     13.468    517.725    596.487    517.725    517.725    517.725
 47.970    587.000    609.074    -22.074    517.511    609.022    517.511    517.511    517.511
 48.070    595.000    616.752    -21.752    517.299    616.696    517.299    517.299    517.299
 48.170    663.138    616.992     46.147    517.090    616.938    517.090    517.090    517.090
 48.270    619.000    610.285      8.715    516.883    610.238    516.883    516.883    516.883
 48.370    623.000    599.730     23.270    516.678    599.692    516.678    516.678    516.678
 48.470    585.509    588.702     -3.192    516.475    588.673    516.475    516.475    516.475
 48.570    621.221    579.439     41.782    516.275    579.418    516.275    516.275    516.275
 48.670    623.000    572.979     50.021    516.077    572.964    516.077    516.077    516.077
 48.770    587.000    569.525     17.475    515.882    569.515    515.882    515.882    515.882
 48.870    557.000    568.830    -11.830    515.688    568.822    515.688    515.688    515.688
 48.970    597.505    570.509     26.995    515.497    570.503    515.497    515.497    515.497
 49.070    566.000    574.289     -8.289    515.308    574.283    515.308    515.308    515.308
 49.170    535.000    580.203    -45.203    515.122    580.197    515.122    515.122    515.122
 49.270    603.000    588.843     14.157    514.938    588.837    514.938    514.938    514.938
 49.370    574.000    601.860    -27.860    514.756    601.852    514.756    514.756    514.756
 49.470    612.000    622.896    -10.896    514.576    622.885    514.576    514.576    514.576
 49.570    649.322    658.999     -9.677    514.399    658.981    514.399    514.399    514.399
 49.670    761.260    721.991     39.270    514.224    721.959    514.224    514.224    514.224
 49.770    781.000    828.470    -47.470    514.051    828.417    514.051    514.051    514.051
 49.870    996.962    996.524      0.439    513.881    996.444    513.881    513.881    513.881
 49.970   1200.325   1237.951    -37.625    513.713   1237.839    513.713    513.713    513.713
 50.070   1522.421   1547.064    -24.643    513.547   1546.928    513.547    513.547    513.547
 50.170   1819.000   1889.463    -70.463    513.383   1889.323    513.383    513.383    513.383
 50.270   2160.619   2195.728    -35.109    513.221   2195.619    513.221    513.221    513.221
 50.370   2478.000   2372.852    105.148    513.062   2372.816    513.062    513.062    513.062
 50.470   2257.088   2352.121    -95.034    512.905   2352.179    512.905    512.905    512.905
 50.570   2094.000   2143.601    -49.601    512.750   2143.731    512.750    512.750    512.750
 50.670   1746.457   1826.668    -80.210    512.598   1826.827    512.598    512.598    512.598
 50.770   1447.000   1491.816    -44.816    512.448   1491.970    512.448    512.448    512.448
 50.870   1073.000   1201.590   -128.590    512.300   1201.719    512.300    512.300    512.300
 50.970   1040.778    983.948     56.830    512.154    984.047    512.154    512.154    512.154
 51.070    805.000    839.758    -34.758    512.010    839.832    512.010    512.010    512.010
 51.170    717.000    754.084    -37.084    511.869    754.141    511.869    511.869    511.869
 51.270    691.096    706.697    -15.601    511.730    706.744    511.730    511.730    511.730
 51.370    729.377    679.269     50.109    511.593    679.310    511.593    511.593    511.593
 51.470    635.000    659.317    -24.317    511.458    659.354    511.458    511.458    511.458
 51.570    644.000    641.206      2.794    511.325    641.237    511.325    511.325    511.325
 51.670    648.843    624.075     24.768    511.195    624.100    511.195    511.195    511.195
 51.770    613.942    608.811      5.131    511.067    608.830    511.067    511.067    511.067
 51.870    597.000    596.282      0.718    510.941    596.296    510.941    510.941    510.941
 51.970    594.000    586.844      7.156    510.817    586.854    510.817    510.817    510.817
 52.070    616.000    580.378     35.622    510.695    580.385    510.695    510.695    510.695
 52.170    630.000    576.486     53.514    510.575    576.492    510.575    510.575    510.575
 52.270    563.175    574.709    -11.534    510.458    574.713    510.458    510.458    510.458
 52.370    621.000    574.696     46.304    510.343    574.699    510.343    510.343    510.343
 52.470    594.000    576.331     17.669    510.230    576.333    510.230    510.230    510.230
 52.570    574.288    579.825     -5.537    510.119    579.828    510.119    510.119    510.119
 52.670    586.000    585.864      0.136    510.010    585.866    510.010    510.010    510.010
 52.770    591.778    595.795     -4.017    509.903    595.797    509.903    509.903    509.903
 52.870    623.000    611.843     11.157    509.798    611.844    509.798    509.798    509.798
 52.970    692.912    637.208     55.704    509.696    637.208    509.696    509.696    509.696
 53.070    662.000    675.876    -13.876    509.595    675.875    509.595    509.595    509.595
 53.170    680.934    731.762    -50.828    509.497    731.760    509.497    509.497    509.497
 53.270    841.000    807.353     33.647    509.400    807.351    509.400    509.400    509.400
 53.370    926.000    901.830     24.170    509.306    901.827    509.306    509.306    509.306
 53.470   1034.000   1008.945     25.055    509.214   1008.944    509.214    509.214    509.214
 53.570   1153.110   1114.788     38.322    509.124   1114.791    509.124    509.124    509.124
 53.670   1167.931   1196.824    -28.892    509.036   1196.833    509.036    509.036    509.036
 53.770   1230.000   1229.642      0.358    508.950   1229.660    508.950    508.950    508.950
 53.870   1229.832   1200.833     28.998    508.866   1200.860    508.866    508.866    508.866
 53.970   1116.000   1121.751     -5.751    508.783   1121.783    508.783    508.783    508.783
 54.070    995.000   1017.505    -22.505    508.703   1017.538    508.703    508.703    508.703
 54.170    911.000    910.962      0.038    508.625    910.991    508.625    508.625    508.625
 54.270    793.000    816.503    -23.503    508.549    816.528    508.549    508.549    508.549
 54.370    734.000    740.759     -6.759    508.475    740.778    508.475    508.475    508.475
 54.470    691.832    684.807      7.025    508.403    684.821    508.403    508.403    508.403
 54.570    689.000    646.306     42.694    508.333    646.316    508.333    508.333    508.333
 54.670    632.000    621.382     10.618    508.265    621.389    508.265    508.265    508.265
 54.770    620.000    606.062     13.938    508.199    606.067    508.199    508.199    508.199
 54.870    620.000    597.093     22.907    508.135    597.096    508.135    508.135    508.135
 54.970    641.734    592.187     49.547    508.073    592.189    508.073    508.073    508.073
 55.070    579.000    589.927    -10.927    508.012    589.929    508.012    508.012    508.012
 55.170    611.736    589.527     22.210    507.954    589.529    507.954    507.954    507.954
 55.270    610.000    590.602     19.398    507.897    590.604    507.897    507.897    507.897
 55.370    596.423    593.015      3.408    507.843    593.016    507.843    507.843    507.843
 55.470    629.000    596.784     32.216    507.790    596.785    507.790    507.790    507.790
 55.570    557.959    602.072    -44.113    507.739    602.073    507.739    507.739    507.739
 55.670    636.000    609.232     26.768    507.690    609.233    507.690    507.690    507.690
 55.770    621.000    618.943      2.057    507.643    618.943    507.643    507.643    507.643
 55.870    674.000    632.469     41.531    507.597    632.469    507.597    507.597    507.597
 55.970    593.000    652.087    -59.087    507.554    652.084    507.554    507.554    507.554
 56.070    709.157    681.655     27.502    507.512    681.649    507.512    507.512    507.512
 56.170    669.527    727.200    -57.673    507.473    727.190    507.473    507.473    507.473
 56.270    845.564    797.191     48.373    507.434    797.174    507.434    507.434    507.434
 56.370    882.000    902.000    -20.000    507.398    901.973    507.398    507.398    507.398
 56.470   1010.000   1052.111    -42.111    507.364   1052.074    507.364    507.364    507.364
 56.570   1162.000   1254.772    -92.772    507.331   1254.727    507.331    507.331    507.331
 56.670   1461.000   1509.595    -48.595    507.300   1509.547    507.300    507.300    507.300
 56.770   1703.299   1803.667   -100.368    507.271   1803.627    507.271    507.271    507.271
 56.870   2041.000   2106.863    -65.863    507.244   2106.849    507.244    507.244    507.244
 56.970   2357.000   2369.437    -12.437    507.218   2369.469    507.218    507.218    507.218
 57.070   2558.000   2529.435     28.565    507.194   2529.534    507.194    507.194    507.194
 57.170   2597.000   2538.785     58.215    507.172   2538.950    507.172    507.172    507.172
 57.270   2496.529   2394.636    101.893    507.151   2394.847    507.151    507.151    507.151
 57.370   2159.000   2141.695     17.305    507.132   2141.918    507.132    507.132    507.132
 57.470   1844.000   1842.288      1.712    507.115   1842.497    507.115    507.115    507.115
 57.570   1471.000   1548.193    -77.193    507.099   1548.370    507.099    507.099    507.099
 57.670   1366.466   1291.612     74.854    507.086   1291.752    507.086    507.086    507.086
 57.770   1028.960   1087.207    -58.248    507.073   1087.311    507.073    507.073    507.073
 57.870    910.000    936.808    -26.808    507.063    936.880    507.063    507.063    507.063
 57.970    870.000    834.430     35.570    507.054    834.476    507.054    507.054    507.054
 58.070    761.242    770.915     -9.673    507.046    770.941    507.046    507.046    507.046
 58.170    765.794    737.476     28.318    507.040    737.488    507.040    507.040    507.040
 58.270    728.000    727.654      0.346    507.036    727.653    507.036    507.036    507.036
 58.370    768.677    737.730     30.947    507.034    737.718    507.034    507.034    507.034
 58.470    748.000    766.019    -18.019    507.032    765.997    507.032    507.032    507.032
 58.570    804.090    811.564     -7.474    507.033    811.533    507.033    507.033    507.033
 58.670    919.000    872.639     46.361    507.035    872.602    507.035    507.035    507.035
 58.770    895.620    945.373    -49.753    507.038    945.334    507.038    507.038    507.038
 58.870   1022.000   1023.047     -1.047    507.043   1023.012    507.043    507.043    507.043
 58.970   1128.000   1097.240     30.760    507.050   1097.215    507.050    507.050    507.050
 59.070   1188.000   1160.680     27.320    507.058   1160.667    507.058    507.058    507.058
 59.170   1170.000   1208.379    -38.379    507.067   1208.380    507.067    507.067    507.067
 59.270   1280.000   1235.794     44.206    507.078   1235.809    507.078    507.078    507.078
 59.370   1299.000   1239.413     59.587    507.091   1239.437    507.091    507.091    507.091
 59.470   1288.000   1221.739     66.261    507.104   1221.761    507.104    507.104    507.104
 59.570   1218.000   1193.382     24.618    507.120   1193.388    507.120    507.120    507.120
 59.670   1242.072   1168.036     74.036    507.136   1168.014    507.136    507.136    507.136
 59.770   1203.972   1156.642     47.330    507.154   1156.583    507.154    507.154    507.154
 59.870   1192.000   1166.070     25.930    507.174   1165.969    507.174    507.174    507.174
 59.970   1263.000   1200.482     62.518    507.194   1200.335    507.194    507.194    507.194
 60.070   1310.000   1261.191     48.809    507.216   1260.998    507.216    507.216    507.216
 60.170   1264.998   1343.821    -78.823    507.240   1343.586    507.240    507.240    507.240
 60.270   1474.536   1435.385     39.151    507.265   1435.119    507.265    507.265    507.265
 60.370   1606.114   1513.954     92.160    507.291   1513.676    507.291    507.291    507.291
 60.470   1502.191   1553.193    -51.002    507.318   1552.930    507.318    507.318    507.318
 60.570   1581.000   1533.543     47.457    507.347   1533.318    507.347    507.347    507.347
 60.670   1509.461   1453.849     55.612    507.377   1453.672    507.377    507.377    507.377
 60.770   1351.000   1331.482     19.518    507.408   1331.352    507.408    507.408    507.408
 60.870   1194.654   1191.091      3.563    507.441   1191.000    507.441    507.441    507.441
 60.970   1056.000   1054.094      1.906    507.474   1054.033    507.474    507.474    507.474
 61.070    892.000    934.816    -42.816    507.509    934.774    507.509    507.509    507.509
 61.170    869.101    840.750     28.351    507.545    840.719    507.545    507.545    507.545
 61.270    773.000    774.198     -1.198    507.583    774.171    507.583    507.583    507.583
 61.370    751.246    734.332     16.914    507.621    734.302    507.621    507.621    507.621
 61.470    735.000    719.244     15.756    507.661    719.208    507.661    507.661    507.661
 61.570    739.000    727.484     11.516    507.702    727.436    507.702    507.702    507.702
 61.670    714.698    758.686    -43.988    507.744    758.623    507.744    507.744    507.744
 61.770    861.581    813.181     48.400    507.787    813.099    507.787    507.787    507.787
 61.870    870.000    890.783    -20.783    507.831    890.678    507.831    507.831    507.831
 61.970    969.966    989.138    -19.172    507.877    989.009    507.877    507.877    507.877
 62.070   1129.828   1102.052     27.777    507.923   1101.903    507.923    507.923    507.923
 62.170   1185.000   1218.109    -33.109    507.971   1217.947    507.971    507.971    507.971
 62.270   1222.000   1320.107    -98.107    508.019   1319.944    508.019    508.019    508.019
 62.370   1314.000   1387.067    -73.067    508.069   1386.919    508.069    508.069    508.069
 62.470   1372.000   1401.232    -29.232    508.119   1401.113    508.119    508.119    508.119
 62.570   1335.000   1357.876    -22.876    508.171   1357.789    508.171    508.171    508.171
 62.670   1202.000   1268.603    -66.603    508.224   1268.545    508.224    508.224    508.224
 62.770   1102.000   1153.936    -51.936    508.277   1153.901    508.277    508.277    508.277
 62.870   1040.000   1033.603      6.397    508.332   1033.582    508.332    508.332    508.332
 62.970    863.870    921.862    -57.992    508.387    921.851    508.387    508.387    508.387
 63.070    804.000    827.002    -23.002    508.444    826.995    508.444    508.444    508.444
 63.170    750.000    752.286     -2.286    508.501    752.281    508.501    508.501    508.501
 63.270    695.000    697.278     -2.278    508.560    697.273    508.560    508.560    508.560
 63.370    670.498    659.308     11.190    508.619    659.302    508.619    508.619    508.619
 63.470    695.022    634.846     60.176    508.679    634.837    508.679    508.679    508.679
 63.570    623.000    620.563      2.437    508.740    620.553    508.740    508.740    508.740
 63.670    653.000    613.975     39.025    508.802    613.963    508.802    508.802    508.802
 63.770    662.000    613.696     48.304    508.864    613.681    508.864    508.864    508.864
 63.870    636.000    619.421     16.579    508.928    619.401    508.928    508.928    508.928
 63.970    639.000    631.738      7.262    508.992    631.713    508.992    508.992    508.992
 64.070    660.604    651.823      8.780    509.057    651.789    509.057    509.057    509.057
 64.170    733.637    681.020     52.617    509.123    680.975    509.123    509.123    509.123
 64.270    708.000    720.324    -12.324    509.190    720.265    509.190    509.190    509.190
 64.370    748.737    769.796    -21.059    509.257    769.720    509.257    509.257    509.257
 64.470    824.000    827.947     -3.947    509.325    827.853    509.325    509.325    509.325
 64.570    865.134    891.141    -26.006    509.394    891.030    509.394    509.394    509.394
 64.670    977.000    953.130     23.870    509.464    953.006    509.464    509.464    509.464
 64.770   1013.408   1005.250      8.159    509.534   1005.119    509.534    509.534    509.534
 64.870   1040.000   1038.316      1.684    509.605   1038.188    509.605    509.605    509.605
 64.970   1067.000   1046.279     20.721    509.677   1046.165    509.677    509.677    509.677
 65.070   1043.947   1028.984     14.963    509.749   1028.891    509.749    509.749    509.749
 65.170   1053.050    991.663     61.387    509.822    991.595    509.822    509.822    509.822
 65.270    915.000    942.313    -27.313    509.896    942.270    509.896    509.896    509.896
 65.370    862.000    888.947    -26.947    509.970    888.927    509.970    509.970    509.970
 65.470    823.000    837.651    -14.651    510.044    837.649    510.044    510.044    510.044
 65.570    795.125    791.798      3.328    510.120    791.810    510.120    510.120    510.120
 65.670    783.000    752.352     30.648    510.196    752.373    510.196    510.196    510.196
 65.770    715.000    718.879     -3.879    510.272    718.904    510.272    510.272    510.272
 65.870    718.000    690.687     27.313    510.349    690.711    510.349    510.349    510.349
 65.970    621.713    667.333    -45.621    510.426    667.355    510.426    510.426    510.426
 66.070    704.235    648.526     55.708    510.504    648.543    510.504    510.504    510.504
 66.170    591.607    633.948    -42.341    510.583    633.961    510.583    510.583    510.583
 66.270    583.000    623.208    -40.208    510.662    623.216    510.662    510.662    510.662
 66.370    594.879    615.899    -21.020    510.741    615.904    510.741    510.741    510.741
 66.470    634.917    611.661     23.257    510.821    611.663    510.821    510.821    510.821
 66.570    643.859    610.208     33.651    510.901    610.210    510.901    510.901    510.901
 66.670    564.467    611.379    -46.912    510.982    611.380    510.982    510.982    510.982
 66.770    560.778    615.213    -54.434    511.063    615.214    511.063    511.063    511.063
 66.870    621.000    622.075     -1.075    511.144    622.077    511.144    511.144    511.144
 66.970    644.000    632.836     11.164    511.226    632.838    511.226    511.226    511.226
 67.070    611.000    649.081    -38.081    511.308    649.083    511.308    511.308    511.308
 67.170    669.359    673.345     -3.986    511.390    673.346    511.390    511.390    511.390
 67.270    755.130    709.296     45.834    511.473    709.297    511.473    511.473    511.473
 67.370    707.000    761.759    -54.759    511.556    761.758    511.556    511.556    511.556
 67.470    823.000    836.430    -13.430    511.639    836.427    511.639    511.639    511.639
 67.570    904.000    939.159    -35.159    511.723    939.155    511.723    511.723    511.723
 67.670   1140.342   1074.736     65.606    511.807   1074.734    511.807    511.807    511.807
 67.770   1194.000   1245.287    -51.287    511.891   1245.291    511.891    511.891    511.891
 67.870   1407.000   1448.479    -41.479    511.975   1448.494    511.975    511.975    511.975
 67.970   1618.000   1675.783    -57.783    512.060   1675.819    512.060    512.060    512.060
 68.070   1808.565   1910.961   -102.396    512.145   1911.028    512.145    512.145    512.145
 68.170   2144.000   2129.172     14.828    512.230   2129.282    512.230    512.230    512.230
 68.270   2284.000   2298.386    -14.386    512.315   2298.548    512.315    512.315    512.315
 68.370   2341.986   2386.300    -44.314    512.400   2386.518    512.400    512.400    512.400
 68.470   2356.789   2373.162    -16.373    512.485   2373.431    512.485    512.485    512.485
 68.570   2163.214   2262.239    -99.025    512.571   2262.538    512.571    512.571    512.571
 68.670   2055.000   2077.830    -22.830    512.657   2078.134    512.657    512.657    512.657
 68.770   1838.601   1853.064    -14.463    512.742   1853.352    512.742    512.742    512.742
 68.870   1662.000   1618.409     43.591    512.828   1618.666    512.828    512.828    512.828
 68.970   1399.000   1396.488      2.512    512.914   1396.706    512.914    512.914    512.914
 69.070   1134.000   1201.465    -67.465    513.000   1201.642    513.000    513.000    513.000
 69.170   1067.330   1040.152     27.178    513.086   1040.289    513.086    513.086    513.086
 69.270    891.000    913.583    -22.583    513.172    913.687    513.172    513.172    513.172
 69.370    854.789    818.794     35.994    513.258    818.870    513.258    513.258    513.258
 69.470    730.000    750.585    -20.585    513.343    750.639    513.343    513.343    513.343
 69.570    730.000    703.042     26.958    513.429    703.080    513.429    513.429    513.429
 69.670    716.697    670.618     46.079    513.515    670.645    513.515    513.515    513.515
 69.770    673.555    648.726     24.829    513.601    648.746    513.601    513.601    513.601
 69.870    614.504    633.923    -19.419    513.687    633.937    513.687    513.687    513.687
 69.970    653.000    623.817     29.183    513.772    623.828    513.772    513.772    513.772
 70.070    560.500    616.860    -56.359    513.858    616.868    513.858    513.858    513.858
 70.170    622.000    612.103      9.897    513.943    612.108    513.943    513.943    513.943
 70.270    628.000    609.003     18.997    514.029    609.007    514.029    514.029    514.029
 70.370    635.434    607.281     28.153    514.114    607.283    514.114    514.114    514.114
 70.470    650.793    606.838     43.955    514.199    606.839    514.199    514.199    514.199
 70.570    622.000    607.729     14.271    514.283    607.727    514.283    514.283    514.283
 70.670    651.454    610.174     41.280    514.368    610.170    514.368    514.368    514.368
 70.770    563.546    614.615    -51.069    514.452    614.608    514.452    514.452    514.452
 70.870    630.000    621.808      8.192    514.537    621.798    514.537    514.537    514.537
 70.970    659.000    632.939     26.061    514.620    632.925    514.620    514.620    514.620
 71.070    663.000    649.749     13.251    514.704    649.729    514.704    514.704    514.704
 71.170    693.000    674.612     18.388    514.788    674.583    514.788    514.788    514.788
 71.270    727.000    710.528     16.472    514.871    710.487    514.871    514.871    514.871
 71.370    704.768    760.933    -56.165    514.953    760.877    514.953    514.953    514.953
 71.470    771.000    829.296    -58.296    515.036    829.221    515.036    515.036    515.036
 71.570    895.000    918.464    -23.464    515.118    918.368    515.118    515.118    515.118
 71.670    951.000   1029.819    -78.819    515.200   1029.698    515.200    515.200    515.200
 71.770   1241.273   1162.343     78.930    515.281   1162.197    515.281    515.281    515.281
 71.870   1311.000   1311.726     -0.726    515.363   1311.557    515.363    515.363    515.363
 71.970   1465.000   1469.575     -4.575    515.443   1469.388    515.443    515.443    515.443
 72.070   1670.000   1622.824     47.176    515.524   1622.628    515.524    515.524    515.524
 72.170   1682.916   1753.816    -70.900    515.604   1753.623    515.604    515.604    515.604
 72.270   1819.000   1842.402    -23.402    515.683   1842.226    515.683    515.683    515.683
 72.370   1813.916   1871.557    -57.641    515.762   1871.409    515.762    515.762    515.762
 72.470   1833.000   1834.885     -1.885    515.841   1834.770    515.841    515.841    515.841
 72.570   1755.000   1740.110     14.890    515.919   1740.026    515.919    515.919    515.919
 72.670   1677.000   1604.956     72.044    515.996   1604.899    515.996    515.996    515.996
 72.770   1560.000   1449.556    110.444    516.074   1449.520    516.074    516.074    516.074
 72.870   1365.942   1291.147     74.795    516.150   1291.126    516.150    516.150    516.150
 72.970   1246.000   1142.266    103.734    516.226   1142.255    516.226    516.226    516.226
 73.070   1070.653   1010.811     59.842    516.302   1010.806    516.302    516.302    516.302
 73.170    967.000    900.677     66.323    516.377    900.675    516.377    516.377    516.377
 73.270    859.000    812.568     46.432    516.451    812.568    516.451    516.451    516.451
 73.370    746.000    744.907      1.093    516.525    744.907    516.525    516.525    516.525
 73.470    690.000    694.760     -4.760    516.598    694.760    516.598    516.598    516.598
 73.570    712.086    658.664     53.422    516.671    658.663    516.671    516.671    516.671
 73.670    703.000    633.243     69.757    516.743    633.243    516.743    516.743    516.743
 73.770    638.000    615.599     22.401    516.815    615.600    516.815    516.815    516.815
 73.870    556.196    603.465    -47.270    516.885    603.467    516.885    516.885    516.885
 73.970    639.000    595.203     43.797    516.955    595.207    516.955    516.955    516.955
 74.070    628.000    589.701     38.299    517.025    589.708    517.025    517.025    517.025
 74.170    646.905    586.237     60.668    517.093    586.246    517.093    517.093    517.093
 74.270    631.000    584.338     46.662    517.161    584.351    517.161    517.161    517.161
 74.370    595.268    583.670     11.598    517.229    583.688    517.229    517.229    517.229
 74.470    558.567    583.947    -25.380    517.295    583.971    517.295    517.295    517.295
 74.570    655.000    584.877     70.123    517.361    584.906    517.361    517.361    517.361
 74.670    635.475    586.114     49.361    517.426    586.149    517.426    517.426    517.426
 74.770    635.000    587.253     47.747    517.490    587.292    517.490    517.490    517.490
 74.870    663.000    587.850     75.150    517.554    587.893    517.554    517.554    517.554
 74.970    630.515    587.530     42.985    517.616    587.575    517.616    517.616    517.616
 75.070    562.184    586.122    -23.937    517.678    586.166    517.678    517.678    517.678
 75.170    658.000    583.751     74.249    517.739    583.792    517.739    517.739    517.739
 75.270    660.000    580.796     79.204    517.800    580.834    517.800    517.800    517.800
 75.370    657.000    577.766     79.234    517.859    577.798    517.859    517.859    517.859
 75.470    616.118    575.192     40.926    517.917    575.217    517.917    517.917    517.917
 75.570    635.000    573.585     61.415    517.975    573.604    517.975    517.975    517.975
 75.670    649.000    573.434     75.566    518.032    573.445    518.032    518.032    518.032
 75.770    522.473    575.203    -52.730    518.088    575.208    518.088    518.088    518.088
 75.870    596.000    579.327     16.673    518.142    579.324    518.142    518.142    518.142
 75.970    566.000    586.176    -20.176    518.196    586.166    518.196    518.196    518.196
 76.070    638.000    596.013     41.987    518.249    595.996    518.249    518.249    518.249
 76.170    592.597    608.923    -16.326    518.301    608.898    518.301    518.301    518.301
 76.270    653.000    624.739     28.261    518.353    624.706    518.353    518.353    518.353
 76.370    687.000    642.964     44.036    518.403    642.923    518.403    518.403    518.403
 76.470    615.049    662.701    -47.652    518.452    662.652    518.452    518.452    518.452
 76.570    737.000    682.596     54.404    518.500    682.540    518.500    518.500    518.500
 76.670    740.000    700.822     39.178    518.547    700.761    518.547    518.547    518.547
 76.770    732.000    715.191     16.809    518.593    715.127    518.593    518.593    518.593
 76.870    723.183    723.533     -0.350    518.638    723.469    518.638    518.638    518.638
 76.970    704.086    724.340    -20.254    518.682    724.280    518.682    518.682    518.682
 77.070    703.000    717.385    -14.385    518.725    717.331    518.725    518.725    518.725
 77.170    711.000    703.824      7.176    518.767    703.777    518.767    518.767    518.767
 77.270    698.000    685.692     12.308    518.808    685.652    518.808    518.808    518.808
 77.370    679.000    665.208     13.792    518.847    665.175    518.847    518.847    518.847
 77.470    703.308    644.294     59.014    518.886    644.268    518.886    518.886    518.886
 77.570    637.000    624.401     12.599    518.923    624.381    518.923    518.923    518.923
 77.670    600.000    606.496     -6.496    518.960    606.481    518.960    518.960    518.960
 77.770    563.015    591.115    -28.100    518.995    591.104    518.995    518.995    518.995
 77.870    626.526    578.439     48.087    519.029    578.430    519.029    519.029    519.029
 77.970    594.148    568.372     25.776    519.062    568.365    519.062    519.062    519.062
 78.070    530.000    560.639    -30.639    519.093    560.634    519.093    519.093    519.093
 78.170    568.311    554.867     13.444    519.124    554.864    519.124    519.124    519.124
 78.270    572.045    550.658     21.387    519.153    550.655    519.153    519.153    519.153
 78.370    553.205    547.640      5.565    519.181    547.638    519.181    519.181    519.181
 78.470    578.391    545.499     32.892    519.208    545.496    519.208    519.208    519.208
 78.570    540.000    543.982     -3.982    519.234    543.980    519.234    519.234    519.234
 78.670    528.000    542.916    -14.916    519.258    542.914    519.258    519.258    519.258
 78.770    560.000    542.173     17.827    519.281    542.171    519.281    519.281    519.281
 78.870    554.000    541.671     12.329    519.303    541.670    519.303    519.303    519.303
 78.970    529.000    541.363    -12.363    519.324    541.362    519.324    519.324    519.324
 79.070    490.255    541.227    -50.972    519.343    541.226    519.343    519.343    519.343
 79.170    565.000    541.259     23.741    519.361    541.258    519.361    519.361    519.361
 79.270    560.000    541.466     18.534    519.378    541.465    519.378    519.378    519.378
 79.370    566.000    541.870     24.130    519.393    541.868    519.393    519.393    519.393
 79.470    505.149    542.500    -37.350    519.407    542.498    519.407    519.407    519.407
 79.570    515.894    543.396    -27.502    519.420    543.394    519.420    519.420    519.420
 79.670    527.022    544.611    -17.589    519.431    544.609    519.431    519.431    519.431
 79.770    559.000    546.212     12.788    519.441    546.209    519.441    519.441    519.441
 79.870    553.000    548.288      4.712    519.450    548.285    519.450    519.450    519.450
 79.970    560.000    550.956      9.044    519.457    550.952    519.457    519.457    519.457
 80.070    567.861    554.364     13.497    519.463    554.360    519.463    519.463    519.463
 80.170    581.353    558.698     22.656    519.467    558.693    519.467    519.467    519.467
 80.270    545.776    564.179    -18.402    519.470    564.174    519.470    519.470    519.470
 80.370    532.279    571.058    -38.779    519.472    571.054    519.472    519.472    519.472
 80.470    586.000    579.616      6.384    519.472    579.613    519.472    519.472    519.472
 80.570    603.000    590.144     12.856    519.471    590.142    519.471    519.471    519.471
 80.670    586.961    602.910    -15.950    519.469    602.911    519.469    519.469    519.469
 80.770    570.663    618.088    -47.425    519.464    618.093    519.464    519.464    519.464
 80.870    632.000    635.664     -3.664    519.459    635.673    519.459    519.459    519.459
 80.970    643.854    655.353    -11.499    519.452    655.366    519.452    519.452    519.452
 81.070    624.189    676.547    -52.358    519.444    676.566    519.444    519.444    519.444
 81.170    683.001    698.317    -15.317    519.434    698.343    519.434    519.434    519.434
 81.270    689.000    719.497    -30.497    519.422    719.529    519.422    519.422    519.422
 81.370    709.225    738.846    -29.622    519.409    738.885    519.409    519.409    519.409
 81.470    698.000    755.228    -57.228    519.395    755.273    519.395    519.395    519.395
 81.570    777.536    767.729      9.807    519.379    767.780    519.379    519.379    519.379
 81.670    781.000    775.735      5.265    519.361    775.791    519.361    519.361    519.361
 81.770    782.000    778.987      3.013    519.342    779.049    519.342    519.342    519.342
 81.870    780.000    777.587      2.413    519.322    777.653    519.322    519.322    519.322
 81.970    711.572    771.875    -60.302    519.300    771.944    519.300    519.300    519.300
 82.070    723.992    762.322    -38.329    519.276    762.393    519.276    519.276    519.276
 82.170    736.000    749.530    -13.530    519.251    749.603    519.251    519.251    519.251
 82.270    706.023    734.288    -28.265    519.224    734.360    519.224    519.224    519.224
 82.370    728.755    717.512     11.242    519.196    717.582    519.196    519.196    519.196
 82.470    645.060    700.072    -55.011    519.166    700.139    519.166    519.166    519.166
 82.570    680.410    682.628     -2.218    519.134    682.692    519.134    519.134    519.134
 82.670    673.000    665.612      7.388    519.101    665.671    519.101    519.101    519.101
 82.770    646.000    649.322     -3.322    519.066    649.375    519.066    519.066    519.066
 82.870    586.069    634.045    -47.976    519.030    634.093    519.030    519.030    519.030
 82.970    610.060    620.104    -10.044    518.992    620.145    518.992    518.992    518.992
 83.070    585.000    607.824    -22.824    518.952    607.858    518.952    518.952    518.952
 83.170    598.000    597.476      0.524    518.911    597.502    518.911    518.911    518.911
 83.270    560.000    589.243    -29.243    518.868    589.261    518.868    518.868    518.868
 83.370    585.000    583.213      1.787    518.824    583.223    518.824    518.824    518.824
 83.470    620.000    579.379     40.621    518.778    579.380    518.778    518.778    518.778
 83.570    600.000    577.641     22.359    518.730    577.634    518.730    518.730    518.730
 83.670    550.000    577.803    -27.803    518.680    577.789    518.680    518.680    518.680
 83.770    606.832    579.577     27.255    518.629    579.555    518.629    518.629    518.629
 83.870    605.645    582.576     23.069    518.576    582.547    518.576    518.576    518.576
 83.970    588.765    586.296      2.469    518.522    586.260    518.522    518.522    518.522
 84.070    574.048    590.230    -16.181    518.466    590.188    518.466    518.466    518.466
 84.170    589.000    593.781     -4.781    518.408    593.735    518.408    518.408    518.408
 84.270    598.713    596.313      2.400    518.348    596.264    518.348    518.348    518.348
 84.370    628.641    597.300     31.341    518.287    597.251    518.287    518.287    518.287
 84.470    571.000    596.438    -25.438    518.224    596.390    518.224    518.224    518.224
 84.570    621.924    593.717     28.207    518.159    593.672    518.159    518.159    518.159
 84.670    567.039    589.407    -22.368    518.093    589.366    518.093    518.093    518.093
 84.770    603.000    583.953     19.047    518.025    583.917    518.025    518.025    518.025
 84.870    522.000    577.851    -55.851    517.955    577.820    517.955    517.955    517.955
 84.970    555.000    571.558    -16.558    517.884    571.532    517.884    517.884    517.884
 85.070    518.280    565.449    -47.169    517.810    565.427    517.810    517.810    517.810
 85.170    514.199    559.805    -45.606    517.736    559.787    517.736    517.736    517.736
 85.270    556.000    554.814      1.186    517.659    554.800    517.659    517.659    517.659
 85.370    555.000    550.578      4.422    517.580    550.566    517.580    517.580    517.580
 85.470    502.000    547.126    -45.126    517.500    547.116    517.500    517.500    517.500
 85.570    532.748    544.436    -11.687    517.418    544.427    517.418    517.418    517.418
 85.670    537.141    542.447     -5.306    517.335    542.439    517.335    517.335    517.335
 85.770    525.000    541.086    -16.086    517.249    541.078    517.249    517.249    517.249
 85.870    556.000    540.277     15.723    517.162    540.269    517.162    517.162    517.162
 85.970    560.000    539.961     20.039    517.073    539.953    517.073    517.073    517.073
 86.070    588.449    540.101     48.349    516.982    540.092    516.982    516.982    516.982
 86.170    537.000    540.689     -3.689    516.890    540.679    516.890    516.890    516.890
 86.270    510.000    541.748    -31.748    516.796    541.736    516.796    516.796    516.796
 86.370    558.000    543.335     14.665    516.700    543.321    516.700    516.700    516.700
 86.470    579.000    545.534     33.466    516.602    545.516    516.602    516.602    516.602
 86.570    540.000    548.445     -8.445    516.502    548.424    516.502    516.502    516.502
 86.670    600.283    552.183     48.099    516.401    552.157    516.401    516.401    516.401
 86.770    543.000    556.859    -13.859    516.298    556.827    516.298    516.298    516.298
 86.870    578.000    562.564     15.436    516.193    562.525    516.193    516.193    516.193
 86.970    539.628    569.352    -29.725    516.086    569.305    516.086    516.086    516.086
 87.070    584.000    577.218      6.782    515.978    577.162    515.978    515.978    515.978
 87.170    615.000    586.070     28.930    515.868    586.004    515.868    515.868    515.868
 87.270    594.000    595.710     -1.710    515.756    595.633    515.756    515.756    515.756
 87.370    585.000    605.818    -20.818    515.642    605.730    515.642    515.642    515.642
 87.470    655.000    615.938     39.062    515.526    615.840    515.526    515.526    515.526
 87.570    585.391    625.482    -40.091    515.409    625.376    515.409    515.409    515.409
 87.670    581.677    633.757    -52.079    515.290    633.644    515.290    515.290    515.290
 87.770    654.000    640.045     13.955    515.169    639.929    515.169    515.169    515.169
 87.870    662.000    643.747     18.253    515.046    643.632    515.046    515.046    515.046
 87.970    687.126    644.545     42.582    514.922    644.433    514.922    514.922    514.922
 88.070    636.000    642.498     -6.498    514.795    642.395    514.795    514.795    514.795
 88.170    641.442    638.028      3.414    514.667    637.935    514.667    514.667    514.667
 88.270    610.000    631.790    -21.790    514.537    631.710    514.537    514.537    514.537
 88.370    612.000    624.538    -12.538    514.406    624.471    514.406    514.406    514.406
 88.470    653.750    617.018     36.732    514.272    616.963    514.272    514.272    514.272
 88.570    615.000    609.906      5.094    514.137    609.864    514.137    514.137    514.137
 88.670    579.000    603.780    -24.780    514.000    603.750    514.000    514.000    514.000
 88.770    621.957    599.080     22.877    513.861    599.061    513.861    513.861    513.861
 88.870    604.000    596.093      7.907    513.721    596.085    513.721    513.721    513.721
 88.970    559.258    594.947    -35.689    513.578    594.949    513.578    513.578    513.578
 89.070    577.671    595.608    -17.938    513.434    595.619    513.434    513.434    513.434
 89.170    557.000    597.892    -40.892    513.288    597.911    513.288    513.288    513.288
 89.270    601.000    601.471     -0.471    513.141    601.499    513.141    513.141    513.141
 89.370    607.000    605.896      1.104    512.991    605.932    512.991    512.991    512.991
 89.470    639.339    610.613     28.727    512.840    610.656    512.840    512.840    512.840
 89.570    649.307    614.990     34.317    512.687    615.040    512.687    512.687    512.687
 89.670    609.000    618.375     -9.375    512.533    618.432    512.533    512.533    512.533
 89.770    597.396    620.184    -22.787    512.376    620.244    512.376    512.376    512.376
 89.870    631.423    620.005     11.417    512.218    620.069    512.218    512.218    512.218
 89.970    625.000    617.703      7.297    512.058    617.767    512.058    512.058    512.058
 90.070    604.000    613.429     -9.429    511.896    613.492    511.896    511.896    511.896
 90.170    561.213    607.564    -46.351    511.733    607.623    511.733    511.733    511.733
 90.270    579.000    600.602    -21.602    511.567    600.656    511.567    511.567    511.567
 90.370    580.000    593.048    -13.048    511.400    593.097    511.400    511.400    511.400
 90.470    560.000    585.358    -25.358    511.232    585.401    511.232    511.232    511.232
 90.570    542.000    577.906    -35.906    511.061    577.943    511.061    511.061    511.061
 90.670    601.000    570.977     30.023    510.889    571.008    510.889    510.889    510.889
 90.770    574.000    564.770      9.230    510.715    564.795    510.715    510.715    510.715
 90.870    538.000    559.406    -21.406    510.540    559.425    510.540    510.540    510.540
 90.970    535.000    554.933    -19.933    510.362    554.948    510.362    510.362    510.362
 91.070    528.000    551.349    -23.349    510.183    551.360    510.183    510.183    510.183
 91.170    553.000    548.609      4.391    510.003    548.617    510.003    510.003    510.003
 91.270    536.000    546.650    -10.650    509.820    546.655    509.820    509.820    509.820
 91.370    499.000    545.399    -46.399    509.636    545.402    509.636    509.636    509.636
 91.470    513.185    544.795    -31.610    509.450    544.796    509.450    509.450    509.450
 91.570    529.184    544.793    -15.609    509.263    544.792    509.263    509.263    509.263
 91.670    601.601    545.376     56.225    509.074    545.374    509.074    509.074    509.074
 91.770    526.000    546.560    -20.560    508.883    546.556    508.883    508.883    508.883
 91.870    517.000    548.394    -31.394    508.690    548.389    508.690    508.690    508.690
 91.970    542.679    550.963     -8.284    508.496    550.955    508.496    508.496    508.496
 92.070    539.000    554.378    -15.378    508.300    554.369    508.300    508.300    508.300
 92.170    548.000    558.779    -10.779    508.103    558.767    508.103    508.103    508.103
 92.270    511.000    564.318    -53.318    507.904    564.302    507.904    507.904    507.904
 92.370    566.000    571.150     -5.150    507.703    571.130    507.703    507.703    507.703
 92.470    558.000    579.419    -21.419    507.501    579.395    507.501    507.501    507.501
 92.570    646.764    589.245     57.519    507.297    589.216    507.297    507.297    507.297
 92.670    570.000    600.704    -30.704    507.091    600.668    507.091    507.091    507.091
 92.770    608.000    613.811     -5.811    506.884    613.770    506.884    506.884    506.884
 92.870    632.000    628.512      3.488    506.675    628.464    506.675    506.675    506.675
 92.970    621.090    644.662    -23.572    506.465    644.607    506.465    506.465    506.465
 93.070    609.000    662.017    -53.017    506.253    661.955    506.253    506.253    506.253
 93.170    633.000    680.223    -47.223    506.040    680.155    506.040    506.040    506.040
 93.270    704.000    698.825      5.175    505.825    698.751    505.825    505.825    505.825
 93.370    690.000    717.293    -27.293    505.608    717.214    505.608    505.608    505.608
 93.470    777.334    735.100     42.235    505.390    735.017    505.390    505.390    505.390
 93.570    761.000    751.823      9.177    505.171    751.739    505.171    505.171    505.171
 93.670    793.065    767.254     25.811    504.949    767.168    504.949    504.949    504.949
 93.770    747.000    781.432    -34.432    504.727    781.347    504.727    504.727    504.727
 93.870    760.000    794.594    -34.594    504.503    794.510    504.503    504.503    504.503
 93.970    811.000    807.045      3.955    504.277    806.962    504.277    504.277    504.277
 94.070    791.000    819.036    -28.036    504.050    818.955    504.050    504.050    504.050
 94.170    892.757    830.700     62.057    503.821    830.622    503.821    503.821    503.821
 94.270    875.000    842.065     32.935    503.591    841.988    503.591    503.591    503.591
 94.370    824.000    853.124    -29.124    503.360    853.050    503.360    503.360    503.360
 94.470    794.935    863.908    -68.973    503.127    863.837    503.127    503.127    503.127
 94.570    908.134    874.482     33.652    502.893    874.415    502.893    502.893    502.893
 94.670    896.000    884.868     11.132    502.657    884.804    502.657    502.657    502.657
 94.770    881.000    894.911    -13.911    502.420    894.851    502.420    502.420    502.420
 94.870    887.810    904.184    -16.374    502.181    904.129    502.181    502.181    502.181
 94.970    944.000    911.927     32.073    501.941    911.877    501.941    501.941    501.941
 95.070    973.000    917.191     55.809    501.700    917.147    501.700    501.700    501.700
 95.170    911.000    918.845     -7.845    501.458    918.809    501.458    501.458    501.458
 95.270    860.000    915.895    -55.895    501.214    915.867    501.214    501.214    501.214
 95.370    849.000    907.742    -58.742    500.968    907.722    500.968    500.968    500.968
 95.470    874.000    894.389    -20.389    500.722    894.377    500.722    500.722    500.722
 95.570    924.259    876.498     47.761    500.474    876.492    500.474    500.474    500.474
 95.670    890.000    855.263     34.737    500.225    855.262    500.225    500.225    500.225
 95.770    860.000    832.198     27.802    499.974    832.200    499.974    499.974    499.974
 95.870    785.000    808.924    -23.924    499.723    808.928    499.723    499.723    499.723
 95.970    837.532    787.034     50.498    499.470    787.038    499.470    499.470    499.470
 96.070    809.350    768.009     41.341    499.216    768.012    499.216    499.216    499.216
 96.170    789.539    753.191     36.348    498.960    753.191    498.960    498.960    498.960
 96.270    701.691    743.761    -42.070    498.704    743.756    498.704    498.704    498.704
 96.370    755.000    740.730     14.270    498.446    740.719    498.446    498.446    498.446
 96.470    681.000    744.929    -63.929    498.187    744.912    498.187    498.187    498.187
 96.570    764.034    757.003      7.031    497.927    756.979    497.927    497.927    497.927
 96.670    773.000    777.391     -4.391    497.666    777.358    497.666    497.666    497.666
 96.770    737.215    806.311    -69.096    497.404    806.269    497.404    497.404    497.404
 96.870    875.000    843.731     31.269    497.140    843.680    497.140    497.140    497.140
 96.970    842.402    889.332    -46.930    496.876    889.272    496.876    496.876    496.876
 97.070    883.123    942.467    -59.344    496.610    942.399    496.610    496.610    496.610
 97.170    944.000   1002.111    -58.111    496.344   1002.035    496.344    496.344    496.344
 97.270   1047.000   1066.816    -19.816    496.076   1066.734    496.076    496.076    496.076
 97.370   1092.000   1134.671    -42.671    495.808   1134.584    495.808    495.808    495.808
 97.470   1232.000   1203.278     28.722    495.538   1203.189    495.538    495.538    495.538
 97.570   1290.000   1269.753     20.247    495.267   1269.665    495.267    495.267    495.267
 97.670   1272.292   1330.799    -58.507    494.996   1330.715    494.996    494.996    494.996
 97.770   1419.000   1382.893     36.107    494.723   1382.819    494.723    494.723    494.723
 97.870   1445.000   1422.617     22.383    494.450   1422.555    494.450    494.450    494.450
 97.970   1524.000   1447.162     76.838    494.175   1447.116    494.175    494.175    494.175
 98.070   1473.000   1454.856     18.144    493.900   1454.827    493.900    493.900    493.900
 98.170   1492.000   1445.503     46.497    493.624   1445.493    493.624    493.624    493.624
 98.270   1441.000   1420.399     20.601    493.347   1420.406    493.347    493.347    493.347
 98.370   1317.992   1382.015    -64.023    493.069   1382.037    493.069    493.069    493.069
 98.470   1366.000   1333.526     32.474    492.790   1333.560    492.790    492.790    492.790
 98.570   1282.000   1278.366      3.634    492.511   1278.408    492.511    492.511    492.511
 98.670   1190.000   1219.902    -29.902    492.231   1219.949    492.231    492.231    492.231
 98.770   1180.290   1161.246     19.044    491.950   1161.294    491.950    491.950    491.950
 98.870   1161.407   1105.160     56.247    491.668   1105.207    491.668    491.668    491.668
 98.970   1011.705   1054.025    -42.320    491.385   1054.068    491.385    491.385    491.385
 99.070   1042.520   1009.851     32.669    491.102   1009.890    491.102    491.102    491.102
 99.170    968.000    974.303     -6.303    490.819    974.335    490.819    490.819    490.819
 99.270    955.000    948.694      6.306    490.534    948.719    490.534    490.534    490.534
 99.370    958.463    934.099     24.364    490.249    934.116    490.249    490.249    490.249
 99.470    881.109    931.316    -50.206    489.963    931.326    489.963    489.963    489.963
 99.570    889.000    940.776    -51.776    489.677    940.780    489.677    489.677    489.677
 99.670    955.000    962.662     -7.662    489.390    962.661    489.390    489.390    489.390
 99.770    980.000    996.882    -16.882    489.103    996.877    489.103    489.103    489.103
 99.870   1009.000   1043.080    -34.080    488.815   1043.072    488.815    488.815    488.815
 99.970   1045.033   1100.567    -55.534    488.527   1100.560    488.527    488.527    488.527
100.070   1148.000   1168.330    -20.330    488.238   1168.325    488.238    488.238    488.238
100.170   1210.000   1244.981    -34.981    487.949   1244.980    487.949    487.949    487.949
100.270   1306.000   1328.716    -22.716    487.659   1328.724    487.659    487.659    487.659
100.370   1402.203   1417.290    -15.087    487.369   1417.309    487.369    487.369    487.369
100.470   1620.000   1508.023    111.977    487.079   1508.056    487.079    487.079    487.079
100.570   1718.000   1597.884    120.116    486.788   1597.935    486.788    486.788    486.788
100.670   1758.000   1683.675     74.325    486.497   1683.746    486.497    486.497    486.497
100.770   1726.000   1762.305    -36.305    486.205   1762.399    486.205    486.205    486.205
100.870   1759.734   1831.084    -71.350    485.913   1831.201    485.913    485.913    485.913
100.970   1967.000   1887.915     79.085    485.622   1888.055    485.622    485.622    485.622
101.070   2043.000   1931.305    111.695    485.329   1931.466    485.329    485.329    485.329
101.170   2060.000   1960.215     99.785    485.037   1960.396    485.037    485.037    485.037
101.270   1970.229   1973.881     -3.653    484.745   1974.079    484.745    484.745    484.745
101.370   1943.000   1971.766    -28.766    484.452   1971.977    484.452    484.452    484.452
101.470   2004.000   1953.723     50.277    484.159   1953.944    484.159    484.159    484.159
101.570   1892.000   1920.303    -28.303    483.866   1920.530    483.866    483.866    483.866
101.670   1909.000   1873.027     35.973    483.573   1873.256    483.573    483.573    483.573
101.770   1779.660   1814.434    -34.774    483.280   1814.660    483.280    483.280    483.280
101.870   1724.000   1747.838    -23.838    482.987   1748.057    482.987    482.987    482.987
101.970   1643.909   1676.893    -32.984    482.694   1677.103    482.694    482.694    482.694
102.070   1610.000   1605.128      4.872    482.402   1605.326    482.402    482.402    482.402
102.170   1482.610   1535.592    -52.982    482.109   1535.776    482.109    482.109    482.109
102.270   1509.020   1470.650     38.370    481.816   1470.820    481.816    481.816    481.816
102.370   1336.000   1411.912    -75.912    481.523   1412.067    481.523    481.523    481.523
102.470   1376.273   1360.232     16.041    481.231   1360.374    481.231    481.231    481.231
102.570   1309.000   1315.753     -6.753    480.939   1315.883    480.939    480.939    480.939
102.670   1269.744   1277.970     -8.226    480.647   1278.090    480.647    480.647    480.647
102.770   1178.273   1245.801    -67.528    480.355   1245.913    480.355    480.355    480.355
102.870   1191.000   1217.752    -26.752    480.064   1217.857    480.064    480.064    480.064
102.970   1229.000   1192.047     36.953    479.773   1192.148    479.773    479.773    479.773
103.070   1150.000   1166.827    -16.827    479.482   1166.925    479.482    479.482    479.482
103.170   1142.509   1140.447      2.062    479.191   1140.544    479.191    479.191    479.191
103.270   1170.444   1111.699     58.745    478.901   1111.795    478.901    478.901    478.901
103.370   1101.172   1079.955     21.217    478.612   1080.050    478.612    478.612    478.612
103.470   1008.000   1045.176    -37.176    478.323   1045.269    478.323    478.323    478.323
103.570   1037.225   1007.799     29.426    478.034   1007.889    478.034    478.034    478.034
103.670    975.898    968.569      7.329    477.746    968.656    477.746    477.746    477.746
103.770    862.854    928.370    -65.516    477.459    928.453    477.459    477.459    477.459
103.870    872.000    888.099    -16.099    477.172    888.176    477.172    477.172    477.172
103.970    862.658    848.588     14.070    476.886    848.659    476.886    476.886    476.886
104.070    836.818    810.567     26.250    476.600    810.633    476.600    476.600    476.600
104.170    760.000    774.642    -14.642    476.315    774.700    476.315    476.315    476.315
104.270    697.273    741.281    -44.008    476.031    741.334    476.031    476.031    476.031
104.370    706.000    710.821     -4.821    475.748    710.868    475.748    475.748    475.748
104.470    705.000    683.460     21.540    475.465    683.501    475.465    475.465    475.465
104.570    650.000    659.274     -9.274    475.184    659.309    475.184    475.184    475.184
104.670    656.583    638.238     18.346    474.903    638.267    474.903    474.903    474.903
104.770    605.000    620.223    -15.223    474.623    620.248    474.623    474.623    474.623
104.870    575.691    605.039    -29.348    474.344    605.059    474.344    474.344    474.344
104.970    599.000    592.449      6.551    474.066    592.466    474.066    474.066    474.066
105.070    567.371    582.195    -14.824    473.789    582.208    473.789    473.789    473.789
105.170    586.000    574.014     11.986    473.513    574.023    473.513    473.513    473.513
105.270    539.274    567.656    -28.382    473.239    567.663    473.239    473.239    473.239
105.370    522.413    562.897    -40.484    472.965    562.901    472.965    472.965    472.965
105.470    514.830    559.543    -44.714    472.693    559.545    472.693    472.693    472.693
105.570    584.000    557.441     26.559    472.421    557.441    472.421    472.421    472.421
105.670    546.470    556.471    -10.002    472.151    556.469    472.151    472.151    472.151
105.770    546.826    556.553     -9.728    471.883    556.549    471.883    471.883    471.883
105.870    540.000    557.637    -17.637    471.615    557.630    471.615    471.615    471.615
105.970    540.071    559.702    -19.631    471.349    559.693    471.349    471.349    471.349
106.070    573.269    562.747     10.522    471.084    562.735    471.084    471.084    471.084
106.170    567.000    566.788      0.212    470.821    566.774    470.821    470.821    470.821
106.270    601.000    571.849     29.151    470.559    571.832    470.559    470.559    470.559
106.370    601.533    577.953     23.580    470.299    577.933    470.299    470.299    470.299
106.470    552.016    585.113    -33.097    470.041    585.090    470.041    470.041    470.041
106.570    616.000    593.323     22.677    469.783    593.297    469.783    469.783    469.783
106.670    615.000    602.548     12.452    469.528    602.518    469.528    469.528    469.528
106.770    594.000    612.714    -18.714    469.274    612.682    469.274    469.274    469.274
106.870    658.859    623.707     35.153    469.022    623.671    469.022    469.022    469.022
106.970    597.000    635.354    -38.354    468.772    635.315    468.772    468.772    468.772
107.070    634.000    647.440    -13.440    468.523    647.398    468.523    468.523    468.523
107.170    709.000    659.738     49.262    468.277    659.693    468.277    468.277    468.277
107.270    693.877    671.923     21.955    468.032    671.876    468.032    468.032    468.032
107.370    735.129    683.647     51.482    467.789    683.599    467.789    467.789    467.789
107.470    673.000    694.541    -21.541    467.548    694.493    467.548    467.548    467.548
107.570    682.000    704.236    -22.236    467.310    704.189    467.310    467.310    467.310
107.670    707.000    712.402     -5.402    467.073    712.356    467.073    467.073    467.073
107.770    745.000    718.792     26.208    466.838    718.748    466.838    466.838    466.838
107.870    704.000    723.288    -19.288    466.606    723.246    466.606    466.606    466.606
107.970    695.000    725.927    -30.927    466.375    725.889    466.375    466.375    466.375
108.070    677.000    726.903    -49.903    466.147    726.868    466.147    466.147    466.147
108.170    723.000    726.535     -3.535    465.922    726.504    465.922    465.922    465.922
108.270    774.015    725.217     48.798    465.698    725.190    465.698    465.698    465.698
108.370    719.298    723.366     -4.068    465.477    723.343    465.477    465.477    465.477
108.470    711.000    721.370    -10.370    465.258    721.351    465.258    465.258    465.258
108.570    695.438    719.555    -24.116    465.042    719.540    465.042    465.042    465.042
108.670    696.000    718.164    -22.164    464.829    718.153    464.829    464.829    464.829
108.770    734.000    717.345     16.655    464.617    717.338    464.617    464.617    464.617
108.870    744.000    717.143     26.857    464.409    717.140    464.409    464.409    464.409
108.970    698.000    717.503    -19.503    464.203    717.503    464.203    464.203    464.203
109.070    686.000    718.269    -32.269    464.000    718.273    464.000    464.000    464.000
109.170    724.000    719.196      4.804    463.800    719.203    463.800    463.800    463.800
109.270    670.000    719.964    -49.964    463.602    719.974    463.602    463.602    463.602
109.370    753.000    720.200     32.800    463.407    720.213    463.407    463.407    463.407
109.470    731.000    719.521     11.479    463.215    719.536    463.215    463.215    463.215
109.570    680.709    717.578    -36.869    463.026    717.596    463.026    463.026    463.026
109.670    667.647    714.108    -46.461    462.840    714.129    462.840    462.840    462.840
109.770    683.000    708.973    -25.973    462.658    708.995    462.658    462.658    462.658
109.870    701.000    702.176     -1.176    462.478    702.199    462.478    462.478    462.478
109.970    643.884    693.856    -49.972    462.301    693.879    462.301    462.301    462.301
110.070    723.000    684.253     38.747    462.128    684.277    462.128    462.128    462.128
110.170    684.000    673.674     10.326    461.958    673.697    461.958    461.958    461.958
110.270    685.000    662.445     22.555    461.791    662.467    461.791    461.791    461.791
110.370    613.466    650.892    -37.425    461.627    650.913    461.627    461.627    461.627
110.470    671.810    639.314     32.496    461.467    639.333    461.467    461.467    461.467
110.570    596.398    627.979    -31.582    461.310    627.997    461.310    461.310    461.310
110.670    607.000    617.115    -10.115    461.157    617.131    461.157    461.157    461.157
110.770    616.000    606.910      9.090    461.008    606.923    461.008    461.008    461.008
110.870    582.541    597.509    -14.968    460.862    597.520    460.862    460.862    460.862
110.970    615.000    589.020     25.980    460.719    589.029    460.719    460.719    460.719
111.070    557.532    581.511    -23.979    460.581    581.518    460.581    460.581    460.581
111.170    578.000    575.016      2.984    460.446    575.022    460.446    460.446    460.446
111.270    585.000    569.538     15.462    460.315    569.541    460.315    460.315    460.315
111.370    623.000    565.052     57.948    460.188    565.054    460.188    460.188    460.188
111.470    528.373    561.512    -33.139    460.065    561.512    460.065    460.065    460.065
111.570    558.000    558.858     -0.858    459.946    558.857    459.946    459.946    459.946
111.670    578.000    557.015     20.985    459.830    557.013    459.830    459.830    459.830
111.770    607.000    555.907     51.093    459.719    555.904    459.719    459.719    459.719
111.870    603.000    555.455     47.545    459.613    555.450    459.613    459.613    459.613
111.970    573.368    555.580     17.789    459.510    555.574    459.510    459.510    459.510
112.070    540.232    556.207    -15.975    459.412    556.200    459.412    459.412    459.412
112.170    599.000    557.270     41.730    459.318    557.263    459.318    459.318    459.318
112.270    538.372    558.708    -20.336    459.228    558.699    459.228    459.228    459.228
112.370    522.405    560.478    -38.074    459.143    560.469    459.143    459.143    459.143
112.470    506.000    562.545    -56.545    459.062    562.535    459.062    459.062    459.062
112.570    535.000    564.882    -29.882    458.986    564.872    458.986    458.986    458.986
112.670    570.851    567.481      3.370    458.915    567.471    458.915    458.915    458.915
112.770    583.000    570.344     12.656    458.848    570.333    458.848    458.848    458.848
112.870    604.000    573.488     30.512    458.786    573.477    458.786    458.786    458.786
112.970    531.855    576.936    -45.080    458.729    576.925    458.729    458.729    458.729
113.070    596.000    580.754     15.246    458.677    580.743    458.677    458.677    458.677
113.170    550.000    584.998    -34.998    458.629    584.986    458.629    458.629    458.629
113.270    605.000    589.747     15.253    458.587    589.735    458.587    458.587    458.587
113.370    562.242    595.108    -32.867    458.550    595.095    458.550    458.550    458.550
113.470    588.000    601.216    -13.216    458.518    601.202    458.518    458.518    458.518
113.570    633.028    608.244     24.784    458.491    608.229    458.491    458.491    458.491
113.670    665.087    616.412     48.675    458.469    616.396    458.469    458.469    458.469
113.770    668.150    626.001     42.149    458.452    625.982    458.452    458.452    458.452
113.870    684.000    637.361     46.639    458.441    637.340    458.441    458.441    458.441
113.970    660.510    650.935      9.575    458.436    650.911    458.436    458.436    458.436
114.070    641.226    667.267    -26.041    458.435    667.238    458.435    458.435    458.435
114.170    687.000    687.027     -0.027    458.441    686.993    458.441    458.441    458.441
114.270    661.583    711.023    -49.440    458.452    710.982    458.452    458.452    458.452
114.370    675.238    740.223    -64.985    458.469    740.174    458.469    458.469    458.469
114.470    803.000    775.766     27.234    458.491    775.707    458.491    458.491    458.491
114.570    816.000    818.970     -2.970    458.519    818.899    458.519    458.519    458.519
114.670    843.000    871.338    -28.338    458.553    871.253    458.553    458.553    458.553
114.770    926.000    934.549     -8.549    458.594    934.446    458.594    458.594    458.594
114.870   1015.000   1010.439      4.561    458.640   1010.315    458.640    458.640    458.640
114.970   1118.000   1100.971     17.029    458.692   1100.824    458.692    458.692    458.692
115.070   1265.000   1208.186     56.814    458.750   1208.012    458.750    458.750    458.750
115.170   1346.000   1334.140     11.860    458.815   1333.936    458.815    458.815    458.815
115.270   1549.000   1480.822     68.178    458.886   1480.585    458.886    458.886    458.886
115.370   1658.000   1650.056      7.944    458.963   1649.783    458.963    458.963    458.963
115.470   1951.000   1843.392    107.608    459.047   1843.079    459.047    459.047    459.047
115.570   2190.000   2061.981    128.019    459.137   2061.628    459.137    459.137    459.137
115.670   2447.000   2306.456    140.544    459.234   2306.061    459.234    459.234    459.234
115.770   2679.700   2576.799    102.901    459.337   2576.362    459.337    459.337    459.337
115.870   2872.000   2872.229     -0.229    459.447   2871.751    459.447    459.447    459.447
115.970   3242.000   3191.098     50.902    459.564   3190.582    459.564    459.564    459.564
116.070   3602.000   3530.808     71.192    459.688   3530.258    459.688    459.688    459.688
116.170   3993.000   3887.755    105.245    459.818   3887.176    459.818    459.818    459.818
116.270   4247.000   4257.296    -10.296    459.956   4256.696    459.956    459.956    459.956
116.370   4643.000   4633.753      9.247    460.100   4633.140    460.100    460.100    460.100
116.470   4902.891   5010.442   -107.550    460.252   5009.826    460.252    460.252    460.252
116.570   5310.580   5379.742    -69.163    460.411   5379.137    460.411    460.411    460.411
116.670   5812.000   5733.216     78.784    460.577   5732.633    460.577    460.577    460.577
116.770   6165.000   6061.791    103.209    460.751   6061.245    460.751    460.751    460.751
116.870   6434.000   6356.050     77.950    460.932   6355.556    460.932    460.932    460.932
116.970   6779.761   6606.644    173.117    461.121   6606.216    461.121    461.121    461.121
117.070   6840.462   6804.853     35.609    461.317   6804.504    461.317    461.317    461.317
117.170   6996.000   6943.258     52.742    461.521   6942.998    461.521    461.521    461.521
117.270   7051.000   7016.441     34.559    461.732   7016.279    461.732    461.732    461.732
117.370   7028.223   7021.578      6.645    461.951   7021.517    461.951    461.951    461.951
117.470   7059.000   6958.770    100.230    462.178   6958.808    462.178    462.178    462.178
117.570   6757.000   6831.022    -74.022    462.414   6831.154    462.414    462.414    462.414
117.670   6680.834   6643.881     36.953    462.657   6644.097    462.657    462.657    462.657
117.770   6231.742   6404.825   -173.082    462.908   6405.113    462.908    462.908    462.908
117.870   6012.822   6122.557   -109.734    463.167   6122.904    463.167    463.167    463.167
117.970   5801.049   5806.339     -5.290    463.435   5806.731    463.435    463.435    463.435
118.070   5412.960   5465.445    -52.485    463.711   5465.867    463.711    463.711    463.711
118.170   4964.000   5108.757   -144.757    463.996   5109.197    463.996    463.996    463.996
118.270   4740.000   4744.492     -4.492    464.289   4744.937    464.289    464.289    464.289
118.370   4371.000   4380.018     -9.018    464.590   4380.458    464.590    464.590    464.590
118.470   3982.000   4021.748    -39.748    464.900   4022.174    464.900    464.900    464.900
118.570   3790.000   3675.050    114.950    465.219   3675.454    465.219    465.219    465.219
118.670   3423.000   3344.351     78.649    465.547   3344.726    465.547    465.547    465.547
118.770   2934.737   3033.016    -98.279    465.884   3033.360    465.884    465.884    465.884
118.870   2716.000   2743.416    -27.416    466.229   2743.725    466.229    466.229    466.229
118.970   2410.013   2477.049    -67.036    466.584   2477.322    466.584    466.584    466.584
119.070   2171.000   2234.626    -63.626    466.948   2234.864    466.948    466.948    466.948
119.170   1941.000   2016.173    -75.173    467.321   2016.376    467.321    467.321    467.321
119.270   1913.212   1821.146     92.066    467.703   1821.316    467.703    467.703    467.703
119.370   1742.814   1648.545     94.270    468.095   1648.685    468.095    468.095    468.095
119.470   1474.000   1497.021    -23.021    468.496   1497.134    468.496    468.496    468.496
119.570   1290.499   1364.983    -74.485    468.907   1365.073    468.907    468.907    468.907
119.670   1148.000   1250.690   -102.690    469.327   1250.759    469.327    469.327    469.327
119.770   1139.000   1152.332    -13.332    469.757   1152.384    469.757    469.757    469.757
119.870   1083.381   1068.108     15.272    470.197   1068.146    470.197    470.197    470.197
119.970   1054.000    996.279     57.721    470.647    996.305    470.647    470.647    470.647
120.070    934.000    935.209     -1.209    471.107    935.227    471.107    471.107    471.107
120.170    902.000    883.403     18.597    471.577    883.414    471.577    471.577    471.577
120.270    799.000    839.516    -40.516    472.057    839.522    472.057    472.057    472.057
120.370    744.000    802.362    -58.362    472.547    802.365    472.547    472.547    472.547
120.470    788.099    770.913     17.186    473.047    770.915    473.047    473.047    473.047
120.570    682.632    744.291    -61.659    473.558    744.291    473.558    473.558    473.558
120.670    685.000    721.753    -36.753    474.080    721.753    474.080    474.080    474.080
120.770    693.000    702.678     -9.678    474.612    702.678    474.612    474.612    474.612
120.870    661.000    686.552    -25.552    475.155    686.553    475.155    475.155    475.155
120.970    634.000    672.953    -38.953    475.708    672.954    475.708    475.708    475.708
121.070    644.000    661.533    -17.533    476.273    661.535    476.273    476.273    476.273
121.170    631.000    652.009    -21.009    476.848    652.012    476.848    476.848    476.848
121.270    632.000    644.149    -12.149    477.434    644.153    477.434    477.434    477.434
121.370    639.576    637.763      1.813    478.032    637.768    478.032    478.032    478.032
121.470    657.521    632.692     24.829    478.641    632.698    478.641    478.641    478.641
121.570    621.000    628.804     -7.804    479.261    628.812    479.261    479.261    479.261
121.670    580.000    625.986    -45.986    479.892    625.995    479.892    479.892    479.892
121.770    606.000    624.140    -18.140    480.535    624.151    480.535    480.535    480.535
121.870    623.000    623.177     -0.177    481.190    623.189    481.190    481.190    481.190
121.970    601.000    623.016    -22.016    481.856    623.030    481.856    481.856    481.856
122.070    616.000    623.579     -7.579    482.534    623.595    482.534    482.534    482.534
122.170    585.000    624.790    -39.790    483.224    624.808    483.224    483.224    483.224
122.270    609.000    626.573    -17.573    483.925    626.593    483.925    483.925    483.925
122.370    640.103    628.847     11.256    484.639    628.870    484.639    484.639    484.639
122.470    658.000    631.531     26.469    485.365    631.556    485.365    485.365    485.365
122.570    612.000    634.537    -22.537    486.104    634.565    486.104    486.104    486.104
122.670    649.000    637.774     11.226    486.854    637.805    486.854    486.854    486.854
122.770    613.000    641.144    -28.144    487.617    641.177    487.617    487.617    487.617
122.870    650.581    644.544      6.037    488.393    644.580    488.393    488.393    488.393
122.970    635.000    647.867    -12.867    489.181    647.906    489.181    489.181    489.181
123.070    613.196    651.002    -37.806    489.982    651.044    489.982    489.982    489.982
123.170    627.486    653.840    -26.354    490.796    653.885    490.796    490.796    490.796
123.270    609.454    656.273    -46.819    491.623    656.320    491.623    491.623    491.623
123.370    667.000    658.200      8.800    492.462    658.249    492.462    492.462    492.462
123.470    631.000    659.535    -28.535    493.315    659.586    493.315    493.315    493.315
123.570    664.000    660.210      3.790    494.181    660.263    494.181    494.181    494.181
123.670    687.000    660.179     26.821    495.061    660.234    495.061    495.061    495.061
123.770    604.823    659.424    -54.601    495.954    659.479    495.954    495.954    495.954
123.870    635.000    657.950    -22.950    496.860    658.006    496.860    496.860    496.860
123.970    642.700    655.787    -13.087    497.780    655.843    497.780    497.780    497.780
124.070    648.000    652.986     -4.986    498.714    653.042    498.714    498.714    498.714
124.170    587.432    649.614    -62.181    499.661    649.668    499.661    499.661    499.661
124.270    661.000    645.744     15.256    500.623    645.797    500.623    500.623    500.623
124.370    649.000    641.459      7.541    501.598    641.511    501.598    501.598    501.598
124.470    579.240    636.843    -57.603    502.588    636.893    502.588    502.588    502.588
124.570    664.039    631.979     32.060    503.592    632.026    503.592    503.592    503.592
124.670    667.666    626.949     40.718    504.610    626.993    504.610    504.610    504.610
124.770    599.672    621.829    -22.157    505.643    621.871    505.643    505.643    505.643
124.870    629.000    616.693     12.307    506.690    616.732    506.690    506.690    506.690
124.970    607.000    611.610     -4.610    507.752    611.646    507.752    507.752    507.752
