neutron_powder_diffraction_0141
R_wp: 4.114
Temperature (K): 1074.000
Counts: 83688.00
Wavelength (Ã…): 2.52098
COMMENTS
Test file for demonstrating the .xyy file format in Reel1.0
END OF HEADER
   tth       Y_obs     Y_calc      Y_res    Background    Phase_1_Nuc    Phase_1_Mag    Phase_2_Nuc    Phase_2_Mag
  9.970    583.238    581.313      1.925    580.487    581.264    580.487    580.536    580.487
 10.070    581.000    581.283     -0.283    580.390    581.233    580.390    580.439    580.390
 10.170    579.418    581.258     -1.840    580.288    581.208    580.288    580.337    580.288
 10.270    559.672    581.242    -21.570    580.182    581.192    580.182    580.231    580.182
 10.370    603.000    581.238     21.762    580.072    581.188    580.072    580.122    580.072
 10.470    546.846    581.245    -34.399    579.958    581.195    579.958    580.008    579.958
 10.570    573.000    581.271     -8.271    579.841    581.220    579.841    579.891    579.841
 10.670    622.000    581.320     40.680    579.719    581.269    579.719    579.769    579.719
 10.770    568.074    581.401    -13.327    579.594    581.349    579.594    579.644    579.594
 10.870    603.000    581.523     21.477    579.465    581.471    579.465    579.516    579.465
 10.970    585.101    581.702      3.399    579.332    581.650    579.332    579.383    579.332
 11.070    528.000    581.958    -53.958    579.196    581.905    579.196    579.247    579.196
 11.170    614.455    582.320     32.135    579.055    582.267    579.055    579.107    579.055
 11.270    610.000    582.837     27.163    578.912    582.783    578.912    578.963    578.912
 11.370    562.000    583.592    -21.592    578.764    583.537    578.764    578.816    578.764
 11.470    635.000    584.774     50.226    578.614    584.718    578.614    578.666    578.614
 11.570    614.000    586.885     27.115    578.459    586.828    578.459    578.512    578.459
 11.670    644.000    591.211     52.789    578.302    591.151    578.302    578.354    578.302
 11.770    607.000    600.402      6.598    578.141    600.336    578.141    578.193    578.141
 11.870    639.215    618.242     20.973    577.976    618.167    577.976    578.029    577.976
 11.970    628.000    647.129    -19.129    577.808    647.037    577.808    577.862    577.808
 12.070    645.653    682.918    -37.265    577.637    682.806    577.637    577.691    577.637
 12.170    697.000    710.439    -13.439    577.463    710.311    577.463    577.517    577.463
 12.270    757.094    711.155     45.939    577.286    711.026    577.286    577.340    577.286
 12.370    661.245    684.292    -23.047    577.105    684.178    577.105    577.159    577.105
 12.470    614.680    648.048    -33.367    576.921    647.953    576.921    576.976    576.921
 12.570    636.000    618.227     17.773    576.734    618.149    576.734    576.789    576.734
 12.670    578.920    599.480    -20.559    576.545    599.412    576.545    576.600    576.545
 12.770    609.000    589.595     19.405    576.352    589.529    576.352    576.411    576.352
 12.870    601.000    584.755     16.245    576.156    584.690    576.156    576.216    576.156
 12.970    624.945    582.225     42.720    575.957    582.161    575.957    576.018    575.957
 13.070    584.621    580.664      3.956    575.756    580.601    575.756    575.817    575.756
 13.170    606.124    579.545     26.579    575.551    579.482    575.551    575.612    575.551
 13.270    571.000    578.674     -7.674    575.344    578.610    575.344    575.406    575.344
 13.370    585.014    577.958      7.056    575.134    577.895    575.134    575.196    575.134
 13.470    564.000    577.352    -13.352    574.921    577.288    574.921    574.983    574.921
 13.570    589.000    576.824     12.176    574.706    576.760    574.706    574.768    574.706
 13.670    537.000    576.354    -39.354    574.488    576.290    574.488    574.550    574.488
 13.770    566.930    575.928     -8.999    574.267    575.864    574.267    574.330    574.267
 13.870    589.000    575.535     13.465    574.043    575.471    574.043    574.107    574.043
 13.970    566.226    575.168     -8.942    573.818    575.103    573.818    573.881    573.818
 14.070    577.000    574.820      2.180    573.589    574.755    573.589    573.653    573.589
 14.170    555.152    574.488    -19.336    573.358    574.423    573.358    573.423    573.358
 14.270    537.000    574.168    -37.168    573.125    574.102    573.125    573.190    573.125
 14.370    530.831    573.857    -43.026    572.889    573.792    572.889    572.954    572.889
 14.470    573.092    573.554     -0.462    572.651    573.488    572.651    572.717    572.651
 14.570    571.000    573.257     -2.257    572.411    573.191    572.411    572.477    572.411
 14.670    581.000    572.965      8.035    572.168    572.899    572.168    572.234    572.168
 14.770    572.000    572.676     -0.676    571.923    572.610    571.923    571.990    571.923
 14.870    537.327    572.391    -35.063    571.676    572.324    571.676    571.743    571.676
 14.970    593.126    572.107     21.019    571.427    572.040    571.427    571.494    571.427
 15.070    527.000    571.825    -44.825    571.175    571.757    571.175    571.243    571.175
 15.170    567.000    571.544     -4.544    570.921    571.476    570.921    570.989    570.921
 15.270    616.248    571.264     44.984    570.666    571.196    570.666    570.734    570.666
 15.370    622.000    570.985     51.015    570.408    570.916    570.408    570.476    570.408
 15.470    566.000    570.706     -4.706    570.148    570.636    570.148    570.217    570.148
 15.570    540.000    570.429    -30.429    569.886    570.359    569.886    569.956    569.886
 15.670    556.000    570.150    -14.150    569.622    570.080    569.622    569.692    569.622
 15.770    530.691    569.870    -39.179    569.357    569.800    569.357    569.427    569.357
 15.870    597.910    569.591     28.320    569.089    569.520    569.089    569.160    569.089
 15.970    603.320    569.311     34.009    568.819    569.240    568.819    568.890    568.819
 16.070    554.744    569.029    -14.285    568.548    568.958    568.548    568.620    568.548
 16.170    520.513    568.747    -48.234    568.275    568.675    568.275    568.347    568.275
 16.270    511.000    568.464    -57.464    568.000    568.391    568.000    568.072    568.000
 16.370    524.369    568.180    -43.810    567.724    568.107    567.724    567.796    567.724
 16.470    608.442    567.895     40.547    567.445    567.821    567.445    567.518    567.445
 16.570    516.000    567.609    -51.609    567.165    567.535    567.165    567.239    567.165
 16.670    602.000    567.322     34.678    566.884    567.248    566.884    566.958    566.884
 16.770    539.470    567.034    -27.564    566.600    566.960    566.600    566.675    566.600
 16.870    551.000    566.746    -15.746    566.316    566.671    566.316    566.391    566.316
 16.970    586.000    566.456     19.544    566.029    566.381    566.029    566.105    566.029
 17.070    541.000    566.166    -25.166    565.741    566.090    565.741    565.817    565.741
 17.170    534.000    565.874    -31.874    565.452    565.798    565.452    565.528    565.452
 17.270    569.000    565.581      3.419    565.161    565.504    565.161    565.238    565.161
 17.370    503.000    565.287    -62.287    564.869    565.210    564.869    564.946    564.869
 17.470    581.000    564.993     16.007    564.575    564.915    564.575    564.653    564.575
 17.570    602.384    564.697     37.687    564.280    564.619    564.280    564.359    564.280
 17.670    553.000    564.402    -11.402    563.984    564.323    563.984    564.063    563.984
 17.770    545.886    564.119    -18.233    563.687    564.039    563.687    563.766    563.687
 17.870    570.000    563.831      6.169    563.388    563.751    563.388    563.468    563.388
 17.970    584.000    563.533     20.467    563.088    563.452    563.088    563.168    563.088
 18.070    594.000    563.233     30.767    562.786    563.151    562.786    562.868    562.786
 18.170    592.000    562.933     29.067    562.484    562.850    562.484    562.567    562.484
 18.270    575.014    562.632     12.381    562.180    562.548    562.180    562.265    562.180
 18.370    573.056    562.330     10.726    561.875    562.245    561.875    561.961    561.875
 18.470    541.000    562.027    -21.027    561.569    561.941    561.569    561.655    561.569
 18.570    550.000    561.723    -11.723    561.262    561.636    561.262    561.349    561.262
 18.670    534.000    561.418    -27.418    560.954    561.331    560.954    561.041    560.954
 18.770    519.000    561.112    -42.112    560.645    561.024    560.645    560.733    560.645
 18.870    548.389    560.807    -12.418    560.335    560.719    560.335    560.424    560.335
 18.970    590.790    560.503     30.287    560.024    560.414    560.024    560.113    560.024
 19.070    572.000    560.196     11.804    559.712    560.107    559.712    559.802    559.712
 19.170    516.000    559.888    -43.888    559.399    559.798    559.399    559.490    559.399
 19.270    594.000    559.580     34.420    559.086    559.489    559.086    559.177    559.086
 19.370    537.000    559.271    -22.271    558.771    559.179    558.771    558.863    558.771
 19.470    540.000    558.962    -18.962    558.456    558.869    558.456    558.548    558.456
 19.570    509.126    558.652    -49.526    558.139    558.559    558.139    558.233    558.139
 19.670    579.988    558.342     21.646    557.822    558.248    557.822    557.917    557.822
 19.770    553.000    558.034     -5.034    557.505    557.939    557.505    557.600    557.505
 19.870    557.000    557.727     -0.727    557.186    557.631    557.186    557.282    557.186
 19.970    592.000    557.425     34.575    556.867    557.328    556.867    556.964    556.867
 20.070    548.000    557.199     -9.199    556.547    557.102    556.547    556.645    556.547
 20.170    527.919    556.910    -28.991    556.227    556.812    556.227    556.325    556.227
 20.270    586.000    556.601     29.399    555.905    556.501    555.905    556.005    555.905
 20.370    539.969    556.290    -16.321    555.584    556.190    555.584    555.684    555.584
 20.470    595.795    555.979     39.816    555.261    555.878    555.261    555.363    555.261
 20.570    565.000    555.668      9.332    554.939    555.566    554.939    555.041    554.939
 20.670    519.000    555.357    -36.357    554.615    555.254    554.615    554.718    554.615
 20.770    575.801    555.047     20.753    554.291    554.943    554.291    554.395    554.291
 20.870    563.541    554.739      8.803    553.967    554.634    553.967    554.072    553.967
 20.970    574.373    554.429     19.943    553.642    554.323    553.642    553.748    553.642
 21.070    552.000    554.121     -2.121    553.317    554.014    553.317    553.424    553.317
 21.170    524.000    553.813    -29.813    552.991    553.705    552.991    553.100    552.991
 21.270    518.007    553.506    -35.499    552.665    553.396    552.665    552.775    552.665
 21.370    569.181    553.199     15.982    552.339    553.089    552.339    552.450    552.339
 21.470    563.153    552.894     10.259    552.012    552.782    552.012    552.124    552.012
 21.570    538.000    552.594    -14.594    551.685    552.481    551.685    551.798    551.685
 21.670    551.000    552.339     -1.339    551.358    552.224    551.358    551.472    551.358
 21.770    572.000    552.059     19.941    551.030    551.943    551.030    551.146    551.030
 21.870    562.000    551.782     10.218    550.702    551.665    550.702    550.820    550.702
 21.970    576.000    551.513     24.487    550.374    551.395    550.374    550.493    550.374
 22.070    535.000    551.222    -16.222    550.046    551.103    550.046    550.166    550.046
 22.170    503.000    550.932    -47.932    549.718    550.811    549.718    549.839    549.718
 22.270    529.982    550.646    -20.664    549.389    550.523    549.389    549.512    549.389
 22.370    593.000    550.363     42.637    549.060    550.239    549.060    549.185    549.060
 22.470    538.000    550.086    -12.086    548.732    549.960    548.732    548.858    548.732
 22.570    542.000    549.814     -7.814    548.403    549.686    548.403    548.531    548.403
 22.670    518.000    549.548    -31.548    548.074    549.419    548.074    548.204    548.074
 22.770    561.972    549.291     12.682    547.745    549.160    547.745    547.876    547.745
 22.870    528.000    549.043    -21.043    547.416    548.910    547.416    547.549    547.416
 22.970    506.426    548.807    -42.381    547.087    548.672    547.087    547.222    547.087
 23.070    531.000    548.584    -17.584    546.758    548.447    546.758    546.895    546.758
 23.170    525.272    548.379    -23.107    546.429    548.240    546.429    546.568    546.429
 23.270    590.068    548.197     41.871    546.100    548.056    546.100    546.242    546.100
 23.370    512.574    548.052    -35.478    545.771    547.909    545.771    545.915    545.771
 23.470    507.000    547.949    -40.949    545.442    547.803    545.442    545.589    545.442
 23.570    563.000    547.878     15.122    545.113    547.730    545.113    545.263    545.113
 23.670    534.256    547.875    -13.620    544.785    547.725    544.785    544.937    544.785
 23.770    569.000    547.953     21.047    544.457    547.800    544.457    544.611    544.457
 23.870    525.000    548.153    -23.153    544.128    547.998    544.128    544.286    544.128
 23.970    564.000    548.553     15.447    543.800    548.395    543.800    543.961    543.800
 24.070    533.725    549.336    -15.611    543.473    549.176    543.473    543.636    543.473
 24.170    559.000    550.970      8.030    543.145    550.808    543.145    543.312    543.145
 24.270    514.222    554.514    -40.292    542.818    554.351    542.818    542.988    542.818
 24.370    591.000    561.819     29.181    542.491    561.658    542.491    542.665    542.491
 24.470    549.272    575.015    -25.744    542.164    574.860    542.164    542.342    542.164
 24.570    593.000    594.545     -1.545    541.838    594.400    541.838    542.019    541.838
 24.670    589.000    616.414    -27.414    541.511    616.281    541.511    541.698    541.511
 24.770    590.838    630.462    -39.624    541.186    630.334    541.186    541.376    541.186
 24.870    607.685    627.002    -19.317    540.860    626.868    540.860    541.056    540.860
 24.970    652.822    608.621     44.202    540.535    608.468    540.535    540.736    540.535
 25.070    573.000    586.301    -13.301    540.211    586.127    540.211    540.416    540.211
 25.170    602.000    568.190     33.810    539.887    567.998    539.887    540.098    539.887
 25.270    536.059    556.543    -20.484    539.563    556.337    539.563    539.780    539.563
 25.370    547.000    550.132     -3.132    539.239    549.915    539.239    539.463    539.239
 25.470    604.000    546.813     57.187    538.917    546.586    538.917    539.147    538.917
 25.570    560.000    544.980     15.020    538.594    544.745    538.594    538.832    538.594
 25.670    584.000    543.813     40.187    538.272    543.570    538.272    538.518    538.272
 25.770    558.000    542.965     15.035    537.951    542.713    537.951    538.205    537.951
 25.870    592.955    542.308     50.647    537.630    542.047    537.630    537.893    537.630
 25.970    553.131    541.787     11.344    537.310    541.515    537.310    537.583    537.310
 26.070    558.368    541.334     17.034    536.990    541.051    536.990    537.274    536.990
 26.170    541.000    540.951      0.049    536.671    540.657    536.671    536.966    536.671
 26.270    541.000    540.630      0.370    536.353    540.323    536.353    536.660    536.353
 26.370    522.882    540.365    -17.483    536.035    540.045    536.035    536.355    536.035
 26.470    578.000    540.158     37.842    535.717    539.824    535.717    536.052    535.717
 26.570    542.000    540.004      1.996    535.401    539.653    535.401    535.752    535.401
 26.670    492.907    539.917    -47.010    535.085    539.549    535.085    535.453    535.085
 26.770    529.000    539.895    -10.895    534.770    539.507    534.770    535.157    534.770
 26.870    527.000    539.940    -12.940    534.455    539.531    534.455    534.864    534.455
 26.970    582.106    540.077     42.029    534.141    539.644    534.141    534.573    534.141
 27.070    553.000    540.332     12.668    533.828    539.873    533.828    534.286    533.828
 27.170    535.000    540.744     -5.744    533.515    540.256    533.515    534.003    533.515
 27.270    542.636    541.366      1.270    533.204    540.845    533.204    533.724    533.204
 27.370    506.000    542.267    -36.267    532.893    541.709    532.893    533.450    532.893
 27.470    563.000    543.605     19.395    532.583    543.005    532.583    533.181    532.583
 27.570    548.000    545.782      2.218    532.273    545.134    532.273    532.919    532.273
 27.670    551.000    550.215      0.785    531.965    549.511    531.965    532.665    531.965
 27.770    540.953    561.637    -20.684    531.657    560.868    531.657    532.419    531.657
 27.870    602.000    591.754     10.246    531.350    590.902    531.350    532.184    531.350
 27.970    704.933    658.277     46.656    531.044    657.320    531.044    531.962    531.044
 28.070    814.000    768.345     45.655    530.739    767.258    530.739    531.756    530.739
 28.170    896.000    890.442      5.558    530.435    889.210    530.435    531.570    530.435
 28.270    919.000    950.440    -31.440    530.131    949.068    530.131    531.408    530.131
 28.370    895.962    900.021     -4.059    529.829    898.512    529.829    531.278    529.829
 28.470    755.000    790.891    -35.891    529.527    789.202    529.527    531.191    529.527
 28.570    705.000    706.105     -1.105    529.226    704.154    529.226    531.165    529.226
 28.670    653.000    688.737    -35.737    528.927    686.421    528.927    531.229    528.927
 28.770    779.000    733.745     45.255    528.628    730.928    528.628    531.426    528.628
 28.870    761.000    801.250    -40.250    528.330    797.744    528.330    531.823    528.330
 28.970    844.579    832.883     11.696    528.033    828.408    528.033    532.510    528.033
 29.070    786.000    794.399     -8.399    527.737    788.554    527.737    533.594    527.737
 29.170    717.000    715.289      1.711    527.442    707.562    527.442    535.182    527.442
 29.270    683.513    641.630     41.883    527.149    631.447    527.149    537.341    527.149
 29.370    617.000    594.732     22.268    526.856    581.568    526.856    540.023    526.856
 29.470    570.580    572.511     -1.930    526.564    556.146    526.564    542.930    526.564
 29.570    588.000    564.087     23.913    526.273    545.014    526.273    545.345    526.273
 29.670    583.000    560.372     22.628    525.984    540.090    525.984    546.265    525.984
 29.770    552.000    556.894     -4.894    525.695    537.479    525.695    545.109    525.695
 29.870    559.000    552.709      6.291    525.408    535.801    525.408    542.314    525.408
 29.970    550.000    548.377      1.623    525.121    534.633    525.121    538.864    525.121
 30.070    538.000    544.545     -6.545    524.836    533.839    524.836    535.540    524.836
 30.170    536.064    541.556     -5.492    524.552    533.402    524.552    532.704    524.552
 30.270    609.000    539.620     69.380    524.268    533.445    524.268    530.440    524.268
 30.370    529.156    539.153     -9.997    523.986    534.440    523.986    528.696    523.986
 30.470    549.000    541.246      7.754    523.706    537.577    523.706    527.368    523.706
 30.570    524.883    547.914    -23.030    523.426    544.978    523.426    526.349    523.426
 30.670    513.782    561.260    -47.478    523.148    558.840    523.148    525.544    523.148
 30.770    582.555    580.963      1.593    522.870    578.911    522.870    524.884    522.870
 30.870    567.741    601.174    -33.433    522.594    599.396    522.594    524.320    522.594
 30.970    627.000    610.352     16.648    522.319    608.794    522.319    523.822    522.319
 31.070    590.000    600.917    -10.917    522.045    599.547    522.045    523.370    522.045
 31.170    586.000    579.893      6.107    521.773    578.684    521.773    522.953    521.773
 31.270    586.000    558.818     27.182    521.502    557.743    521.502    522.561    521.502
 31.370    551.000    543.787      7.213    521.232    542.820    521.232    522.190    521.232
 31.470    621.000    535.260     85.740    520.963    534.382    520.963    521.836    520.963
 31.570    579.000    531.089     47.911    520.695    530.286    520.695    521.496    520.695
 31.670    511.257    529.106    -17.849    520.429    528.366    520.429    521.167    520.429
 31.770    562.000    528.052     33.948    520.164    527.366    520.164    520.848    520.164
 31.870    560.000    527.393     32.607    519.900    526.754    519.900    520.537    519.900
 31.970    549.000    526.943     22.057    519.638    526.346    519.638    520.233    519.638
 32.070    486.494    526.640    -40.146    519.376    526.079    519.376    519.936    519.376
 32.170    556.000    526.458     29.542    519.116    525.929    519.116    519.644    519.116
 32.270    514.000    526.391    -12.391    518.858    525.891    518.858    519.357    518.858
 32.370    532.000    526.440      5.560    518.601    525.965    518.601    519.075    518.601
 32.470    558.000    526.613     31.387    518.345    526.160    518.345    518.797    518.345
 32.570    525.912    526.929     -1.017    518.090    526.496    518.090    518.522    518.090
 32.670    547.252    527.415     19.837    517.837    527.000    517.837    518.250    517.837
 32.770    518.000    528.112    -10.112    517.585    527.714    517.585    517.982    517.585
 32.870    504.441    529.080    -24.639    517.334    528.696    517.334    517.717    517.334
 32.970    562.458    530.408     32.050    517.085    530.037    517.085    517.454    517.085
 33.070    572.664    532.234     40.431    516.837    531.875    516.837    517.194    516.837
 33.170    572.300    534.818     37.482    516.591    534.470    516.591    516.937    516.591
 33.270    557.000    538.768     18.232    516.346    538.430    516.346    516.682    516.346
 33.370    566.000    545.703     20.297    516.102    545.373    516.102    516.429    516.102
 33.470    569.000    559.686      9.314    515.860    559.361    515.860    516.179    515.860
 33.570    564.054    589.059    -25.004    515.619    588.736    515.619    515.930    515.619
 33.670    684.000    646.294     37.706    515.380    645.969    515.380    515.684    515.380
 33.770    761.000    741.812     19.188    515.142    741.478    515.142    515.439    515.142
 33.870    926.079    870.674     55.405    514.905    870.329    514.905    515.197    514.905
 33.970   1069.000    998.117     70.883    514.670    997.768    514.670    514.956    514.670
 34.070   1097.450   1060.105     37.345    514.436   1059.770    514.436    514.718    514.436
 34.170    971.716   1013.599    -41.884    514.204   1013.295    514.204    514.481    514.204
 34.270    844.000    892.278    -48.278    513.973    892.001    513.973    514.246    513.973
 34.370    761.000    760.467      0.533    513.743    760.204    513.743    514.013    513.743
 34.470    646.000    658.174    -12.174    513.515    657.917    513.515    513.782    513.515
 34.570    551.393    594.494    -43.101    513.289    594.237    513.289    513.552    513.289
 34.670    602.000    560.681     41.319    513.064    560.424    513.064    513.324    513.064
 34.770    513.443    544.136    -30.693    512.840    543.879    512.840    513.098    512.840
 34.870    473.000    535.770    -62.770    512.618    535.515    512.618    512.874    512.618
 34.970    528.366    530.908     -2.541    512.398    530.654    512.398    512.651    512.398
 35.070    508.424    527.612    -19.188    512.179    527.361    512.179    512.430    512.179
 35.170    495.000    525.148    -30.148    511.961    524.898    511.961    512.211    511.961
 35.270    506.000    523.212    -17.212    511.745    522.963    511.745    511.993    511.745
 35.370    484.000    521.646    -37.646    511.531    521.400    511.531    511.777    511.531
 35.470    500.000    520.355    -20.355    511.317    520.109    511.317    511.563    511.317
 35.570    498.000    519.268    -21.268    511.106    519.023    511.106    511.350    511.106
 35.670    529.000    518.341     10.659    510.896    518.097    510.896    511.139    510.896
 35.770    530.551    517.543     13.008    510.687    517.300    510.687    510.930    510.687
 35.870    518.000    516.846      1.154    510.480    516.604    510.480    510.722    510.480
 35.970    480.214    516.232    -36.019    510.275    515.991    510.275    510.516    510.275
 36.070    519.000    515.687      3.313    510.071    515.446    510.071    510.312    510.071
 36.170    562.010    515.200     46.810    509.869    514.959    509.869    510.109    509.869
 36.270    542.634    514.763     27.871    509.668    514.523    509.668    509.908    509.668
 36.370    546.853    514.372     32.480    509.469    514.132    509.469    509.709    509.469
 36.470    538.000    514.023     23.977    509.271    513.783    509.271    509.511    509.271
 36.570    559.566    513.716     45.850    509.075    513.475    509.075    509.315    509.075
 36.670    480.000    513.453    -33.453    508.880    513.212    508.880    509.121    508.880
 36.770    501.000    513.245    -12.245    508.687    513.003    508.687    508.928    508.687
 36.870    519.000    513.120      5.880    508.495    512.879    508.495    508.737    508.495
 36.970    543.000    513.147     29.853    508.305    512.905    508.305    508.548    508.305
 37.070    501.000    513.458    -12.458    508.117    513.216    508.117    508.360    508.117
 37.170    529.415    514.269     15.145    507.930    514.026    507.930    508.174    507.930
 37.270    503.260    515.830    -12.570    507.745    515.586    507.745    507.989    507.745
 37.370    508.000    518.289    -10.289    507.561    518.045    507.561    507.807    507.561
 37.470    502.000    521.476    -19.476    507.379    521.231    507.379    507.625    507.379
 37.570    524.000    524.681     -0.681    507.199    524.437    507.199    507.446    507.199
 37.670    550.630    526.658     23.972    507.020    526.414    507.020    507.268    507.020
 37.770    510.000    526.398    -16.398    506.843    526.155    506.843    507.092    506.843
 37.870    484.689    524.140    -39.451    506.667    523.898    506.667    506.917    506.667
 37.970    475.214    520.970    -45.756    506.493    520.729    506.493    506.745    506.493
 38.070    498.000    517.780    -19.780    506.320    517.538    506.320    506.573    506.320
 38.170    553.001    515.003     37.998    506.149    514.758    506.149    506.404    506.149
 38.270    536.000    512.832     23.168    505.980    512.583    505.980    506.236    505.980
 38.370    524.391    511.285     13.106    505.812    511.032    505.812    506.070    505.812
 38.470    484.968    510.246    -25.278    505.646    509.990    505.646    505.905    505.646
 38.570    520.645    509.561     11.084    505.481    509.301    505.481    505.743    505.481
 38.670    499.483    509.096     -9.613    505.318    508.834    505.318    505.581    505.318
 38.770    510.000    508.757      1.243    505.157    508.493    505.157    505.422    505.157
 38.870    531.712    508.486     23.226    504.997    508.220    504.997    505.264    504.997
 38.970    512.380    508.254      4.126    504.839    507.986    504.839    505.108    504.839
 39.070    511.000    508.047      2.953    504.683    507.777    504.683    504.954    504.683
 39.170    529.524    507.858     21.666    504.528    507.585    504.528    504.801    504.528
 39.270    466.000    507.683    -41.683    504.374    507.408    504.374    504.650    504.374
 39.370    518.000    507.520     10.480    504.223    507.243    504.223    504.500    504.223
 39.470    545.184    507.369     37.816    504.072    507.088    504.072    504.353    504.072
 39.570    509.000    507.226      1.774    503.924    506.944    503.924    504.207    503.924
 39.670    527.000    507.094     19.906    503.777    506.808    503.777    504.063    503.777
 39.770    523.829    506.970     16.859    503.632    506.682    503.632    503.920    503.632
 39.870    457.000    506.855    -49.855    503.488    506.564    503.488    503.779    503.488
 39.970    539.000    506.748     32.252    503.346    506.455    503.346    503.640    503.346
 40.070    507.605    506.651      0.954    503.206    506.355    503.206    503.503    503.206
 40.170    507.560    506.564      0.997    503.067    506.264    503.067    503.367    503.067
 40.270    518.000    506.486     11.514    502.929    506.183    502.929    503.233    502.929
 40.370    522.000    506.420     15.580    502.794    506.114    502.794    503.100    502.794
 40.470    482.177    506.366    -24.189    502.660    506.056    502.660    502.970    502.660
 40.570    534.000    506.326     27.674    502.527    506.013    502.527    502.841    502.527
 40.670    515.985    506.301      9.684    502.397    505.984    502.397    502.714    502.397
 40.770    511.197    506.294      4.903    502.267    505.974    502.267    502.588    502.267
 40.870    515.060    506.309      8.751    502.140    505.985    502.140    502.465    502.140
 40.970    487.000    506.348    -19.348    502.014    506.020    502.014    502.343    502.014
 41.070    508.585    506.418      2.167    501.890    506.086    501.890    502.222    501.890
 41.170    515.732    506.525      9.207    501.767    506.188    501.767    502.104    501.767
 41.270    489.234    506.678    -17.444    501.646    506.337    501.646    501.987    501.646
 41.370    504.000    506.890     -2.890    501.526    506.545    501.526    501.872    501.526
 41.470    519.510    507.179     12.331    501.408    506.829    501.408    501.759    501.408
 41.570    532.000    507.574     24.426    501.292    507.220    501.292    501.647    501.292
 41.670    518.000    508.132      9.868    501.177    507.774    501.177    501.538    501.177
 41.770    516.000    508.977      7.023    501.064    508.614    501.064    501.430    501.064
 41.870    474.783    510.394    -35.611    500.952    510.026    500.952    501.324    500.952
 41.970    514.167    512.994      1.173    500.842    512.622    500.842    501.219    500.842
 42.070    506.000    517.895    -11.895    500.734    517.519    500.734    501.117    500.734
 42.170    519.000    526.736     -7.736    500.627    526.358    500.627    501.016    500.627
 42.270    519.000    541.218    -22.218    500.522    540.840    500.522    500.917    500.522
 42.370    543.000    561.993    -18.993    500.418    561.620    500.418    500.820    500.418
 42.470    551.000    587.163    -36.163    500.316    586.796    500.316    500.724    500.316
 42.570    618.204    610.996      7.208    500.216    610.635    500.216    500.631    500.216
 42.670    602.761    624.485    -21.724    500.117    624.127    500.117    500.539    500.117
 42.770    664.520    620.854     43.666    500.020    620.489    500.020    500.449    500.020
 42.870    535.000    602.152    -67.152    499.924    601.772    499.924    500.361    499.924
 42.970    560.000    576.877    -16.877    499.830    576.476    499.830    500.275    499.830
 43.070    503.000    552.943    -49.943    499.738    552.520    499.738    500.191    499.738
 43.170    516.000    534.487    -18.487    499.647    534.045    499.647    500.109    499.647
 43.270    456.000    522.248    -66.248    499.557    521.789    499.557    500.028    499.557
 43.370    483.000    515.019    -32.019    499.470    514.546    499.470    499.950    499.470
 43.470    508.000    511.047     -3.047    499.383    510.561    499.383    499.873    499.383
 43.570    490.000    508.885    -18.885    499.299    508.388    499.299    499.799    499.299
 43.670    500.638    507.629     -6.991    499.215    507.120    499.215    499.726    499.215
 43.770    435.000    506.815    -71.815    499.134    506.294    499.134    499.656    499.134
 43.870    527.153    506.232     20.921    499.054    505.700    499.054    499.588    499.054
 43.970    496.359    505.788     -9.429    498.975    505.244    498.975    499.521    498.975
 44.070    539.000    505.441     33.559    498.898    504.883    498.898    499.457    498.898
 44.170    513.000    505.166      7.834    498.823    504.594    498.823    499.395    498.823
 44.270    471.418    504.946    -33.528    498.749    504.361    498.749    499.335    498.749
 44.370    524.000    504.773     19.227    498.677    504.172    498.677    499.278    498.677
 44.470    488.000    504.637    -16.637    498.606    504.021    498.606    499.223    498.606
 44.570    495.000    504.532     -9.532    498.537    503.900    498.537    499.170    498.537
 44.670    472.000    504.456    -32.456    498.469    503.806    498.469    499.119    498.469
 44.770    527.518    504.403     23.115    498.403    503.735    498.403    499.071    498.403
 44.870    516.138    504.373     11.766    498.338    503.685    498.338    499.026    498.338
 44.970    510.000    504.363      5.637    498.275    503.655    498.275    498.983    498.275
 45.070    545.000    504.372     40.628    498.213    503.642    498.213    498.943    498.213
 45.170    456.958    504.399    -47.441    498.153    503.647    498.153    498.906    498.153
 45.270    506.726    504.445      2.281    498.095    503.668    498.095    498.871    498.095
 45.370    495.000    504.508     -9.508    498.037    503.706    498.037    498.840    498.037
 45.470    508.000    504.591      3.409    497.982    503.761    497.982    498.812    497.982
 45.570    497.000    504.692     -7.692    497.928    503.833    497.928    498.787    497.928
 45.670    468.405    504.814    -36.409    497.875    503.923    497.875    498.766    497.875
 45.770    528.904    504.958     23.946    497.824    504.033    497.824    498.748    497.824
 45.870    482.000    505.126    -23.126    497.774    504.165    497.774    498.735    497.774
 45.970    511.000    505.320      5.680    497.726    504.319    497.726    498.726    497.726
 46.070    491.000    505.543    -14.543    497.679    504.500    497.679    498.721    497.679
 46.170    477.823    505.799    -27.976    497.634    504.711    497.634    498.721    497.634
 46.270    507.000    506.094      0.906    497.590    504.957    497.590    498.726    497.590
 46.370    494.000    506.433    -12.433    497.548    505.242    497.548    498.737    497.548
 46.470    523.000    506.826     16.174    497.507    505.577    497.507    498.755    497.507
 46.570    467.610    507.284    -39.674    497.467    505.971    497.467    498.779    497.467
 46.670    493.000    507.827    -14.827    497.429    506.444    497.429    498.810    497.429
 46.770    514.000    508.489      5.511    497.392    507.030    497.392    498.850    497.392
 46.870    503.000    509.342     -6.342    497.357    507.798    497.357    498.899    497.357
 46.970    496.007    510.537    -14.530    497.323    508.899    497.323    498.959    497.323
 47.070    524.000    512.376     11.624    497.291    510.633    497.291    499.030    497.291
 47.170    540.000    515.387     24.613    497.260    513.527    497.260    499.115    497.260
 47.270    529.000    520.352      8.648    497.231    518.358    497.231    499.215    497.231
 47.370    534.000    528.152      5.848    497.203    526.007    497.203    499.333    497.203
 47.470    539.000    539.381     -0.381    497.176    537.063    497.176    499.471    497.176
 47.570    524.062    553.761    -29.698    497.151    551.244    497.151    499.634    497.151
 47.670    564.128    569.539     -5.412    497.127    566.797    497.127    499.825    497.127
 47.770    599.000    583.158     15.842    497.104    580.159    497.104    500.050    497.104
 47.870    611.000    589.987     21.013    497.083    586.697    497.083    500.317    497.083
 47.970    555.884    587.349    -31.464    497.063    583.723    497.063    500.637    497.063
 48.070    548.413    577.072    -28.659    497.045    573.051    497.045    501.023    497.045
 48.170    593.000    563.661     29.339    497.028    559.158    497.028    501.499    497.028
 48.270    566.753    551.100     15.653    497.012    545.991    497.012    502.099    497.012
 48.370    556.014    541.663     14.351    496.998    535.767    496.998    502.879    496.998
 48.470    543.000    536.075      6.925    496.985    529.128    496.985    503.923    496.985
 48.570    560.000    534.086     25.914    496.973    525.698    496.973    505.354    496.973
 48.670    512.000    535.083    -23.083    496.962    524.695    496.962    507.346    496.962
 48.770    497.842    538.548    -40.706    496.953    525.383    496.953    510.114    496.953
 48.870    553.000    544.249      8.751    496.946    527.290    496.946    513.902    496.946
 48.970    511.043    552.241    -41.197    496.939    530.243    496.939    518.934    496.939
 49.070    520.000    562.815    -42.815    496.934    534.395    496.934    525.350    496.934
 49.170    561.000    576.604    -15.604    496.930    540.427    496.930    533.102    496.930
 49.270    597.000    595.111      1.889    496.928    550.228    496.928    541.805    496.928
 49.370    626.000    622.084      3.916    496.927    568.455    496.927    550.543    496.927
 49.470    637.000    666.023    -29.023    496.927    605.184    496.927    557.743    496.927
 49.570    768.000    743.323     24.677    496.928    678.714    496.928    561.495    496.928
 49.670    929.000    879.163     49.837    496.931    815.459    496.931    560.560    496.931
 49.770   1106.000   1100.751      5.249    496.935   1042.281    496.935    555.287    496.935
 49.870   1497.000   1419.516     77.484    496.940   1368.987    496.940    547.315    496.940
 49.970   1726.435   1808.056    -81.621    496.946   1766.351    496.946    538.485    496.946
 50.070   2176.000   2186.372    -10.372    496.954   2153.085    496.954    530.110    496.954
 50.170   2408.000   2435.182    -27.182    496.963   2409.225    496.963    522.878    496.963
 50.270   2366.352   2452.440    -86.089    496.973   2432.460    496.973    517.026    496.973
 50.370   2235.251   2228.250      7.001    496.984   2212.876    496.984    512.519    496.984
 50.470   1855.106   1854.564      0.541    496.996   1842.580    496.996    509.174    496.996
 50.570   1425.000   1454.619    -29.619    497.010   1445.053    497.010    506.754    497.010
 50.670   1097.000   1118.388    -21.388    497.025   1110.528    497.025    505.023    497.025
 50.770    776.000    882.968   -106.968    497.041    876.325    497.041    503.781    497.041
 50.870    734.000    742.406     -8.406    497.059    736.656    497.059    502.875    497.059
 50.970    666.000    669.200     -3.200    497.077    664.129    497.077    502.196    497.077
 51.070    600.844    633.519    -32.675    497.097    628.981    497.097    501.674    497.097
 51.170    649.000    613.605     35.395    497.117    609.495    497.117    501.261    497.117
 51.270    630.000    598.145     31.855    497.139    594.384    497.139    500.929    497.139
 51.370    614.000    583.657     30.343    497.162    580.186    497.162    500.657    497.162
 51.470    591.000    570.298     20.702    497.187    567.069    497.187    500.434    497.187
 51.570    557.000    558.979     -1.979    497.212    555.955    497.212    500.250    497.212
 51.670    549.483    550.265     -0.781    497.239    547.415    497.239    500.098    497.239
 51.770    566.000    544.191     21.809    497.266    541.491    497.266    499.973    497.266
 51.870    554.222    540.417     13.805    497.295    537.845    497.295    499.871    497.295
 51.970    553.000    538.455     14.545    497.325    535.994    497.325    499.790    497.325
 52.070    546.942    537.879      9.063    497.356    535.513    497.356    499.725    497.356
 52.170    543.000    538.436      4.564    497.388    536.150    497.388    499.676    497.388
 52.270    573.000    540.113     32.887    497.421    537.897    497.421    499.640    497.421
 52.370    517.044    543.224    -26.180    497.455    541.065    497.455    499.616    497.455
 52.470    570.000    548.596     21.404    497.490    546.485    497.490    499.603    497.490
 52.570    587.000    557.906     29.094    497.527    555.835    497.527    499.599    497.527
 52.670    610.000    574.093     35.907    497.564    572.053    497.564    499.604    497.564
 52.770    584.354    601.597    -17.243    497.602    599.581    497.602    499.617    497.602
 52.870    607.642    645.992    -38.350    497.642    643.994    497.642    499.638    497.642
 52.970    726.000    712.553     13.447    497.682    710.566    497.682    499.667    497.682
 53.070    806.789    803.661      3.129    497.724    801.680    497.724    499.701    497.724
 53.170    903.849    915.566    -11.717    497.766    913.588    497.766    499.743    497.766
 53.270   1067.463   1035.442     32.021    497.810   1033.464    497.810    499.790    497.810
 53.370   1139.000   1140.063     -1.063    497.854   1138.085    497.854    499.843    497.854
 53.470   1217.323   1199.929     17.394    497.900   1197.949    497.900    499.903    497.900
 53.570   1169.000   1193.724    -24.724    497.946   1191.736    497.946    499.968    497.946
 53.670   1095.000   1124.111    -29.111    497.994   1122.106    497.994    500.039    497.994
 53.770   1005.000   1015.330    -10.330    498.042   1013.297    498.042    500.115    498.042
 53.870    949.579    896.288     53.291    498.091    894.217    498.091    500.197    498.091
 53.970    806.000    788.302     17.698    498.141    786.185    498.141    500.285    498.141
 54.070    692.000    702.358    -10.358    498.193    700.191    498.193    500.379    498.193
 54.170    683.933    640.853     43.080    498.245    638.632    498.245    500.479    498.245
 54.270    569.872    600.657    -30.786    498.298    598.379    498.298    500.586    498.298
 54.370    575.000    576.298     -1.298    498.352    573.957    498.352    500.699    498.352
 54.470    594.676    562.352     32.323    498.407    559.944    498.407    500.819    498.407
 54.570    543.413    554.657    -11.244    498.462    552.176    498.462    500.946    498.462
 54.670    539.000    550.524    -11.524    498.519    547.965    498.519    501.081    498.519
 54.770    565.000    548.438     16.562    498.576    545.793    498.576    501.224    498.576
 54.870    624.000    547.634     76.366    498.635    544.896    498.635    501.375    498.635
 54.970    570.247    547.761     22.486    498.694    544.921    498.694    501.536    498.694
 55.070    555.000    548.677      6.323    498.754    545.726    498.754    501.707    498.754
 55.170    602.000    550.349     51.651    498.815    547.276    498.815    501.889    498.815
 55.270    590.000    552.810     37.190    498.877    549.605    498.877    502.083    498.877
 55.370    509.058    556.154    -47.097    498.939    552.806    498.939    502.289    498.939
 55.470    596.000    560.571     35.429    499.003    557.065    499.003    502.510    499.003
 55.570    528.314    566.428    -38.115    499.067    562.750    499.067    502.746    499.067
 55.670    569.000    574.498     -5.498    499.132    570.631    499.132    503.000    499.132
 55.770    545.808    586.424    -40.616    499.198    582.349    499.198    503.272    499.198
 55.870    631.433    605.566     25.867    499.264    601.262    499.264    503.566    499.264
 55.970    616.000    638.261    -22.261    499.332    633.703    499.332    503.884    499.332
 56.070    693.000    695.133     -2.133    499.400    690.293    499.400    504.229    499.400
 56.170    789.312    791.511     -2.199    499.468    786.355    499.468    504.604    499.468
 56.270    994.000    945.439     48.561    499.538    939.929    499.538    505.013    499.538
 56.370   1138.000   1172.026    -34.026    499.608   1166.124    499.608    505.462    499.608
 56.470   1406.145   1474.399    -68.254    499.679   1468.067    499.679    505.956    499.679
 56.570   1825.000   1833.811     -8.811    499.751   1827.010    499.751    506.503    499.751
 56.670   2152.000   2202.652    -50.652    499.824   2195.346    499.824    507.109    499.824
 56.770   2412.000   2504.964    -92.964    499.897   2497.110    499.897    507.787    499.897
 56.870   2678.000   2654.723     23.277    499.971   2646.262    499.971    508.548    499.971
 56.970   2630.000   2600.562     29.438    500.045   2591.395    500.045    509.408    500.045
 57.070   2312.000   2363.405    -51.405    500.120   2353.384    500.120    510.389    500.120
 57.170   2081.163   2019.160     62.003    500.196   2008.093    500.196    511.520    500.196
 57.270   1571.795   1651.597    -79.802    500.273   1639.258    500.273    512.842    500.273
 57.370   1324.000   1322.357      1.643    500.350   1308.473    500.350    514.419    500.350
 57.470   1102.047   1063.453     38.594    500.428   1047.668    500.428    516.348    500.428
 57.570    848.000    881.310    -33.310    500.506    863.132    500.506    518.774    500.506
 57.670    774.000    765.872      8.128    500.585    744.595    500.585    521.918    500.585
 57.770    744.000    700.614     43.386    500.665    675.213    500.665    526.097    500.665
 57.870    645.000    670.134    -25.134    500.745    639.155    500.745    531.739    500.745
 57.970    699.000    663.971     35.029    500.826    625.413    500.826    539.386    500.826
 58.070    718.000    677.187     40.813    500.907    628.423    500.907    549.665    500.907
 58.170    669.552    709.038    -39.486    500.989    646.800    500.989    563.211    500.989
 58.270    714.903    760.837    -45.933    501.071    681.327    501.071    580.555    501.071
 58.370    872.000    833.683     38.317    501.154    732.836    501.154    601.966    501.154
 58.470    943.173    926.423     16.749    501.238    800.376    501.238    627.242    501.238
 58.570   1020.000   1034.070    -14.070    501.322    879.894    501.322    655.453    501.322
 58.670   1089.000   1147.171    -58.171    501.407    963.954    501.407    684.583    501.407
 58.770   1216.507   1253.098    -36.591    501.492   1043.377    501.492    711.184    501.492
 58.870   1382.162   1339.010     43.152    501.578   1110.062    501.578    730.513    501.578
 58.970   1440.000   1393.874     46.126    501.664   1157.616    501.664    737.927    501.664
 59.070   1454.000   1409.525     44.475    501.750   1179.941    501.750    731.357    501.750
 59.170   1450.000   1384.136     65.864    501.837   1173.306    501.837    712.705    501.837
 59.270   1285.003   1326.005    -41.002    501.925   1141.426    501.925    686.541    501.925
 59.370   1184.432   1251.759    -67.326    502.013   1096.157    502.013    657.640    502.013
 59.470   1240.000   1179.806     60.194    502.101   1052.390    502.101    629.517    502.101
 59.570   1161.000   1126.303     34.697    502.190   1024.204    502.190    604.253    502.190
 59.670   1134.000   1104.955     29.045    502.280   1024.328    502.280    582.826    502.280
 59.770   1175.205   1125.806     49.399    502.369   1062.575    502.369    565.468    502.369
 59.870   1257.000   1191.026     65.974    502.459   1141.368    502.459    551.930    502.459
 59.970   1365.000   1290.900     74.100    502.550   1251.522    502.550    541.690    502.550
 60.070   1456.000   1402.747     53.253    502.641   1370.997    502.641    534.115    502.641
 60.170   1478.849   1493.532    -14.683    502.732   1467.399    502.732    528.579    502.732
 60.270   1594.145   1528.608     65.537    502.824   1506.631    502.824    524.536    502.824
 60.370   1431.977   1488.005    -56.028    502.916   1469.155    502.916    521.552    502.916
 60.470   1367.912   1378.543    -10.631    503.008   1362.091    503.008    519.308    503.008
 60.570   1226.000   1227.452     -1.452    503.101   1212.874    503.101    517.583    503.101
 60.670   1072.000   1066.248      5.752    503.194   1053.158    503.194    516.233    503.194
 60.770    935.000    919.721     15.279    503.287    907.820    503.287    515.164    503.287
 60.870    802.309    802.191      0.119    503.381    791.242    503.381    514.320    503.381
 60.970    706.000    718.171    -12.171    503.475    707.976    503.475    513.665    503.475
 61.070    700.000    665.493     34.507    503.569    655.878    503.569    513.176    503.569
 61.170    654.000    639.350     14.650    503.663    630.163    503.663    512.838    503.663
 61.270    604.850    635.775    -30.925    503.758    626.877    503.758    512.635    503.758
 61.370    636.000    653.611    -17.611    503.853    644.881    503.853    512.550    503.853
 61.470    673.000    694.687    -21.687    503.948    686.027    503.948    512.558    503.948
 61.570    810.000    762.345     47.655    504.044    753.691    504.044    512.625    504.044
 61.670    872.858    858.716     14.142    504.140    850.053    504.140    512.700    504.140
 61.770    954.907    981.444    -26.537    504.236    972.826    504.236    512.720    504.236
 61.870   1187.957   1120.879     67.079    504.332   1112.425    504.332    512.626    504.332
 61.970   1259.000   1258.699      0.301    504.428   1250.568    504.428    512.383    504.428
 62.070   1343.557   1369.092    -25.535    504.525   1361.438    504.525    512.004    504.525
 62.170   1378.000   1424.824    -46.824    504.622   1417.759    504.622    511.535    504.622
 62.270   1354.948   1409.433    -54.485    504.718   1403.007    504.718    511.032    504.718
 62.370   1372.510   1327.380     45.131    504.815   1321.586    504.815    510.540    504.815
 62.470   1180.000   1200.883    -20.883    504.913   1195.673    504.913    510.091    504.913
 62.570   1001.000   1057.551    -56.551    505.010   1052.855    505.010    509.699    505.010
 62.670    823.000    920.513    -97.513    505.108    916.257    505.108    509.372    505.108
 62.770    779.895    804.488    -24.593    505.205    800.598    505.205    509.107    505.205
 62.870    711.000    715.619     -4.619    505.303    712.033    505.303    508.900    505.303
 62.970    623.000    653.313    -30.313    505.401    649.978    505.401    508.744    505.401
 63.070    637.000    613.001     23.999    505.499    609.874    505.499    508.630    505.499
 63.170    569.000    588.817    -19.817    505.597    585.865    505.597    508.549    505.597
 63.270    592.000    575.485     16.515    505.695    572.682    505.695    508.495    505.695
 63.370    607.444    569.237     38.207    505.793    566.562    505.793    508.462    505.793
 63.470    610.000    568.004     41.996    505.891    565.443    505.891    508.445    505.891
 63.570    596.000    571.253     24.747    505.989    568.791    505.989    508.441    505.989
 63.670    531.373    579.707    -48.334    506.088    577.332    506.088    508.447    506.088
 63.770    639.016    595.047     43.969    506.186    592.749    506.186    508.462    506.186
 63.870    606.767    619.507    -12.740    506.284    617.275    506.284    508.485    506.284
 63.970    649.000    655.263     -6.263    506.382    653.087    506.382    508.513    506.382
 64.070    754.000    703.589     50.411    506.481    701.460    506.481    508.547    506.481
 64.170    771.430    763.873      7.557    506.579    761.783    506.579    508.587    506.579
 64.270    843.000    832.698     10.302    506.677    830.643    506.677    508.631    506.677
 64.370    967.904    903.243     64.660    506.776    901.222    506.776    508.679    506.776
 64.470   1006.000    965.484     40.516    506.874    963.501    506.874    508.731    506.874
 64.570    964.342   1008.248    -43.906    506.972   1006.309    506.972    508.786    506.972
 64.670   1034.000   1023.444     10.556    507.070   1021.559    507.070    508.844    507.070
 64.770   1045.000   1009.554     35.446    507.168   1007.728    507.168    508.906    507.168
 64.870   1019.000    971.338     47.662    507.266    969.573    507.266    508.970    507.266
 64.970    874.000    917.277    -43.277    507.364    915.569    507.364    509.037    507.364
 65.070    875.591    856.818     18.773    507.461    855.161    507.461    509.107    507.461
 65.170    805.629    797.866      7.763    507.559    796.253    507.559    509.178    507.559
 65.270    717.000    745.302    -28.302    507.656    743.724    507.656    509.252    507.656
 65.370    669.000    701.049    -32.049    507.754    699.498    507.754    509.328    507.754
 65.470    644.376    665.136    -20.759    507.851    663.606    507.851    509.405    507.851
 65.570    645.123    636.779      8.343    507.948    635.265    507.948    509.485    507.948
 65.670    610.000    614.930     -4.930    508.045    613.427    508.045    509.566    508.045
 65.770    595.000    598.468     -3.468    508.142    596.973    508.142    509.649    508.142
 65.870    594.581    586.351      8.230    508.238    584.864    508.238    509.734    508.238
 65.970    579.331    577.717      1.614    508.335    576.237    508.335    509.820    508.335
 66.070    542.000    571.905    -29.905    508.431    570.431    508.431    509.908    508.431
 66.170    562.000    568.419     -6.419    508.527    566.950    508.527    509.997    508.527
 66.270    543.340    566.888    -23.548    508.622    565.423    508.622    510.088    508.622
 66.370    557.000    567.050    -10.050    508.718    565.588    508.718    510.180    508.718
 66.470    587.000    568.784     18.216    508.813    567.324    508.813    510.274    508.813
 66.570    589.681    572.184     17.497    508.908    570.725    508.908    510.369    508.908
 66.670    526.000    577.696    -51.696    509.003    576.235    509.003    510.465    509.003
 66.770    606.000    586.346     19.654    509.097    584.881    509.097    510.563    509.097
 66.870    580.000    600.091    -20.091    509.192    598.620    509.192    510.663    509.192
 66.970    591.000    622.259    -31.259    509.286    620.780    509.286    510.764    509.286
 67.070    642.000    657.982    -15.982    509.379    656.492    509.379    510.866    509.379
 67.170    688.693    714.381    -25.688    509.473    712.876    509.473    510.970    509.473
 67.270    786.548    800.142    -13.594    509.566    798.621    509.566    511.075    509.566
 67.370    918.000    924.159     -6.159    509.658    922.619    509.658    511.182    509.658
 67.470   1110.408   1093.080     17.328    509.751   1091.524    509.751    511.291    509.751
 67.570   1308.000   1308.063     -0.063    509.843   1306.497    509.843    511.402    509.843
 67.670   1561.000   1561.454     -0.454    509.934   1559.885    509.934    511.515    509.934
 67.770   1809.000   1834.329    -25.329    510.026   1832.769    510.026    511.629    510.026
 67.870   2152.721   2095.766     56.955    510.117   2094.229    510.117    511.746    510.117
 67.970   2321.000   2305.229     15.771    510.207   2303.727    510.207    511.865    510.207
 68.070   2448.000   2421.000     27.000    510.297   2419.536    510.297    511.986    510.297
 68.170   2454.356   2415.836     38.520    510.387   2414.400    510.387    512.110    510.387
 68.270   2270.000   2291.125    -21.125    510.477   2289.688    510.477    512.237    510.477
 68.370   2050.000   2076.025    -26.025    510.566   2074.554    510.566    512.367    510.566
 68.470   1808.000   1812.617     -4.617    510.654   1811.078    510.654    512.500    510.654
 68.570   1590.863   1540.796     50.067    510.742   1539.169    510.742    512.637    510.742
 68.670   1239.000   1290.498    -51.498    510.830   1288.768    510.830    512.778    510.830
 68.770   1003.000   1079.638    -76.638    510.917   1077.799    510.917    512.922    510.917
 68.870    857.835    915.017    -57.182    511.004    913.070    511.004    513.072    511.004
 68.970    762.000    794.886    -32.886    511.090    792.834    511.090    513.226    511.090
 69.070    679.278    712.294    -33.016    511.176    710.141    511.176    513.387    511.176
 69.170    674.000    658.291     15.709    511.261    656.037    511.261    513.553    511.261
 69.270    575.367    624.279    -48.912    511.346    621.924    511.346    513.726    511.346
 69.370    629.000    603.289     25.711    511.431    600.829    511.431    513.907    511.431
 69.470    566.325    590.324    -23.999    511.515    587.753    511.515    514.097    511.515
 69.570    568.000    582.143    -14.143    511.598    579.453    511.598    514.296    511.598
 69.670    586.000    576.808      9.192    511.681    573.988    511.681    514.506    511.681
 69.770    607.529    573.239     34.290    511.763    570.278    511.763    514.728    511.763
 69.870    568.000    570.865     -2.865    511.845    567.750    511.845    514.963    511.845
 69.970    560.000    569.399     -9.399    511.926    566.113    511.926    515.214    511.926
 70.070    613.741    568.707     45.034    512.006    565.232    512.006    515.482    512.006
 70.170    614.000    568.751     45.249    512.086    565.067    512.086    515.771    512.086
 70.270    577.138    569.571      7.567    512.166    565.654    512.166    516.082    512.166
 70.370    567.000    571.309     -4.309    512.245    567.132    512.245    516.420    512.245
 70.470    546.000    574.269    -28.269    512.323    569.800    512.323    516.788    512.323
 70.570    564.919    579.025    -14.106    512.400    574.228    512.400    517.193    512.400
 70.670    629.443    586.594     42.850    512.477    581.422    512.477    517.640    512.477
 70.770    622.000    598.643     23.357    512.554    593.044    512.554    518.140    512.554
 70.870    635.000    617.732     17.268    512.630    611.636    512.630    518.706    512.630
 70.970    656.116    647.466      8.650    512.705    640.783    512.705    519.358    512.705
 71.070    737.870    692.447     45.423    512.779    685.058    512.779    520.124    512.779
 71.170    800.952    757.860     43.092    512.853    749.599    512.853    521.050    512.853
 71.270    879.000    848.567     30.433    512.926    839.200    512.926    522.205    512.926
 71.370   1013.000    967.731     45.269    512.998    956.925    512.998    523.689    512.998
 71.470   1120.096   1115.156      4.940    513.070   1102.434    513.070    525.646    513.070
 71.570   1304.000   1285.711     18.289    513.141   1270.407    513.141    528.272    513.141
 71.670   1503.000   1468.239     34.761    513.212   1449.434    513.212    531.821    513.212
 71.770   1577.293   1645.286    -67.993    513.281   1621.763    513.281    536.597    513.281
 71.870   1800.000   1794.233      5.767    513.350   1764.445    513.350    542.936    513.350
 71.970   1880.000   1891.107    -11.107    513.418   1853.179    513.418    551.167    513.418
 72.070   1916.000   1918.018     -2.018    513.486   1869.805    513.486    561.554    513.486
 72.170   1943.071   1871.279     71.792    513.553   1810.503    513.553    574.224    513.553
 72.270   1821.000   1763.450     57.550    513.619   1687.915    513.619    589.086    513.619
 72.370   1650.000   1616.972     33.028    513.684   1524.872    513.684    605.746    513.684
 72.470   1506.000   1455.388     50.612    513.749   1345.700    513.749    623.419    513.749
 72.570   1360.000   1297.722     62.278    513.812   1170.679    513.812    640.850    513.812
 72.670   1154.000   1156.370     -2.370    513.875   1013.965    513.875    656.282    513.875
 72.770    965.000   1037.055    -72.055    513.937    883.384    513.937    667.613    513.937
 72.870    988.864    940.128     48.736    513.999    781.233    513.999    672.899    513.999
 72.970    795.000    862.748    -67.748    514.059    705.701    514.059    671.110    514.059
 73.070    774.053    801.064    -27.011    514.119    652.555    514.119    662.631    514.119
 73.170    749.431    751.557     -2.126    514.178    616.678    514.178    649.059    514.178
 73.270    732.363    711.457     20.907    514.236    593.203    514.236    632.491    514.236
 73.370    630.233    678.721    -48.488    514.293    578.135    514.293    614.881    514.293
 73.470    629.000    651.923    -22.923    514.350    568.545    514.350    597.730    514.350
 73.570    619.000    630.115    -11.115    514.405    562.481    514.405    582.043    514.405
 73.670    662.264    612.681     49.583    514.460    558.751    514.460    568.395    514.460
 73.770    554.000    599.170    -45.170    514.514    556.676    514.514    557.015    514.514
 73.870    566.000    589.177    -23.177    514.567    555.882    514.567    547.873    514.567
 73.970    591.000    582.266      8.734    514.619    556.138    514.619    540.762    514.619
 74.070    530.389    577.933    -47.544    514.670    557.246    514.670    535.377    514.670
 74.170    559.000    575.610    -16.610    514.721    558.974    514.721    531.382    514.721
 74.270    572.152    574.668     -2.516    514.770    561.018    514.770    528.451    514.770
 74.370    529.825    574.442    -44.617    514.819    562.989    514.819    526.307    514.819
 74.470    626.000    574.262     51.738    514.866    564.444    514.866    524.726    514.866
 74.570    613.228    573.541     39.687    514.913    564.959    514.913    523.538    514.913
 74.670    578.855    571.896      6.960    514.959    564.275    514.959    522.624    514.959
 74.770    645.000    569.257     75.743    515.003    562.403    515.003    521.899    515.003
 74.870    612.000    565.860     46.140    515.047    559.636    515.047    521.309    515.047
 74.970    562.224    562.130      0.094    515.090    556.435    515.090    520.818    515.090
 75.070    516.353    558.555    -42.202    515.132    553.313    515.132    520.400    515.132
 75.170    616.000    555.621     60.379    515.173    550.774    515.173    520.041    515.173
 75.270    571.000    553.806     17.194    515.213    549.305    515.213    519.729    515.213
 75.370    529.000    553.586    -24.586    515.253    549.391    515.253    519.455    515.253
 75.470    552.000    555.452     -3.452    515.291    551.530    515.291    519.214    515.291
 75.570    522.758    559.906    -37.148    515.328    556.228    515.328    519.001    515.328
 75.670    547.000    567.423    -20.423    515.364    563.964    515.364    518.813    515.364
 75.770    554.000    578.372    -24.372    515.399    575.109    515.399    518.645    515.399
 75.870    563.000    592.892    -29.892    515.433    589.805    515.433    518.495    515.433
 75.970    663.000    610.751     52.249    515.466    607.823    515.466    518.361    515.466
 76.070    582.098    631.219    -49.121    515.499    628.435    515.499    518.241    515.499
 76.170    694.628    652.981     41.647    515.530    650.327    515.530    518.133    515.530
 76.270    657.932    674.115    -16.182    515.560    671.581    515.560    518.036    515.560
 76.370    671.000    692.182    -21.182    515.589    689.760    515.589    517.948    515.589
 76.470    689.328    704.528    -15.200    515.617    702.213    515.617    517.868    515.617
 76.570    732.680    708.940     23.739    515.644    706.726    515.644    517.796    515.644
 76.670    683.000    704.496    -21.496    515.669    702.379    515.669    517.731    515.669
 76.770    691.000    692.006     -1.006    515.694    689.981    515.694    517.671    515.694
 76.870    726.598    673.611     52.987    515.718    671.673    515.718    517.617    515.718
 76.970    670.032    651.942     18.090    515.741    650.085    515.741    517.567    515.741
 77.070    622.000    629.439     -7.439    515.762    627.658    515.762    517.521    515.762
 77.170    608.000    608.029     -0.029    515.783    606.317    515.783    517.478    515.783
 77.270    624.882    589.020     35.862    515.802    587.372    515.802    517.439    515.802
 77.370    619.398    573.116     46.283    515.821    571.526    515.821    517.403    515.821
 77.470    543.000    560.496    -17.496    515.838    558.960    515.838    517.369    515.838
 77.570    510.191    550.949    -40.758    515.854    549.462    515.854    517.338    515.854
 77.670    536.533    544.027     -7.494    515.869    542.586    515.869    517.308    515.869
 77.770    502.000    539.184    -37.184    515.883    537.785    515.883    517.280    515.883
 77.870    510.856    535.888    -25.031    515.896    534.528    515.896    517.254    515.896
 77.970    523.135    533.680    -10.545    515.907    532.357    515.907    517.229    515.907
 78.070    522.000    532.207    -10.207    515.918    530.919    515.918    517.205    515.918
 78.170    524.000    531.217     -7.217    515.927    529.961    515.927    517.182    515.927
 78.270    468.000    530.542    -62.542    515.936    529.316    515.936    517.161    515.936
 78.370    508.222    530.078    -21.856    515.943    528.880    515.943    517.140    515.943
 78.470    530.000    529.766      0.234    515.949    528.594    515.949    517.119    515.949
 78.570    476.000    529.561    -53.561    515.954    528.414    515.954    517.100    515.954
 78.670    494.000    529.469    -35.469    515.957    528.344    515.957    517.081    515.957
 78.770    524.000    529.525     -5.525    515.960    528.421    515.960    517.063    515.960
 78.870    575.223    529.722     45.502    515.961    528.636    515.961    517.046    515.961
 78.970    558.000    530.077     27.923    515.961    529.007    515.961    517.030    515.961
 79.070    535.000    530.613      4.387    515.960    529.557    515.960    517.015    515.960
 79.170    569.522    531.355     38.167    515.958    530.310    515.958    517.002    515.958
 79.270    521.000    532.326    -11.326    515.955    531.288    515.955    516.990    515.955
 79.370    531.000    533.548     -2.548    515.950    532.514    515.950    516.981    515.950
 79.470    513.195    535.050    -21.855    515.944    534.016    515.944    516.975    515.944
 79.570    552.000    536.870     15.130    515.937    535.830    515.937    516.973    515.937
 79.670    498.000    539.069    -41.069    515.929    538.020    515.929    516.974    515.929
 79.770    541.000    541.747     -0.747    515.920    540.682    515.920    516.979    515.920
 79.870    573.033    545.056     27.977    515.909    543.972    515.909    516.988    515.909
 79.970    606.000    549.227     56.773    515.897    548.118    515.897    517.001    515.897
 80.070    556.803    554.579      2.223    515.884    553.443    515.884    517.017    515.884
 80.170    589.000    561.520     27.480    515.870    560.353    515.870    517.035    515.870
 80.270    581.000    570.491     10.509    515.854    569.293    515.854    517.053    515.854
 80.370    537.404    581.893    -44.489    515.838    580.665    515.838    517.067    515.838
 80.470    571.000    595.964    -24.964    515.820    594.713    515.820    517.076    515.820
 80.570    594.000    612.694    -18.694    515.801    611.430    515.801    517.075    515.801
 80.670    591.000    631.745    -40.745    515.780    630.480    515.780    517.060    515.780
 80.770    643.000    652.413     -9.413    515.759    651.161    515.759    517.030    515.759
 80.870    720.831    673.652     47.179    515.736    672.429    515.736    516.985    515.736
 80.970    675.000    694.184    -19.184    515.711    693.002    515.711    516.926    515.711
 81.070    733.000    712.680     20.320    515.686    711.548    515.686    516.857    515.686
 81.170    755.000    727.933     27.067    515.659    726.856    515.659    516.782    515.659
 81.270    752.000    738.968     13.032    515.631    737.948    515.631    516.704    515.631
 81.370    790.000    745.114     44.886    515.602    744.149    515.602    516.625    515.602
 81.470    689.000    746.069    -57.069    515.572    745.156    515.572    516.548    515.572
 81.570    732.000    741.918     -9.918    515.540    741.051    515.540    516.473    515.540
 81.670    762.000    733.094     28.906    515.507    732.268    515.507    516.401    515.507
 81.770    728.000    720.364      7.636    515.473    719.572    515.473    516.334    515.473
 81.870    740.000    704.799     35.201    515.437    704.035    515.437    516.269    515.437
 81.970    659.000    687.628    -28.628    515.401    686.886    515.401    516.208    515.401
 82.070    674.000    669.983      4.017    515.363    669.259    515.363    516.150    515.363
 82.170    696.000    652.698     43.302    515.323    651.987    515.323    516.094    515.323
 82.270    603.542    636.255    -32.713    515.283    635.553    515.283    516.039    515.283
 82.370    556.000    620.880    -64.880    515.241    620.185    515.241    515.986    515.241
 82.470    635.944    606.703     29.241    515.197    606.012    515.197    515.934    515.197
 82.570    608.717    593.868     14.849    515.153    593.178    515.153    515.881    515.153
 82.670    554.206    582.554    -28.348    515.107    581.865    515.107    515.829    515.107
 82.770    599.000    572.945     26.055    515.060    572.254    515.060    515.777    515.060
 82.870    580.000    565.192     14.808    515.012    564.498    515.012    515.724    515.012
 82.970    512.015    559.398    -47.383    514.962    558.701    514.962    515.670    514.962
 83.070    516.278    555.608    -39.331    514.911    554.908    514.911    515.616    514.911
 83.170    550.000    553.799     -3.799    514.859    553.094    514.859    515.561    514.859
 83.270    537.000    553.858    -16.858    514.805    553.149    514.805    515.505    514.805
 83.370    556.937    555.574      1.363    514.750    554.859    514.750    515.448    514.750
 83.470    585.000    558.626     26.374    514.694    557.906    514.694    515.390    514.694
 83.570    511.170    562.587    -51.417    514.636    561.862    514.636    515.331    514.636
 83.670    561.000    566.938     -5.938    514.578    566.209    514.578    515.271    514.578
 83.770    583.000    571.088     11.912    514.518    570.355    514.518    515.211    514.518
 83.870    562.000    574.424    -12.424    514.456    573.689    514.456    515.149    514.456
 83.970    605.000    576.387     28.613    514.393    575.651    514.393    515.086    514.393
 84.070    572.000    576.585     -4.585    514.329    575.849    514.329    515.022    514.329
 84.170    594.000    574.896     19.104    514.264    574.162    514.264    514.957    514.264
 84.270    574.000    571.497      2.503    514.197    570.767    514.197    514.891    514.197
 84.370    555.000    566.791    -11.791    514.130    566.063    514.130    514.824    514.130
 84.470    602.079    561.277     40.801    514.060    560.554    514.060    514.756    514.060
 84.570    541.000    555.455    -14.455    513.990    554.735    513.990    514.687    513.990
 84.670    565.423    549.751     15.672    513.918    549.033    513.918    514.616    513.918
 84.770    543.000    544.492     -1.492    513.845    543.777    513.845    514.545    513.845
 84.870    491.581    539.895    -48.315    513.770    539.181    513.770    514.473    513.770
 84.970    516.000    536.071    -20.071    513.694    535.357    513.694    514.399    513.694
 85.070    494.013    533.039    -39.026    513.617    532.324    513.617    514.325    513.617
 85.170    556.000    530.753     25.247    513.539    530.036    513.539    514.249    513.539
 85.270    560.000    529.127     30.873    513.459    528.408    513.459    514.173    513.459
 85.370    603.000    528.064     74.936    513.378    527.342    513.378    514.095    513.378
 85.470    536.000    527.474      8.526    513.296    526.748    513.296    514.017    513.296
 85.570    545.993    527.289     18.704    513.212    526.559    513.212    513.937    513.212
 85.670    508.000    527.476    -19.476    513.127    526.741    513.127    513.856    513.127
 85.770    488.069    528.040    -39.971    513.041    527.300    513.041    513.774    513.041
 85.870    509.000    529.029    -20.029    512.953    528.282    512.953    513.692    512.953
 85.970    532.484    530.531      1.954    512.864    529.776    512.864    513.608    512.864
 86.070    560.075    532.670     27.405    512.774    531.908    512.774    513.523    512.774
 86.170    514.000    535.602    -21.602    512.682    534.830    512.682    513.437    512.682
 86.270    552.000    539.498     12.502    512.589    538.714    512.589    513.350    512.589
 86.370    537.000    544.519     -7.519    512.495    543.724    512.495    513.263    512.495
 86.470    531.000    550.802    -19.802    512.400    549.992    512.400    513.174    512.400
 86.570    518.690    558.413    -39.723    512.303    557.587    512.303    513.084    512.303
 86.670    572.000    567.320      4.680    512.205    566.476    512.205    512.994    512.205
 86.770    578.000    577.358      0.642    512.106    576.495    512.106    512.902    512.106
 86.870    617.655    588.206     29.450    512.005    587.323    512.005    512.810    512.005
 86.970    596.000    599.372     -3.372    511.903    598.469    511.903    512.716    511.903
 87.070    633.000    610.201     22.799    511.800    609.278    511.800    512.622    511.800
 87.170    642.000    619.898     22.102    511.696    618.958    511.696    512.527    511.696
 87.270    629.000    627.607      1.393    511.590    626.651    511.590    512.431    511.590
 87.370    649.922    632.535     17.387    511.483    631.567    511.483    512.335    511.483
 87.470    675.000    634.144     40.856    511.375    633.168    511.375    512.237    511.375
 87.570    646.000    632.308     13.692    511.265    631.327    511.265    512.139    511.265
 87.670    613.000    627.352    -14.352    511.154    626.368    511.154    512.040    511.154
 87.770    628.000    619.955      8.045    511.042    618.970    511.042    511.941    511.042
 87.870    628.000    610.984     17.016    510.929    609.999    510.929    511.841    510.929
 87.970    627.389    601.351     26.038    510.814    600.365    510.814    511.740    510.814
 88.070    620.992    591.911     29.082    510.698    590.923    510.698    511.639    510.698
 88.170    570.000    583.405    -13.405    510.581    582.414    510.581    511.537    510.581
 88.270    527.781    576.421    -48.640    510.462    575.425    510.462    511.435    510.462
 88.370    564.000    571.370     -7.370    510.343    570.367    510.343    511.333    510.343
 88.470    549.000    568.478    -19.478    510.222    567.466    510.222    511.230    510.222
 88.570    560.155    567.787     -7.632    510.099    566.764    510.099    511.126    510.099
 88.670    582.000    569.164     12.836    509.976    568.130    509.976    511.023    509.976
 88.770    606.000    572.320     33.680    509.851    571.272    509.851    510.920    509.851
 88.870    574.838    576.824     -1.986    509.725    575.762    509.725    510.816    509.725
 88.970    592.794    582.133     10.661    509.598    581.054    509.598    510.713    509.598
 89.070    611.054    587.614     23.440    509.470    586.518    509.470    510.609    509.470
 89.170    624.000    592.586     31.414    509.340    591.470    509.340    510.507    509.340
 89.270    575.323    596.364    -21.041    509.209    595.224    509.209    510.404    509.209
 89.370    599.000    598.387      0.613    509.077    597.222    509.077    510.302    509.077
 89.470    594.000    598.290     -4.290    508.944    597.095    508.944    510.201    508.944
 89.570    620.000    595.979     24.021    508.810    594.750    508.810    510.101    508.810
 89.670    608.000    591.662     16.338    508.674    590.395    508.674    510.001    508.674
 89.770    545.000    585.770    -40.770    508.537    584.460    508.537    509.904    508.537
 89.870    570.000    578.836     -8.836    508.399    577.479    508.399    509.807    508.399
 89.970    556.202    571.403    -15.201    508.260    569.995    508.260    509.713    508.260
 90.070    513.000    563.955    -50.955    508.119    562.492    508.119    509.621    508.119
 90.170    529.825    556.885    -27.060    507.978    555.363    507.978    509.532    507.978
 90.270    560.000    550.482      9.518    507.835    548.897    507.835    509.446    507.835
 90.370    524.732    544.929    -20.197    507.691    543.276    507.691    509.364    507.691
 90.470    582.554    540.309     42.246    507.546    538.583    507.546    509.286    507.546
 90.570    548.979    536.624     12.355    507.400    534.820    507.400    509.215    507.400
 90.670    518.000    533.820    -15.820    507.252    531.929    507.252    509.151    507.252
 90.770    528.000    531.805     -3.805    507.104    529.817    507.104    509.097    507.104
 90.870    532.000    530.474      1.526    506.954    528.376    506.954    509.055    506.954
 90.970    520.000    529.730     -9.730    506.803    527.506    506.803    509.029    506.803
 91.070    507.000    529.495    -22.495    506.651    527.124    506.651    509.022    506.651
 91.170    527.000    529.726     -2.726    506.498    527.181    506.498    509.042    506.498
 91.270    553.000    530.414     22.586    506.344    527.661    506.344    509.095    506.344
 91.370    588.000    531.595     56.405    506.189    528.590    506.189    509.190    506.189
 91.470    543.000    533.349      9.651    506.032    530.037    506.032    509.339    506.032
 91.570    539.000    535.798      3.202    505.875    532.112    505.875    509.555    505.875
 91.670    586.381    539.107     47.275    505.716    534.963    505.716    509.852    505.716
 91.770    510.000    543.472    -33.472    505.556    538.772    505.556    510.246    505.556
 91.870    504.000    549.114    -45.114    505.396    543.742    505.396    510.754    505.396
 91.970    515.000    556.261    -41.261    505.234    550.083    505.234    511.394    505.234
 92.070    540.000    565.121    -25.121    505.071    557.989    505.071    512.181    505.071
 92.170    583.000    575.838      7.162    504.907    567.590    504.907    513.128    504.907
 92.270    623.000    588.589     34.411    504.742    579.054    504.742    514.244    504.742
 92.370    618.000    603.378     14.622    504.576    592.383    504.576    515.531    504.576
 92.470    599.887    620.090    -20.203    504.409    607.468    504.409    516.985    504.409
 92.570    641.000    638.487      2.513    504.241    624.084    504.241    518.591    504.241
 92.670    644.066    658.186    -14.120    504.072    641.876    504.072    520.322    504.072
 92.770    652.737    678.653    -25.916    503.902    660.351    503.902    522.138    503.902
 92.870    735.000    699.225     35.775    503.731    678.901    503.731    523.984    503.731
 92.970    703.000    719.165    -16.165    503.559    696.862    503.559    525.787    503.559
 93.070    761.000    737.754     23.246    503.386    713.609    503.386    527.454    503.386
 93.170    768.000    754.422     13.578    503.212    728.677    503.212    528.878    503.212
 93.270    757.016    768.848    -11.832    503.037    741.859    503.037    529.948    503.037
 93.370    746.000    780.988    -34.988    502.861    753.213    502.861    530.559    502.861
 93.470    797.000    791.025      5.975    502.684    762.994    502.684    530.640    502.684
 93.570    779.000    799.284    -20.284    502.507    771.551    502.507    530.166    502.507
 93.670    782.175    806.168    -23.993    502.328    779.256    502.328    529.170    502.328
 93.770    817.179    812.125      5.054    502.148    786.477    502.148    527.728    502.148
 93.870    845.000    817.678     27.322    501.968    793.632    501.968    525.948    501.968
 93.970    866.000    823.412     42.588    501.786    801.194    501.786    523.941    501.786
 94.070    843.105    829.893     13.212    501.604    809.622    501.604    521.814    501.604
 94.170    909.000    837.518     71.482    501.421    819.225    501.421    519.655    501.421
 94.270    887.000    846.366     40.634    501.237    830.011    501.237    517.534    501.237
 94.370    872.000    856.095     15.905    501.052    841.585    501.052    515.507    501.052
 94.470    838.000    865.926    -27.926    500.866    853.130    500.866    513.611    500.866
 94.570    902.188    874.696     27.492    500.679    863.458    500.679    511.870    500.679
 94.670    920.000    880.994     39.006    500.492    871.146    500.492    510.299    500.492
 94.770    914.000    883.364     30.636    500.304    874.734    500.304    508.900    500.304
 94.870    873.016    880.583     -7.566    500.115    873.001    500.115    507.671    500.115
 94.970    900.000    871.948     28.052    499.925    865.255    499.925    506.601    499.925
 95.070    895.934    857.476     38.458    499.734    851.523    499.734    505.678    499.734
 95.170    894.000    837.917     56.083    499.543    832.572    499.543    504.885    499.543
 95.270    831.000    814.601     16.399    499.351    809.748    499.351    504.206    499.351
 95.370    750.000    789.208    -39.208    499.158    784.748    499.158    503.624    499.158
 95.470    781.000    763.561     17.439    498.964    759.410    498.964    503.123    498.964
 95.570    755.000    739.478     15.522    498.770    735.567    498.770    502.689    498.770
 95.670    699.000    718.679    -19.679    498.575    714.950    498.575    502.309    498.575
 95.770    740.000    702.728     37.272    498.379    699.136    498.379    501.973    498.379
 95.870    719.000    693.012     25.988    498.182    689.520    498.182    501.672    498.182
 95.970    755.000    690.718     64.282    497.985    687.294    497.985    501.399    497.985
 96.070    696.438    696.829     -0.392    497.787    693.450    497.787    501.149    497.787
 96.170    729.731    712.106     17.624    497.589    708.751    497.589    500.918    497.589
 96.270    724.000    737.120    -13.120    497.390    733.771    497.390    500.702    497.390
 96.370    812.000    772.129     39.871    497.190    768.772    497.190    500.499    497.190
 96.470    766.749    817.054    -50.305    496.989    813.676    496.989    500.308    496.989
 96.570    854.590    871.394    -16.804    496.788    867.985    496.788    500.128    496.788
 96.670    942.000    934.147      7.853    496.587    930.696    496.587    499.957    496.587
 96.770   1015.000   1003.725     11.275    496.385   1000.224    496.385    499.797    496.385
 96.870   1026.777   1077.917    -51.139    496.182   1074.357    496.182    499.645    496.182
 96.970   1130.000   1153.870    -23.870    495.979   1150.246    495.979    499.503    495.979
 97.070   1271.000   1228.136     42.864    495.775   1224.441    495.775    499.371    495.775
 97.170   1238.042   1296.776    -58.734    495.570   1293.003    495.570    499.248    495.570
 97.270   1366.341   1355.594     10.747    495.366   1351.737    495.366    499.136    495.366
 97.370   1392.000   1400.533     -8.533    495.160   1396.585    495.160    499.035    495.160
 97.470   1418.000   1428.240    -10.240    494.954   1424.193    494.954    498.946    494.954
 97.570   1439.000   1436.670      2.330    494.748   1432.513    494.748    498.870    494.748
 97.670   1456.000   1425.498     30.502    494.541   1421.215    494.541    498.809    494.541
 97.770   1387.000   1396.134     -9.134    494.334   1391.709    494.334    498.764    494.334
 97.870   1335.000   1351.369    -16.369    494.127   1346.779    494.127    498.739    494.127
 97.970   1260.000   1294.826    -34.826    493.918   1290.046    493.918    498.736    493.918
 98.070   1158.000   1230.473    -72.473    493.710   1225.470    493.710    498.760    493.710
 98.170   1142.000   1162.255    -20.255    493.501   1156.992    493.501    498.817    493.501
 98.270   1129.000   1093.873     35.127    493.292   1088.307    493.292    498.914    493.292
 98.370   1066.000   1028.645     37.355    493.083   1022.721    493.083    499.061    493.083
 98.470    907.000    969.431    -62.431    492.873    963.083    492.873    499.271    492.873
 98.570    963.164    918.604     44.560    492.663    911.751    492.663    499.559    492.663
 98.670    836.000    878.068    -42.068    492.452    870.609    492.452    499.947    492.452
 98.770    796.793    849.289    -52.496    492.241    841.099    492.241    500.458    492.241
 98.870    799.000    833.356    -34.356    492.030    824.281    492.030    501.122    492.030
 98.970    794.000    831.036    -37.036    491.819    820.888    491.819    501.975    491.819
 99.070    798.000    842.825    -44.825    491.607    831.376    491.607    503.056    491.607
 99.170    878.000    868.976      9.024    491.396    855.952    491.396    504.412    491.396
 99.270    908.000    909.488     -1.488    491.184    894.567    491.184    506.090    491.184
 99.370    987.454    964.078     23.375    490.972    946.888    490.972    508.143    490.972
 99.470   1102.000   1032.127     69.873    490.759   1012.244    490.759    510.622    490.759
 99.570   1161.795   1112.585     49.211    490.547   1089.536    490.547    513.576    490.547
 99.670   1148.000   1203.907    -55.907    490.334   1177.179    490.334    517.046    490.334
 99.770   1357.819   1303.984     53.835    490.121   1273.032    490.121    521.065    490.121
 99.870   1506.000   1410.097     95.903    489.909   1374.360    489.909    525.650    489.909
 99.970   1530.000   1518.915     11.085    489.696   1477.834    489.696    530.797    489.696
100.070   1736.000   1626.625    109.375    489.483   1579.666    489.483    536.481    489.483
100.170   1733.269   1729.072      4.197    489.270   1675.755    489.270    542.648    489.270
100.270   1910.000   1822.083     87.917    489.057   1762.016    489.057    549.210    489.057
100.370   1931.000   1901.860     29.140    488.844   1834.768    488.844    556.047    488.844
100.470   1952.000   1965.269    -13.269    488.631   1891.042    488.631    562.996    488.631
100.570   1997.000   2009.987    -12.987    488.417   1928.716    488.417    569.850    488.417
100.670   2021.000   2034.469    -13.469    488.204   1946.498    488.204    576.359    488.204
100.770   2054.000   2037.910     16.090    487.992   1943.870    487.992    582.232    487.992
100.870   2000.000   2020.303    -20.303    487.779   1921.141    487.779    587.154    487.779
100.970   1996.000   1982.648     13.352    487.566   1879.622    487.566    590.813    487.566
101.070   1927.000   1927.136     -0.136    487.353   1821.772    487.353    592.941    487.353
101.170   1912.000   1857.140     54.860    487.141   1751.141    487.141    593.362    487.141
101.270   1739.000   1776.915    -37.915    486.928   1672.032    486.928    592.026    486.928
101.370   1654.000   1691.098    -37.098    486.716   1588.997    486.716    589.021    486.716
101.470   1597.097   1604.191     -7.094    486.504   1506.329    486.504    584.556    486.504
101.570   1475.000   1520.139    -45.139    486.293   1427.692    486.293    578.914    486.293
101.670   1387.000   1442.078    -55.078    486.081   1355.903    486.081    572.415    486.081
101.770   1347.000   1372.205    -25.205    485.870   1292.851    485.870    565.367    485.870
101.870   1264.322   1311.759    -47.437    485.659   1239.495    485.659    558.051    485.659
101.970   1288.127   1261.056     27.070    485.448   1195.914    485.448    550.706    485.448
102.070   1159.000   1219.575    -60.575    485.238   1161.393    485.238    543.524    485.238
102.170   1139.654   1186.071    -46.417    485.028   1134.538    485.028    536.657    485.028
102.270   1183.160   1158.732     24.428    484.818   1113.426    484.818    530.215    484.818
102.370   1121.000   1135.368    -14.368    484.609   1095.789    484.609    524.276    484.609
102.470   1168.238   1113.655     54.583    484.400   1079.257    484.400    518.885    484.400
102.570   1117.000   1091.419     25.581    484.192   1061.637    484.192    514.060    484.192
102.670   1009.000   1066.916    -57.916    483.984   1041.189    483.984    509.798    483.984
102.770   1099.401   1039.048     60.353    483.776   1016.834    483.776    506.077    483.776
102.870    978.270   1007.436    -29.166    483.569    988.229    483.569    502.863    483.569
102.970    924.000    972.341    -48.341    483.363    955.680    483.363    500.110    483.363
103.070    995.739    934.491     61.249    483.157    919.961    483.157    497.769    483.157
103.170    904.298    894.874      9.424    482.951    882.116    482.951    495.788    482.951
103.270    841.000    854.578    -13.578    482.746    843.282    482.746    494.116    482.746
103.370    865.000    814.667     50.333    482.542    804.571    482.542    492.705    482.542
103.470    796.000    776.102     19.898    482.339    766.990    482.339    491.512    482.339
103.570    747.000    739.698      7.302    482.136    731.391    482.136    490.497    482.136
103.670    662.024    706.088    -44.065    481.933    698.443    481.933    489.626    481.933
103.770    626.606    675.715    -49.108    481.732    668.615    481.732    488.873    481.732
103.870    677.000    648.825     28.175    481.531    642.179    481.531    488.212    481.531
103.970    598.000    625.491    -27.491    481.331    619.225    481.331    487.626    481.331
104.070    638.000    605.629     32.371    481.132    599.684    481.132    487.100    481.132
104.170    569.243    589.036    -19.793    480.933    583.367    480.933    486.621    480.933
104.270    580.000    575.426      4.574    480.735    569.996    480.735    486.181    480.735
104.370    522.730    564.463    -41.733    480.538    559.241    480.538    485.772    480.538
104.470    578.000    555.794     22.206    480.342    550.755    480.342    485.390    480.342
104.570    528.700    549.075    -20.376    480.147    544.198    480.147    485.030    480.147
104.670    541.000    543.991     -2.991    479.953    539.259    479.953    484.689    479.953
104.770    549.774    540.267      9.506    479.760    535.665    479.760    484.364    479.760
104.870    568.000    537.678     30.322    479.568    533.192    479.568    484.054    479.568
104.970    567.778    536.052     31.727    479.376    531.669    479.376    483.757    479.376
105.070    538.000    535.269      2.731    479.186    530.980    479.186    483.472    479.186
105.170    561.632    535.255     26.376    478.997    531.049    478.997    483.199    478.997
105.270    563.311    535.980     27.331    478.809    531.847    478.809    482.935    478.809
105.370    563.000    537.452     25.548    478.622    533.385    478.622    482.681    478.622
105.470    586.622    539.712     46.910    478.436    535.702    478.436    482.436    478.436
105.570    558.242    542.819     15.423    478.251    538.859    478.251    482.199    478.251
105.670    550.000    546.866      3.134    478.067    542.949    478.067    481.970    478.067
105.770    602.899    551.934     50.964    477.885    548.054    477.885    481.750    477.885
105.870    559.000    558.094      0.906    477.704    554.243    477.704    481.536    477.704
105.970    597.000    565.396     31.604    477.524    561.569    477.524    481.330    477.524
106.070    606.000    573.854     32.146    477.345    570.045    477.345    481.130    477.345
106.170    572.572    583.437    -10.865    477.168    579.639    477.168    480.937    477.168
106.270    573.230    594.055    -20.825    476.992    590.265    476.992    480.751    476.992
106.370    625.000    605.564     19.436    476.817    601.776    476.817    480.571    476.817
106.470    570.967    617.753    -46.786    476.644    613.963    476.644    480.397    476.644
106.570    622.000    630.355     -8.355    476.472    626.558    476.472    480.229    476.472
106.670    605.793    643.047    -37.254    476.302    639.239    476.302    480.068    476.302
106.770    645.000    655.462    -10.462    476.133    651.639    476.133    479.912    476.133
106.870    633.000    667.204    -34.204    475.966    663.363    475.966    479.763    475.966
106.970    659.000    677.873    -18.873    475.800    674.009    475.800    479.619    475.800
107.070    678.000    687.096     -9.096    475.636    683.207    475.636    479.482    475.636
107.170    719.464    694.577     24.886    475.473    690.659    475.473    479.350    475.473
107.270    738.000    700.143     37.857    475.312    696.191    475.312    479.225    475.312
107.370    696.000    703.777     -7.777    475.152    699.788    475.152    479.106    475.152
107.470    656.079    705.629    -49.550    474.995    701.599    474.995    478.993    474.995
107.570    737.668    705.993     31.676    474.839    701.917    474.839    478.887    474.839
107.670    723.000    705.251     17.749    474.685    701.126    474.685    478.787    474.685
107.770    723.000    703.821     19.179    474.532    699.641    474.532    478.694    474.532
107.870    683.697    702.098    -18.401    474.381    697.857    474.381    478.607    474.381
107.970    748.248    700.414     47.834    474.233    696.108    474.233    478.528    474.233
108.070    715.000    699.015     15.985    474.086    694.638    474.086    478.456    474.086
108.170    752.000    698.040     53.960    473.941    693.588    473.941    478.391    473.941
108.270    647.000    697.519    -50.519    473.797    692.983    473.797    478.334    473.797
108.370    737.000    697.365     39.635    473.656    692.741    473.656    478.284    473.656
108.470    717.000    697.389     19.611    473.517    692.671    473.517    478.243    473.517
108.570    728.969    697.311     31.657    473.380    692.491    473.380    478.211    473.380
108.670    730.652    696.790     33.862    473.245    691.862    473.245    478.188    473.245
108.770    700.000    695.462      4.538    473.112    690.417    473.112    478.173    473.112
108.870    691.000    692.991     -1.991    472.981    687.822    472.981    478.169    472.981
108.970    695.678    689.119      6.560    472.852    683.817    472.852    478.175    472.852
109.070    669.000    683.708    -14.708    472.726    678.264    472.726    478.191    472.726
109.170    723.000    676.756     46.244    472.601    671.162    472.601    478.219    472.601
109.270    630.624    668.393    -37.769    472.479    662.637    472.479    478.258    472.479
109.370    706.000    658.844     47.156    472.359    652.916    472.359    478.311    472.359
109.470    698.698    648.400     50.299    472.242    642.288    472.242    478.376    472.242
109.570    674.098    637.377     36.721    472.127    631.070    472.127    478.456    472.127
109.670    616.000    626.093    -10.093    472.014    619.576    472.014    478.551    472.014
109.770    642.717    614.845     27.871    471.904    608.105    471.904    478.663    471.904
109.870    607.925    603.902      4.022    471.796    596.923    471.796    478.792    471.796
109.970    596.000    593.494      2.506    471.691    586.259    471.691    478.941    471.691
110.070    595.140    583.812     11.328    471.588    576.302    471.588    479.111    471.588
110.170    485.000    574.998    -89.998    471.487    567.192    471.487    479.304    471.487
110.270    570.000    567.154      2.846    471.390    559.028    471.390    479.524    471.390
110.370    587.000    560.338     26.662    471.295    551.865    471.295    479.774    471.295
110.470    565.000    554.570     10.430    471.202    545.719    471.202    480.058    471.202
110.570    528.227    549.837    -21.610    471.112    540.572    471.112    480.381    471.112
110.670    569.000    546.101     22.899    471.025    536.379    471.025    480.749    471.025
110.770    592.740    543.301     49.439    470.941    533.071    470.941    481.171    470.941
110.870    507.740    541.343    -33.602    470.860    530.546    470.860    481.656    470.860
110.970    556.000    540.180     15.820    470.781    528.743    470.781    482.215    470.781
111.070    557.000    539.754     17.246    470.705    527.593    470.705    482.864    470.705
111.170    499.000    539.973    -40.973    470.633    526.983    470.633    483.618    470.633
111.270    541.000    540.770      0.230    470.563    526.828    470.563    484.499    470.563
111.370    526.000    542.090    -16.090    470.496    527.049    470.496    485.531    470.496
111.470    541.000    543.894     -2.894    470.432    527.576    470.432    486.743    470.432
111.570    575.618    546.153     29.465    470.371    528.351    470.371    488.166    470.371
111.670    590.000    548.856     41.144    470.313    529.323    470.313    489.839    470.313
111.770    565.000    552.006     12.994    470.259    530.453    470.259    491.804    470.259
111.870    542.000    555.621    -13.621    470.208    531.713    470.208    494.107    470.208
111.970    533.000    559.735    -26.735    470.159    533.086    470.159    496.800    470.159
112.070    620.000    564.396     55.604    470.114    534.566    470.114    499.936    470.114
112.170    605.000    569.666     35.334    470.073    536.159    470.073    503.572    470.073
112.270    522.000    575.614    -53.614    470.034    537.878    470.034    507.762    470.034
112.370    563.000    582.328    -19.328    470.000    539.748    470.000    512.571    470.000
112.470    584.000    589.892     -5.892    469.968    541.802    469.968    518.048    469.968
112.570    556.000    598.398    -42.398    469.940    544.084    469.940    524.244    469.940
112.670    632.000    607.942     24.058    469.915    546.649    469.915    531.199    469.915
112.770    597.540    618.625    -21.085    469.894    549.567    469.894    538.942    469.894
112.870    653.000    630.553     22.447    469.877    552.929    469.877    547.491    469.877
112.970    635.000    643.844     -8.844    469.863    556.853    469.863    556.844    469.863
113.070    585.000    658.631    -73.631    469.852    561.491    469.852    566.980    469.852
113.170    630.829    675.069    -44.240    469.846    567.045    469.846    577.857    469.846
113.270    745.979    693.350     52.628    469.843    573.775    469.843    589.404    469.843
113.370    751.196    713.717     37.479    469.844    582.020    469.844    601.525    469.844
113.470    728.073    736.475     -8.402    469.849    592.216    469.849    614.089    469.849
113.570    729.000    762.012    -33.012    469.857    604.918    469.857    626.930    469.857
113.670    802.087    790.843     11.245    469.870    620.823    469.870    639.863    469.870
113.770    817.000    823.592     -6.592    469.886    640.798    469.886    652.649    469.886
113.870    849.000    861.048    -12.048    469.906    665.901    469.906    665.014    469.906
113.970    922.000    904.176     17.824    469.931    697.404    469.931    676.655    469.931
114.070    932.872    954.145    -21.273    469.959    736.807    469.959    687.237    469.959
114.170    979.000   1012.346    -33.346    469.992    785.848    469.992    696.415    469.992
114.270   1029.000   1080.407    -51.407    470.028    846.494    470.028    703.850    470.028
114.370   1141.000   1160.202    -19.202    470.069    920.921    470.069    709.237    470.069
114.470   1210.146   1253.838    -43.692    470.114   1011.475    470.114    712.339    470.114
114.570   1420.000   1363.619     56.381    470.163   1120.604    470.163    713.011    470.163
114.670   1554.000   1491.977     62.023    470.217   1250.769    470.217    711.225    470.217
114.770   1625.887   1641.363    -15.476    470.275   1404.333    470.275    707.066    470.275
114.870   1781.288   1814.093    -32.805    470.337   1583.420    470.337    700.729    470.337
114.970   2179.000   2012.171    166.829    470.404   1789.760    470.404    692.488    470.404
115.070   2281.000   2237.084     43.916    470.476   2024.516    470.476    682.669    470.476
115.170   2435.822   2489.599    -53.777    470.551   2288.109    470.551    671.617    470.551
115.270   2896.000   2769.571    126.429    470.632   2580.053    470.632    659.674    470.632
115.370   3260.000   3075.771    184.229    470.717   2898.802    470.717    647.162    470.717
115.470   3605.000   3405.761    199.239    470.807   3241.627    470.807    634.369    470.807
115.570   3876.000   3755.805    120.195    470.901   3604.545    470.901    621.549    470.901
115.670   4053.000   4120.841    -67.841    471.000   3982.277    471.000    608.919    471.000
115.770   4395.111   4494.500    -99.389    471.104   4368.278    471.104    596.656    471.104
115.870   4925.000   4869.194     55.806    471.213   4754.817    471.213    584.907    471.213
115.970   5220.000   5236.254    -16.254    471.327   5133.114    471.327    573.784    471.327
116.070   5725.000   5586.147    138.853    471.446   5493.554    471.446    563.371    471.446
116.170   6102.000   5908.763    193.237    471.569   5825.971    471.569    553.723    471.569
116.270   6308.000   6193.805    114.195    471.698   6120.037    471.698    544.874    471.698
116.370   6559.000   6431.294    127.706    471.832   6365.764    471.832    536.834    471.832
116.470   6619.000   6612.207      6.793    471.971   6554.133    471.971    529.594    471.971
116.570   6792.692   6729.178     63.514    472.115   6677.801    472.115    523.132    472.115
116.670   6776.936   6777.208     -0.272    472.264   6731.800    472.264    517.411    472.264
116.770   6805.000   6754.190     50.810    472.419   6714.065    472.419    512.387    472.419
116.870   6555.000   6661.150   -106.150    472.579   6625.669    472.579    508.007    472.579
116.970   6450.000   6502.111    -52.111    472.744   6470.685    472.744    504.216    472.744
117.070   6165.000   6283.628   -118.628    472.915   6255.723    472.915    500.957    472.915
117.170   5948.786   6014.127    -65.341    473.091   5989.262    473.091    498.171    473.091
117.270   5339.000   5703.186   -364.186    473.273   5680.935    473.273    495.805    473.273
117.370   5419.307   5360.885     58.422    473.460   5340.872    473.460    493.804    473.460
117.470   4837.000   4997.267   -160.267    473.653   4979.166    473.653    492.121    473.653
117.570   4510.343   4621.921   -111.577    473.852   4605.452    473.852    490.710    473.852
117.670   4311.166   4243.677     67.489    474.056   4228.598    474.056    489.533    474.056
117.770   3916.000   3870.378     45.622    474.266   3856.487    474.266    488.553    474.266
117.870   3536.091   3508.730     27.361    474.482   3495.854    474.482    487.741    474.482
117.970   3242.244   3164.215     78.030    474.703   3152.210    474.703    487.071    474.703
118.070   2845.898   2841.063      4.835    474.931   2829.811    474.931    486.519    474.931
118.170   2607.656   2542.276     65.380    475.165   2531.677    475.165    486.068    475.165
118.270   2333.151   2269.722     63.429    475.404   2259.696    475.404    485.702    475.404
118.370   1923.000   2024.278   -101.278    475.650   2014.758    475.650    485.407    475.650
118.470   1718.000   1805.870    -87.870    475.902   1796.801    475.902    485.174    475.902
118.570   1543.000   1613.706    -70.706    476.160   1605.043    476.160    484.994    476.160
118.670   1421.000   1446.416    -25.416    476.424   1438.120    476.424    484.860    476.424
118.770   1257.000   1302.204    -45.204    476.694   1294.245    476.694    484.766    476.694
118.870   1158.829   1179.001    -20.172    476.971   1171.353    476.971    484.709    476.971
118.970   1054.000   1074.593    -20.593    477.254   1067.234    477.254    484.684    477.254
119.070   1016.277    986.740     29.536    477.544    979.649    477.544    484.688    477.544
119.170    907.507    913.261     -5.755    477.840    906.420    477.840    484.719    477.840
119.270    827.000    852.106    -25.106    478.142    845.499    478.142    484.776    478.142
119.370    754.383    801.398    -47.016    478.452    795.012    478.452    484.857    478.452
119.470    762.211    759.466      2.745    478.768    753.285    478.768    484.961    478.768
119.570    753.000    724.847     28.153    479.090    718.858    479.090    485.087    479.090
119.670    643.626    696.286    -52.660    479.419    690.476    479.419    485.234    479.419
119.770    647.312    672.728    -25.416    479.755    667.084    479.755    485.402    479.755
119.870    661.708    653.293      8.416    480.098    647.802    480.098    485.591    480.098
119.970    598.638    637.260    -38.622    480.448    631.910    480.448    485.800    480.448
120.070    613.000    624.047    -11.047    480.805    618.823    480.805    486.029    480.805
120.170    656.291    613.182     43.109    481.169    608.073    481.169    486.279    481.169
120.270    622.000    604.293     17.707    481.540    599.284    481.540    486.550    481.540
120.370    609.690    597.082     12.608    481.918    592.161    481.918    486.841    481.918
120.470    598.000    591.317      6.683    482.304    586.469    482.304    487.153    482.304
120.570    558.000    586.813    -28.813    482.696    582.025    482.696    487.487    482.696
120.670    556.000    583.426    -27.426    483.096    578.683    483.096    487.842    483.096
120.770    611.000    581.042     29.958    483.503    576.330    483.503    488.220    483.503
120.870    553.000    579.568    -26.568    483.918    574.872    483.918    488.620    483.918
120.970    590.000    578.931     11.069    484.340    574.236    484.340    489.042    484.340
121.070    595.000    579.066     15.934    484.770    574.357    484.770    489.487    484.770
121.170    551.000    579.918    -28.918    485.207    575.179    485.207    489.955    485.207
121.270    575.362    581.433     -6.071    485.652    576.649    485.652    490.446    485.652
121.370    600.000    583.559     16.441    486.104    578.717    486.104    490.959    486.104
121.470    607.000    586.242     20.758    486.565    581.326    486.565    491.495    486.565
121.570    580.000    589.424     -9.424    487.033    584.421    487.033    492.052    487.033
121.670    624.000    593.039     30.961    487.509    587.936    487.509    492.631    487.509
121.770    608.000    597.018     10.982    487.993    591.803    487.993    493.229    487.993
121.870    589.000    601.281    -12.281    488.485    595.944    488.485    493.845    488.485
121.970    630.379    605.743     24.637    488.985    600.275    488.985    494.479    488.985
122.070    596.896    610.309    -13.413    489.493    604.704    489.493    495.127    489.493
122.170    659.000    614.882     44.118    490.010    609.134    490.010    495.789    490.010
122.270    659.091    619.355     39.736    490.534    613.462    490.534    496.460    490.534
122.370    612.000    623.620    -11.620    491.067    617.585    491.067    497.139    491.067
122.470    666.417    627.571     38.846    491.609    621.396    491.609    497.823    491.609
122.570    633.000    631.102      1.898    492.158    624.795    492.158    498.506    492.158
122.670    676.000    634.119     41.881    492.717    627.692    492.717    499.187    492.717
122.770    641.000    636.540      4.460    493.283    630.008    493.283    499.860    493.283
122.870    626.000    638.304    -12.304    493.859    631.687    493.859    500.522    493.859
122.970    606.000    639.372    -33.372    494.443    632.692    494.443    501.169    494.443
123.070    659.299    639.730     19.569    495.036    633.015    495.036    501.797    495.036
123.170    620.084    639.390    -19.306    495.637    632.668    495.637    502.405    495.637
123.270    639.831    638.385      1.446    496.247    631.688    496.247    502.990    496.247
123.370    668.000    636.768     31.232    496.867    630.128    496.867    503.552    496.867
123.470    659.135    634.605     24.530    497.495    628.052    497.495    504.090    497.495
123.570    656.000    631.969     24.031    498.132    625.535    498.132    504.608    498.132
123.670    601.475    628.941    -27.466    498.779    622.652    498.779    505.106    498.779
123.770    619.000    625.600     -6.600    499.434    619.481    499.434    505.590    499.434
123.870    630.000    622.026      7.974    500.099    616.098    500.099    506.061    500.099
123.970    587.812    618.292    -30.480    500.773    612.571    500.773    506.524    500.773
124.070    629.000    614.466     14.534    501.457    608.967    501.457    506.984    501.457
124.170    623.000    610.608     12.392    502.150    605.339    502.150    507.444    502.150
124.270    622.000    606.767     15.233    502.852    601.735    502.852    507.907    502.852
124.370    588.000    602.985    -14.985    503.564    598.191    503.564    508.377    503.564
124.470    614.000    599.290     14.710    504.286    594.735    504.286    508.857    504.286
124.570    566.000    595.704    -29.704    505.017    591.387    505.017    509.349    505.017
124.670    562.000    592.241    -30.241    505.758    588.156    505.758    509.855    505.758
124.770    642.230    588.907     53.323    506.509    585.048    506.509    510.379    506.509
124.870    583.000    585.703     -2.703    507.270    582.061    507.270    510.920    507.270
124.970    576.504    582.627     -6.123    508.041    579.194    508.041    511.480    508.041
