neutron_powder_diffraction_0059
R_wp: 4.051
Temperature (K): 692.540
Counts: 84022.00
Wavelength (Ã…): 2.52098
COMMENTS
Test file for demonstrating the .xyy file format in Reel1.0
END OF HEADER
   tth       Y_obs     Y_calc      Y_res    Background    Phase_1_Nuc    Phase_1_Mag    Phase_2_Nuc    Phase_2_Mag
  9.970    699.000    647.868     51.132    646.656    647.579    646.944    646.656    646.656
 10.070    688.000    647.653     40.347    646.363    647.360    646.655    646.363    646.363
 10.170    666.000    647.443     18.557    646.068    647.148    646.363    646.068    646.068
 10.270    653.838    647.243      6.595    645.769    646.944    646.067    645.769    645.769
 10.370    702.167    647.054     55.112    645.466    646.752    645.768    645.466    645.466
 10.470    677.708    646.880     30.828    645.161    646.575    645.465    645.161    645.161
 10.570    643.000    646.725     -3.725    644.852    646.417    645.160    644.852    644.852
 10.670    669.000    646.595     22.405    644.540    646.283    644.851    644.540    644.540
 10.770    625.845    646.496    -20.651    644.225    646.180    644.540    644.225    644.225
 10.870    656.000    646.438      9.562    643.907    646.119    644.225    643.907    643.907
 10.970    706.000    646.435     59.565    643.586    646.112    643.907    643.586    643.586
 11.070    592.628    646.508    -53.880    643.261    646.181    643.587    643.261    643.261
 11.170    635.000    646.677    -11.677    642.934    646.346    643.263    642.934    642.934
 11.270    677.000    646.984     30.016    642.604    646.648    642.937    642.604    642.604
 11.370    643.000    647.491     -4.491    642.271    647.152    642.608    642.271    642.271
 11.470    634.654    648.321    -13.666    641.935    647.977    642.276    641.935    641.935
 11.570    667.000    649.755     17.245    641.597    649.406    641.942    641.597    641.597
 11.670    665.273    652.510     12.763    641.255    652.155    641.604    641.255    641.255
 11.770    663.000    658.219      4.781    640.911    657.856    641.264    640.911    640.911
 11.870    736.000    669.820     66.180    640.565    669.447    640.922    640.565    640.565
 11.970    685.329    690.504     -5.175    640.215    690.115    640.577    640.215    640.215
 12.070    770.000    721.151     48.849    639.864    720.741    640.229    639.864    639.864
 12.170    787.988    755.597     32.391    639.509    755.163    639.879    639.509    639.509
 12.270    816.944    777.457     39.487    639.152    777.006    639.527    639.152    639.152
 12.370    708.081    771.206    -63.125    638.793    770.754    639.172    638.793    638.793
 12.470    751.000    741.765      9.235    638.431    741.324    638.815    638.431    638.431
 12.570    722.000    706.957     15.043    638.067    706.531    638.455    638.067    638.067
 12.670    678.000    679.230     -1.230    637.700    678.814    638.094    637.700    637.700
 12.770    692.295    661.607     30.688    637.332    661.196    637.730    637.332    637.332
 12.870    669.000    651.892     17.108    636.961    651.481    637.364    636.961    636.961
 12.970    635.000    646.788    -11.788    636.587    646.375    636.996    636.587    636.587
 13.070    593.151    643.916    -50.766    636.212    643.499    636.625    636.212    636.212
 13.170    581.000    642.049    -61.049    635.834    641.627    636.253    635.834    635.834
 13.270    654.296    640.673     13.623    635.455    640.245    635.879    635.455    635.455
 13.370    641.000    639.548      1.452    635.073    639.116    635.503    635.073    635.073
 13.470    586.000    638.597    -52.597    634.689    638.159    635.125    634.689    634.689
 13.570    634.000    637.769     -3.769    634.303    637.326    634.745    634.303    634.303
 13.670    591.458    637.031    -45.573    633.915    636.582    634.363    633.915    633.915
 13.770    609.000    636.359    -27.359    633.526    635.905    633.979    633.526    633.526
 13.870    654.000    635.738     18.262    633.134    635.278    633.594    633.134    633.134
 13.970    626.000    635.156     -9.156    632.741    634.689    633.206    632.741    632.741
 14.070    663.000    634.604     28.396    632.346    634.131    632.817    632.346    632.346
 14.170    634.194    634.076      0.119    631.949    633.596    632.427    631.949    631.949
 14.270    670.444    633.566     36.878    631.550    633.081    632.035    631.550    631.550
 14.370    676.892    633.072     43.819    631.149    632.580    631.641    631.149    631.149
 14.470    602.000    632.590    -30.590    630.747    632.091    631.246    630.747    630.747
 14.570    618.000    632.118    -14.118    630.344    631.612    630.849    630.344    630.344
 14.670    580.000    631.655    -51.655    629.938    631.141    630.451    629.938    629.938
 14.770    684.119    631.198     52.922    629.531    630.677    630.052    629.531    629.531
 14.870    629.000    630.746     -1.746    629.123    630.218    629.651    629.123    629.123
 14.970    589.000    630.300    -41.300    628.713    629.764    629.248    628.713    628.713
 15.070    619.921    629.861     -9.940    628.302    629.318    628.845    628.302    628.302
 15.170    613.000    629.426    -16.426    627.889    628.874    628.440    627.889    627.889
 15.270    618.000    628.989    -10.989    627.475    628.429    628.034    627.475    627.475
 15.370    559.000    628.554    -69.554    627.059    627.986    627.627    627.059    627.059
 15.470    657.000    628.121     28.879    626.643    627.545    627.219    626.643    626.643
 15.570    626.000    627.691     -1.691    626.224    627.106    626.809    626.224    626.224
 15.670    612.977    627.275    -14.298    625.805    626.681    626.399    625.805    625.805
 15.770    619.000    626.862     -7.862    625.384    626.258    625.988    625.384    625.384
 15.870    607.446    626.438    -18.992    624.963    625.826    625.575    624.963    624.963
 15.970    631.000    626.013      4.987    624.540    625.391    625.162    624.540    624.540
 16.070    603.000    625.586    -22.586    624.116    624.954    624.748    624.116    624.116
 16.170    587.560    625.160    -37.600    623.691    624.518    624.333    623.691    623.691
 16.270    610.606    624.734    -14.128    623.264    624.082    623.917    623.264    623.264
 16.370    571.000    624.309    -53.309    622.837    623.646    623.500    622.837    622.837
 16.470    639.307    623.884     15.423    622.409    623.210    623.083    622.409    622.409
 16.570    645.049    623.459     21.590    621.980    622.774    622.665    621.980    621.980
 16.670    639.000    623.034     15.966    621.550    622.338    622.246    621.550    621.550
 16.770    670.892    622.610     48.283    621.119    621.902    621.827    621.119    621.119
 16.870    614.339    622.191     -7.852    620.687    621.471    621.407    620.687    620.687
 16.970    580.000    621.824    -41.824    620.254    621.091    620.986    620.254    620.254
 17.070    604.000    621.422    -17.422    619.821    620.677    620.565    619.821    619.821
 17.170    568.181    621.000    -52.819    619.386    620.242    620.144    619.386    619.386
 17.270    635.000    620.577     14.423    618.951    619.806    619.722    618.951    618.951
 17.370    595.000    620.159    -25.159    618.515    619.374    619.300    618.515    618.515
 17.470    619.375    619.758     -0.383    618.079    618.958    618.879    618.079    618.079
 17.570    597.000    619.399    -22.399    617.642    618.576    618.465    617.642    617.642
 17.670    597.000    618.984    -21.984    617.204    618.145    618.043    617.204    617.204
 17.770    581.000    618.562    -37.562    616.766    617.709    617.619    616.766    616.766
 17.870    615.000    618.141     -3.141    616.327    617.272    617.196    616.327    616.327
 17.970    622.000    617.721      4.279    615.887    616.835    616.773    615.887    615.887
 18.070    632.730    617.300     15.429    615.447    616.398    616.349    615.447    615.447
 18.170    647.374    616.881     30.493    615.007    615.962    615.926    615.007    615.007
 18.270    658.626    616.461     42.164    614.566    615.525    615.502    614.566    614.566
 18.370    576.000    616.042    -40.042    614.124    615.088    615.079    614.124    614.124
 18.470    565.874    615.624    -49.750    613.683    614.651    614.655    613.683    613.683
 18.570    655.032    615.209     39.823    613.240    614.217    614.232    613.240    613.240
 18.670    592.988    614.802    -21.814    612.798    613.791    613.810    612.798    612.798
 18.770    607.000    614.390     -7.390    612.355    613.358    613.387    612.355    612.355
 18.870    603.625    613.976    -10.351    611.912    612.923    612.965    611.912    611.912
 18.970    630.463    613.561     16.901    611.469    612.487    612.543    611.469    611.469
 19.070    569.000    613.147    -44.147    611.025    612.051    612.121    611.025    611.025
 19.170    611.000    612.734     -1.734    610.581    611.615    611.700    610.581    610.581
 19.270    619.000    612.322      6.678    610.137    611.179    611.280    610.137    610.137
 19.370    584.000    611.911    -27.911    609.693    610.744    610.860    609.693    609.693
 19.470    666.229    611.503     54.726    609.248    610.311    610.441    609.248    609.248
 19.570    630.796    611.113     19.683    608.804    609.894    610.023    608.804    608.804
 19.670    613.000    610.745      2.255    608.359    609.498    609.606    608.359    608.359
 19.770    591.399    610.350    -18.951    607.915    609.075    609.190    607.915    607.915
 19.870    631.367    609.956     21.411    607.470    608.648    608.778    607.470    607.470
 19.970    575.000    609.560    -34.560    607.025    608.222    608.363    607.025    607.025
 20.070    566.000    609.189    -43.189    606.581    607.820    607.950    606.581    606.581
 20.170    568.000    608.803    -40.803    606.136    607.402    607.537    606.136    606.136
 20.270    658.858    608.457     50.401    605.692    607.023    607.126    605.692    605.692
 20.370    598.000    608.082    -10.082    605.247    606.614    606.716    605.247    605.247
 20.470    611.000    607.694      3.306    604.803    606.190    606.307    604.803    604.803
 20.570    595.174    607.321    -12.147    604.359    605.781    605.899    604.359    604.359
 20.670    605.000    606.944     -1.944    603.915    605.365    605.493    603.915    603.915
 20.770    617.632    606.598     11.034    603.471    604.979    605.089    603.471    603.471
 20.870    603.334    606.220     -2.886    603.027    604.560    604.687    603.027    603.027
 20.970    587.000    605.850    -18.850    602.584    604.145    604.288    602.584    602.584
 21.070    610.237    605.485      4.752    602.140    603.734    603.892    602.140    602.140
 21.170    613.000    605.113      7.887    601.697    603.316    603.495    601.697    601.697
 21.270    562.000    604.744    -42.744    601.255    602.898    603.100    601.255    601.255
 21.370    603.000    604.378     -1.378    600.812    602.483    602.708    600.812    600.812
 21.470    614.000    604.017      9.983    600.370    602.069    602.318    600.370    600.370
 21.570    592.000    603.662    -11.662    599.929    601.660    601.931    599.929    599.929
 21.670    567.000    603.311    -36.311    599.488    601.253    601.547    599.488    599.488
 21.770    651.705    602.964     48.741    599.047    600.846    601.165    599.047    599.047
 21.870    589.412    602.623    -13.211    598.606    600.443    600.786    598.606    598.606
 21.970    616.000    602.288     13.712    598.166    600.044    600.411    598.166    598.166
 22.070    621.000    601.959     19.041    597.727    599.647    600.039    597.727    597.727
 22.170    612.000    601.636     10.364    597.288    599.254    599.671    597.288    597.288
 22.270    587.000    601.321    -14.321    596.849    598.865    599.306    596.849    596.849
 22.370    587.000    601.015    -14.015    596.411    598.481    598.946    596.411    596.411
 22.470    602.000    600.718      1.282    595.974    598.102    598.590    595.974    595.974
 22.570    592.388    600.431     -8.043    595.537    597.730    598.239    595.537    595.537
 22.670    612.933    600.158     12.775    595.101    597.367    597.892    595.101    595.101
 22.770    604.000    599.896      4.104    594.665    597.010    597.551    594.665    594.665
 22.870    594.000    599.648     -5.648    594.230    596.663    597.215    594.230    594.230
 22.970    563.000    599.416    -36.416    593.796    596.327    596.886    593.796    593.796
 23.070    609.000    599.204      9.796    593.362    596.005    596.562    593.362    593.362
 23.170    548.147    599.014    -50.867    592.929    595.698    596.246    592.929    592.929
 23.270    583.000    598.851    -15.851    592.497    595.412    595.937    592.497    592.497
 23.370    646.212    598.719     47.494    592.065    595.149    595.636    592.065    592.065
 23.470    653.000    598.623     54.377    591.635    594.916    595.343    591.635    591.635
 23.570    598.000    598.574     -0.574    591.205    594.721    595.059    591.205    591.205
 23.670    585.000    598.583    -13.583    590.775    594.575    594.784    590.775    590.775
 23.770    648.000    598.664     49.336    590.347    594.492    594.520    590.347    590.347
 23.870    621.000    598.843     22.157    589.919    594.496    594.268    589.919    589.919
 23.970    611.000    599.153     11.847    589.492    594.620    594.028    589.492    589.492
 24.070    604.000    599.657      4.343    589.066    594.925    593.801    589.066    589.066
 24.170    618.000    600.494     17.506    588.641    595.550    593.588    588.641    588.641
 24.270    620.000    601.989     18.011    588.217    596.819    593.391    588.217    588.217
 24.370    587.000    604.869    -17.869    587.794    599.458    593.211    587.794    587.794
 24.470    641.000    610.479     30.521    587.372    604.811    593.051    587.372    587.372
 24.570    679.000    620.638     58.362    586.950    614.696    592.910    586.950    586.950
 24.670    686.000    636.676     49.324    586.530    630.442    592.793    586.530    586.530
 24.770    629.480    657.521    -28.041    586.110    650.976    592.700    586.110    586.110
 24.870    678.000    677.388      0.612    585.692    670.503    592.635    585.692    585.692
 24.970    719.000    685.718     33.282    585.274    678.457    592.601    585.274    585.274
 25.070    716.572    676.241     40.331    584.858    668.556    592.601    584.858    584.858
 25.170    657.000    656.004      0.996    584.442    647.849    592.641    584.442    584.442
 25.270    684.631    635.500     49.131    584.028    626.835    592.722    584.028    584.028
 25.370    605.000    620.106    -15.106    583.615    610.888    592.850    583.615    583.615
 25.470    587.658    610.604    -22.946    583.203    600.784    593.033    583.203    583.203
 25.570    653.000    605.558     47.442    582.792    595.079    593.277    582.792    582.792
 25.670    613.000    603.163      9.837    582.382    591.958    593.590    582.382    582.382
 25.770    581.603    602.140    -20.537    581.973    590.131    593.984    581.973    581.973
 25.870    633.000    601.820     31.180    581.565    588.918    594.469    581.565    581.565
 25.970    678.000    601.921     76.079    581.159    588.020    595.061    581.159    581.159
 26.070    633.885    602.338     31.547    580.753    587.315    595.778    580.753    580.753
 26.170    650.000    603.038     46.962    580.349    586.748    596.640    580.349    580.349
 26.270    664.000    604.013     59.987    579.946    586.289    597.670    579.946    579.946
 26.370    623.000    605.282     17.718    579.544    585.923    598.903    579.544    579.544
 26.470    619.000    606.876     12.124    579.144    585.641    600.378    579.144    579.144
 26.570    654.292    608.844     45.448    578.745    585.442    602.146    578.745    578.745
 26.670    571.395    611.253    -39.857    578.347    585.328    604.270    578.347    578.347
 26.770    631.000    614.192     16.808    577.950    585.305    606.835    577.950    577.950
 26.870    654.000    617.783     36.217    577.554    585.386    609.949    577.554    577.554
 26.970    648.000    622.191     25.809    577.160    585.591    613.757    577.160    577.160
 27.070    651.655    627.640     24.015    576.767    585.946    618.458    576.767    576.767
 27.170    657.000    634.443     22.557    576.376    586.491    624.324    576.376    576.376
 27.270    624.663    643.044    -18.381    575.986    587.283    631.742    575.986    575.986
 27.370    625.569    654.101    -28.532    575.597    588.407    641.285    575.597    575.597
 27.470    693.215    668.689     24.527    575.210    590.000    653.890    575.210    575.210
 27.570    715.000    688.953     26.047    574.823    592.340    671.426    574.823    574.823
 27.670    752.000    720.268     31.732    574.439    596.112    698.579    574.439    574.439
 27.770    752.000    776.986    -24.986    574.056    603.149    747.867    574.056    574.056
 27.870    855.000    892.690    -37.690    573.674    617.728    848.586    573.674    573.674
 27.970   1194.601   1127.230     67.371    573.293    647.471   1052.955    573.293    573.293
 28.070   1481.621   1548.490    -66.869    572.914    701.030   1420.201    572.914    572.914
 28.170   2111.000   2169.335    -58.335    572.537    780.077   1961.533    572.537    572.537
 28.270   2757.823   2855.965    -98.143    572.161    867.676   2560.137    572.161    572.161
 28.370   3380.519   3290.184     90.335    571.786    923.551   2938.158    571.786    571.786
 28.470   3129.077   3196.680    -67.603    571.413    913.115   2854.863    571.413    571.413
 28.570   2669.000   2696.620    -27.620    571.041    852.624   2415.042    571.041    571.041
 28.670   2042.000   2157.079   -115.079    570.671    790.092   1937.700    570.671    570.671
 28.770   1858.806   1846.951     11.855    570.302    761.023   1656.257    570.302    570.302
 28.870   1882.804   1826.890     55.914    569.935    773.095   1623.730    569.935    569.935
 28.970   1929.987   1985.638    -55.650    569.570    808.968   1746.238    569.570    569.570
 29.070   2165.665   2107.045     58.620    569.206    834.007   1842.283    569.206    569.206
 29.170   2109.703   2011.262     98.441    568.843    818.988   1761.215    568.843    568.843
 29.270   1633.000   1715.686    -82.686    568.482    768.107   1516.185    568.482    568.482
 29.370   1360.249   1365.891     -5.642    568.123    707.348   1226.775    568.123    568.123
 29.470   1060.000   1075.872    -15.872    567.765    656.874    986.839    567.765    567.765
 29.570    935.000    881.683     53.317    567.409    623.086    826.051    567.409    567.409
 29.670    776.000    769.215      6.785    567.054    603.556    732.737    567.054    567.054
 29.770    681.734    708.749    -27.015    566.701    593.105    682.357    566.701    566.701
 29.870    748.000    675.614     72.386    566.350    587.431    654.540    566.350    566.350
 29.970    632.213    655.524    -23.311    566.000    584.053    637.475    566.000    566.000
 30.070    630.896    641.862    -10.966    565.652    581.837    625.679    565.652    565.652
 30.170    579.157    631.894    -52.737    565.306    580.339    616.861    565.306    565.306
 30.270    614.313    624.511    -10.198    564.961    579.432    610.039    564.961    564.961
 30.370    678.000    619.352     58.648    564.618    579.202    604.766    564.618    564.618
 30.470    638.000    616.648     21.352    564.276    580.006    600.914    564.276    564.276
 30.570    657.127    617.320     39.807    563.937    582.600    598.648    563.937    563.937
 30.670    682.000    622.916     59.084    563.599    588.119    598.381    563.599    563.599
 30.770    680.000    634.933     45.067    563.262    597.634    600.537    563.262    563.262
 30.870    666.000    653.290     12.710    562.928    611.150    605.031    562.928    562.928
 30.970    755.000    674.165     80.835    562.595    626.161    610.550    562.595    562.595
 31.070    736.000    688.693     47.307    562.263    636.792    614.110    562.263    562.263
 31.170    726.000    687.368     38.632    561.934    636.730    612.520    561.934    561.934
 31.270    663.958    669.727     -5.769    561.606    625.687    605.606    561.606    561.606
 31.370    655.000    644.937     10.063    561.280    609.790    596.399    561.280    561.280
 31.470    654.000    622.076     31.924    560.956    595.107    587.906    560.956    560.956
 31.570    595.000    605.159    -10.159    560.633    584.328    581.453    560.633    560.633
 31.670    616.087    594.300     21.787    560.312    577.539    577.066    560.312    560.312
 31.770    623.000    587.883     35.117    559.993    573.671    574.200    559.993    559.993
 31.870    581.000    584.125     -3.125    559.676    571.544    572.253    559.676    559.676
 31.970    612.000    581.780     30.220    559.360    570.333    570.805    559.360    559.360
 32.070    574.070    580.178     -6.108    559.047    569.597    569.625    559.047    559.047
 32.170    587.000    579.013      7.987    558.735    569.140    568.606    558.735    558.735
 32.270    609.000    578.157     30.843    558.425    568.882    567.698    558.425    558.425
 32.370    614.000    577.558     36.442    558.116    568.795    566.878    558.116    558.116
 32.470    623.414    577.193     46.221    557.810    568.871    566.130    557.810    557.810
 32.570    610.000    577.061     32.939    557.505    569.118    565.447    557.505    557.505
 32.670    603.000    577.174     25.826    557.202    569.553    564.821    557.202    557.202
 32.770    609.000    577.558     31.442    556.901    570.207    564.250    556.901    556.901
 32.870    605.000    578.261     26.739    556.602    571.128    563.733    556.602    556.602
 32.970    601.000    579.350     21.650    556.304    572.381    563.271    556.304    556.304
 33.070    587.000    580.932      6.068    556.009    574.068    562.870    556.009    556.009
 33.170    601.547    583.174     18.373    555.715    576.346    562.540    555.715    555.715
 33.270    610.000    586.382     23.618    555.423    579.500    562.302    555.423    555.423
 33.370    542.327    591.192    -48.865    555.133    584.119    562.202    555.133    555.133
 33.470    623.000    599.002     23.998    554.845    591.497    562.344    554.845    554.845
 33.570    596.000    612.726    -16.726    554.558    604.330    562.946    554.558    554.558
 33.670    615.000    637.616    -22.616    554.274    627.471    564.405    554.274    554.274
 33.770    650.000    681.192    -31.192    553.991    667.876    567.286    553.991    553.991
 33.870    693.041    750.843    -57.802    553.711    732.375    572.146    553.711    553.711
 33.970    874.000    848.237     25.763    553.432    822.514    579.110    553.432    553.432
 34.070    940.000    961.246    -21.246    553.155    927.086    587.264    553.155    553.155
 34.170   1094.952   1056.619     38.332    552.880   1015.356    594.097    552.880    552.880
 34.270   1044.892   1087.361    -42.469    552.607   1043.874    596.062    552.607    552.607
 34.370   1096.256   1032.867     63.389    552.335    993.582    591.605    552.335    552.335
 34.470    886.000    925.961    -39.961    552.066    894.821    583.201    552.066    552.066
 34.570    848.433    813.714     34.720    551.798    791.110    574.401    551.798    551.798
 34.670    665.895    723.057    -57.162    551.533    707.353    567.237    551.533    551.533
 34.770    657.000    660.947     -3.947    551.269    649.980    562.236    551.269    551.269
 34.870    648.000    623.120     24.880    551.007    615.053    559.074    551.007    551.007
 34.970    587.000    601.596    -14.596    550.747    595.193    557.150    550.747    550.747
 35.070    597.164    589.346      7.818    550.489    583.902    555.932    550.489    550.489
 35.170    596.256    581.859     14.397    550.233    577.010    555.082    550.233    550.233
 35.270    572.000    576.781     -4.781    549.979    572.339    554.420    549.979    549.979
 35.370    546.000    573.021    -27.021    549.726    568.882    553.865    549.726    549.726
 35.470    557.975    570.080    -12.104    549.476    566.176    553.379    549.476    549.476
 35.570    581.000    567.707     13.293    549.228    563.991    552.944    549.228    549.228
 35.670    586.000    565.755     20.245    548.981    562.187    552.548    548.981    548.981
 35.770    584.000    564.124     19.876    548.736    560.675    552.185    548.736    548.736
 35.870    593.000    562.746     30.254    548.494    559.389    551.851    548.494    548.494
 35.970    537.837    561.570    -23.733    548.253    558.282    551.541    548.253    548.253
 36.070    540.000    560.559    -20.559    548.014    557.319    551.254    548.014    548.014
 36.170    555.000    559.686     -4.686    547.777    556.473    550.990    547.777    547.777
 36.270    587.000    558.931     28.069    547.542    555.726    550.748    547.542    547.542
 36.370    591.000    558.280     32.720    547.309    555.061    550.529    547.309    547.309
 36.470    606.150    557.723     48.427    547.078    554.467    550.334    547.078    547.078
 36.570    563.000    557.255      5.745    546.849    553.936    550.168    546.849    546.849
 36.670    558.000    556.874      1.126    546.622    553.463    550.033    546.622    546.622
 36.770    579.000    556.584     22.416    546.396    553.044    549.936    546.396    546.396
 36.870    570.000    556.394     13.606    546.173    552.683    549.884    546.173    546.173
 36.970    533.000    556.325    -23.325    545.952    552.387    549.889    545.952    545.952
 37.070    537.000    556.416    -19.416    545.732    552.179    549.969    545.732    545.732
 37.170    595.055    556.759     38.296    545.514    552.122    550.151    545.514    545.514
 37.270    588.842    557.516     31.326    545.299    552.322    550.493    545.299    545.299
 37.370    544.904    558.965    -14.061    545.085    552.943    551.108    545.085    545.085
 37.470    596.594    561.542     35.052    544.873    554.180    552.235    544.873    544.873
 37.570    557.414    565.843     -8.429    544.663    556.180    554.327    544.663    544.663
 37.670    549.000    572.549    -23.549    544.455    558.895    558.110    544.455    544.455
 37.770    531.024    582.176    -51.152    544.249    561.923    564.503    544.249    544.249
 37.870    581.000    594.624    -13.624    544.045    564.401    574.269    544.045    544.045
 37.970    586.000    608.778    -22.778    543.843    565.254    587.369    543.843    543.843
 38.070    603.000    622.506    -19.506    543.643    564.023    602.129    543.643    543.643
 38.170    597.686    632.370    -34.685    543.445    561.323    614.497    543.445    543.445
 38.270    624.000    633.694     -9.694    543.248    558.094    618.855    543.248    543.248
 38.370    607.000    624.410    -17.410    543.054    554.987    612.484    543.054    543.054
 38.470    580.000    608.385    -28.385    542.862    552.388    598.866    542.862    542.862
 38.570    530.000    591.431    -61.431    542.671    550.438    583.669    542.671    542.671
 38.670    589.000    577.172     11.828    542.482    549.078    570.580    542.482    542.482
 38.770    562.000    566.801     -4.801    542.296    548.158    560.941    542.296    542.296
 38.870    551.000    560.011     -9.011    542.111    547.527    554.597    542.111    542.111
 38.970    611.000    555.858     55.142    541.928    547.071    550.716    541.928    541.928
 39.070    519.526    553.359    -33.833    541.747    546.719    548.387    541.747    541.747
 39.170    530.062    551.786    -21.725    541.568    546.428    546.927    541.568    541.568
 39.270    553.000    550.707      2.293    541.391    546.175    545.923    541.391    541.391
 39.370    501.063    549.897    -48.834    541.216    545.949    545.164    541.216    541.216
 39.470    521.000    549.249    -28.249    541.042    545.744    544.548    541.042    541.042
 39.570    532.000    548.711    -16.711    540.871    545.556    544.026    540.871    540.871
 39.670    498.527    548.254    -49.726    540.701    545.382    543.573    540.701    540.701
 39.770    586.475    547.860     38.615    540.534    545.223    543.171    540.534    540.534
 39.870    514.103    547.517    -33.414    540.368    545.075    542.810    540.368    540.368
 39.970    508.000    547.218    -39.218    540.204    544.941    542.482    540.204    540.204
 40.070    567.219    546.954     20.265    540.042    544.818    542.179    540.042    540.042
 40.170    490.000    546.723    -56.723    539.882    544.707    541.898    539.882    539.882
 40.270    544.000    546.520     -2.520    539.724    544.609    541.636    539.724    539.724
 40.370    520.664    546.343    -25.679    539.568    544.523    541.389    539.568    539.568
 40.470    554.000    546.192      7.808    539.414    544.452    541.155    539.414    539.414
 40.570    501.000    546.066    -45.066    539.261    544.395    540.932    539.261    539.261
 40.670    538.000    545.964     -7.964    539.111    544.356    540.720    539.111    539.111
 40.770    483.000    545.888    -62.888    538.962    544.334    540.517    538.962    538.962
 40.870    546.000    545.840      0.160    538.815    544.334    540.322    538.815    538.815
 40.970    523.000    545.821    -22.821    538.670    544.357    540.135    538.670    538.670
 41.070    542.000    545.836     -3.836    538.527    544.409    539.954    538.527    538.527
 41.170    555.604    545.889      9.715    538.386    544.494    539.781    538.386    538.386
 41.270    594.500    545.986     48.514    538.246    544.620    539.614    538.246    538.246
 41.370    547.000    546.136      0.864    538.109    544.793    539.453    538.109    538.109
 41.470    499.442    546.352    -46.910    537.973    545.027    539.299    537.973    537.973
 41.570    521.000    546.648    -25.648    537.839    545.338    539.151    537.839    537.839
 41.670    533.000    547.050    -14.050    537.707    545.749    539.011    537.707    537.707
 41.770    527.000    547.599    -20.599    537.577    546.300    538.878    537.577    537.577
 41.870    542.000    548.370     -6.370    537.449    547.065    538.757    537.449    537.449
 41.970    601.640    549.516     52.123    537.322    548.191    538.650    537.322    537.322
 42.070    551.000    551.335     -0.335    537.198    549.968    538.568    537.198    537.198
 42.170    518.000    554.369    -36.369    537.075    552.920    538.528    537.075    537.075
 42.270    591.112    559.475     31.636    536.954    557.880    538.556    536.954    536.954
 42.370    509.000    567.784    -58.784    536.834    565.941    538.689    536.834    536.834
 42.470    545.000    580.398    -35.398    536.717    578.171    538.960    536.717    536.717
 42.570    573.000    597.800    -24.800    536.601    595.040    539.386    536.601    536.601
 42.670    603.000    619.027    -16.027    536.488    615.614    539.936    536.488    536.488
 42.770    603.000    640.768    -37.768    536.375    636.686    540.504    536.375    536.375
 42.870    643.527    656.992    -13.464    536.265    652.414    540.900    536.265    536.265
 42.970    690.034    661.023     29.011    536.157    656.328    540.914    536.157    536.157
 43.070    685.045    650.745     34.300    536.050    646.378    540.476    536.050    536.050
 43.170    594.000    630.926    -36.926    535.945    627.181    539.739    535.945    535.945
 43.270    563.000    608.622    -45.622    535.842    605.576    538.926    535.842    535.842
 43.370    496.000    588.734    -92.734    535.740    586.310    538.191    535.740    535.740
 43.470    592.222    573.387     18.834    535.641    571.443    537.603    535.641    535.641
 43.570    596.000    562.758     33.242    535.543    561.147    537.166    535.543    535.543
 43.670    509.871    555.979    -46.108    535.447    554.579    536.854    535.447    535.447
 43.770    468.000    551.867    -83.867    535.352    550.597    536.628    535.352    535.352
 43.870    523.000    549.392    -26.392    535.259    548.199    536.457    535.259    535.259
 43.970    533.000    547.842    -14.842    535.168    546.697    536.317    535.168    535.168
 44.070    573.000    546.801     26.199    535.079    545.688    536.195    535.079    535.079
 44.170    544.224    546.050     -1.826    534.992    544.959    536.085    534.992    534.992
 44.270    543.942    545.481     -1.539    534.906    544.405    535.983    534.906    534.906
 44.370    561.000    545.038     15.962    534.822    543.973    535.888    534.822    534.822
 44.470    546.000    544.690      1.310    534.739    543.633    535.797    534.739    534.739
 44.570    566.345    544.416     21.929    534.658    543.364    535.712    534.658    534.658
 44.670    492.731    544.204    -51.473    534.579    543.153    535.631    534.579    534.579
 44.770    534.633    544.043     -9.410    534.502    542.992    535.553    534.502    534.502
 44.870    542.524    543.926     -1.402    534.426    542.873    535.480    534.426    534.426
 44.970    521.508    543.847    -22.339    534.352    542.789    535.410    534.352    534.352
 45.070    572.000    543.803     28.197    534.280    542.738    535.344    534.280    534.280
 45.170    541.998    543.789     -1.791    534.209    542.717    535.281    534.209    534.209
 45.270    542.000    543.805     -1.805    534.140    542.723    535.222    534.140    534.140
 45.370    555.745    543.849     11.896    534.072    542.754    535.167    534.072    534.072
 45.470    509.631    543.920    -34.289    534.006    542.811    535.115    534.006    534.006
 45.570    521.599    544.017    -22.418    533.942    542.893    535.066    533.942    533.942
 45.670    551.717    544.141      7.576    533.879    542.999    535.022    533.879    533.879
 45.770    543.000    544.293     -1.293    533.818    543.131    534.981    533.818    533.818
 45.870    545.000    544.474      0.526    533.759    543.289    534.944    533.759    533.759
 45.970    568.267    544.686     23.581    533.701    543.475    534.911    533.701    533.701
 46.070    551.000    544.930      6.070    533.645    543.691    534.883    533.645    533.645
 46.170    514.000    545.211    -31.211    533.590    543.940    534.860    533.590    533.590
 46.270    514.912    545.531    -30.619    533.537    544.226    534.842    533.537    533.537
 46.370    543.044    545.897     -2.853    533.486    544.552    534.829    533.486    533.486
 46.470    535.000    546.313    -11.313    533.436    544.924    534.823    533.436    533.436
 46.570    561.936    546.787     15.148    533.387    545.350    534.823    533.387    533.387
 46.670    552.000    547.331      4.669    533.340    545.840    534.831    533.340    533.340
 46.770    575.825    547.959     27.866    533.295    546.405    534.847    533.295    533.295
 46.870    566.000    548.692     17.308    533.251    547.068    534.874    533.251    533.251
 46.970    573.000    549.570     23.430    533.209    547.862    534.914    533.209    533.209
 47.070    574.353    550.661     23.693    533.168    548.853    534.973    533.168    533.168
 47.170    540.944    552.095    -11.151    533.129    550.162    535.058    533.129    533.129
 47.270    558.115    554.107      4.008    533.091    552.005    535.188    533.091    533.091
 47.370    534.074    557.076    -23.002    533.054    554.737    535.387    533.054    533.054
 47.470    584.000    561.543     22.457    533.020    558.861    535.693    533.020    533.020
 47.570    551.000    568.145    -17.145    532.986    564.967    536.150    532.986    532.986
 47.670    589.000    577.425     11.575    532.954    573.564    536.795    532.954    532.954
 47.770    575.531    589.534    -14.003    532.924    584.790    537.640    532.924    532.924
 47.870    563.000    603.864    -40.864    532.895    598.077    538.643    532.895    532.895
 47.970    639.000    618.655     20.345    532.867    611.788    539.687    532.867    532.867
 48.070    638.000    630.769      7.231    532.841    622.997    540.559    532.841    532.841
 48.170    615.212    636.429    -21.217    532.816    628.186    541.003    532.816    532.816
 48.270    673.000    633.773     39.227    532.793    625.620    540.894    532.793    532.793
 48.370    598.593    624.681    -26.088    532.771    617.045    540.364    532.771    532.771
 48.470    636.000    612.983     23.017    532.750    606.026    539.674    532.750    532.750
 48.570    586.000    601.899    -15.899    532.731    595.558    539.047    532.731    532.731
 48.670    545.000    593.285    -48.285    532.713    587.365    538.615    532.713    532.713
 48.770    605.000    587.857     17.143    532.697    582.109    538.433    532.697    532.697
 48.870    587.000    585.588      1.412    532.682    579.757    538.504    532.682    532.682
 48.970    575.710    586.089    -10.379    532.668    579.935    538.814    532.668    532.668
 49.070    590.000    588.930      1.070    532.656    582.232    539.348    532.656    532.656
 49.170    582.000    593.889    -11.889    532.645    586.417    540.111    532.645    532.645
 49.270    596.000    601.159     -5.159    532.635    592.629    541.159    532.635    532.635
 49.370    622.000    611.681     10.319    532.627    601.661    542.639    532.627    532.627
 49.470    657.000    627.853     29.147    532.620    615.565    544.895    532.620    532.620
 49.570    668.000    654.839     13.161    532.614    638.778    548.655    532.614    532.614
 49.670    686.942    702.394    -15.452    532.609    679.685    555.284    532.609    532.609
 49.770    772.000    786.312    -14.312    532.606    751.867    566.993    532.606    532.606
 49.870    868.000    927.474    -59.474    532.604    873.284    586.704    532.604    532.604
 49.970   1094.706   1146.101    -51.395    532.603   1061.333    617.246    532.603    532.603
 50.070   1398.303   1450.417    -52.114    532.604   1323.097    659.770    532.604    532.604
 50.170   1738.000   1822.466    -84.466    532.606   1643.148    711.764    532.606    532.606
 50.270   2326.000   2206.442    119.558    532.608   1973.506    765.419    532.608    532.608
 50.370   2436.130   2506.928    -70.797    532.613   2232.120    807.377    532.613    532.613
 50.470   2679.520   2616.086     63.435    532.618   2326.234    822.531    532.618    532.618
 50.570   2500.000   2485.643     14.357    532.625   2214.314    804.096    532.625    532.625
 50.670   2201.000   2173.524     27.476    532.632   1946.198    760.133    532.632    532.632
 50.770   1838.096   1790.252     47.844    532.641   1617.003    706.060    532.641    532.641
 50.870   1366.000   1428.475    -62.475    532.652   1306.476    654.791    532.652    532.652
 50.970   1110.000   1139.901    -29.901    532.663   1059.134    613.535    532.663    532.663
 51.070    900.000    938.929    -38.929    532.675    887.357    584.322    532.675    532.675
 51.170    792.363    814.770    -22.407    532.689    781.783    565.731    532.689    532.689
 51.270    768.860    745.420     23.440    532.704    723.299    554.869    532.704    532.704
 51.370    668.000    708.493    -40.493    532.719    692.358    548.892    532.719    532.719
 51.470    700.000    686.870     13.130    532.736    673.903    545.738    532.736    532.736
 51.570    676.000    670.485      5.515    532.754    659.082    544.189    532.754    532.754
 51.670    674.000    655.500     18.500    532.774    644.664    543.636    532.774    532.774
 51.770    631.000    641.652    -10.652    532.794    630.682    543.785    532.794    532.794
 51.870    649.000    629.698     19.302    532.815    618.096    544.432    532.815    532.815
 51.970    612.274    620.173     -7.899    532.837    607.688    545.332    532.837    532.837
 52.070    641.000    613.078     27.922    532.861    599.812    546.133    532.861    532.861
 52.170    657.430    607.958     49.473    532.885    594.436    546.411    532.885    532.885
 52.270    622.000    604.203     17.797    532.911    591.284    545.832    532.911    532.911
 52.370    609.000    601.646      7.354    532.937    590.039    544.545    532.937    532.937
 52.470    611.000    600.383     10.617    532.965    590.471    542.878    532.965    532.965
 52.570    556.958    600.751    -43.794    532.993    592.574    541.172    532.993    532.993
 52.670    628.000    603.372     24.628    533.023    596.705    539.691    533.023    533.023
 52.770    594.771    609.273    -14.502    533.053    603.759    538.568    533.053    533.053
 52.870    666.000    620.122     45.878    533.085    615.360    537.847    533.085    533.085
 52.970    626.552    638.437    -11.885    533.117    634.037    537.515    533.117    533.117
 53.070    652.938    667.595    -14.657    533.150    663.192    537.551    533.150    533.150
 53.170    673.984    711.417    -37.433    533.184    706.655    537.941    533.184    533.184
 53.270    742.309    773.164    -30.855    533.220    767.694    538.684    533.220    533.220
 53.370    895.000    853.993     41.007    533.256    847.482    539.761    533.256    533.256
 53.470    929.000    951.098    -22.098    533.293    943.273    541.112    533.293    533.293
 53.570   1041.336   1055.824    -14.488    533.331   1046.555    542.597    533.331    533.331
 53.670   1138.000   1152.253    -14.253    533.369   1141.653    543.973    533.369    533.369
 53.770   1272.314   1218.373     53.941    533.409   1206.885    544.910    533.409    533.409
 53.870   1164.509   1233.898    -69.388    533.449   1222.267    545.103    533.449    533.449
 53.970   1191.000   1193.265     -2.265    533.491   1182.317    544.468    533.491    533.491
 54.070   1160.674   1110.321     50.353    533.533   1100.676    543.209    533.533    533.533
 54.170    956.000   1007.970    -51.970    533.576    999.909    541.667    533.576    533.576
 54.270    875.000    905.990    -30.990    533.620    899.500    540.135    533.620    533.620
 54.370    813.000    816.733     -3.733    533.664    811.620    538.797    533.664    533.664
 54.470    745.000    745.787     -0.787    533.710    741.776    537.735    533.710    533.710
 54.570    668.000    693.775    -25.775    533.756    690.582    536.959    533.756    533.756
 54.670    613.000    658.253    -45.253    533.803    655.633    536.429    533.803    533.803
 54.770    655.687    635.450     20.237    533.850    633.213    536.092    533.850    533.850
 54.870    612.742    621.578     -8.836    533.899    619.595    535.885    533.899    533.899
 54.970    603.000    613.537    -10.537    533.948    611.753    535.735    533.948    533.948
 55.070    658.000    609.246     48.754    533.998    607.589    535.657    533.998    533.998
 55.170    638.000    607.382     30.618    534.049    605.803    535.629    534.049    534.049
 55.270    590.000    607.200    -17.200    534.100    605.675    535.627    534.100    534.100
 55.370    582.013    608.345    -26.332    534.152    606.857    535.640    534.152    534.152
 55.470    648.696    610.692     38.004    534.205    609.230    535.667    534.205    534.205
 55.570    582.225    614.267    -32.042    534.258    612.821    535.705    534.258    534.258
 55.670    605.000    619.230    -14.230    534.312    617.788    535.754    534.312    534.312
 55.770    658.979    625.927     33.052    534.367    624.479    535.815    534.367    534.367
 55.870    658.000    635.044     22.956    534.422    633.578    535.888    534.422    534.422
 55.970    654.000    647.902      6.098    534.478    646.402    535.976    534.478    534.478
 56.070    695.000    666.961     28.039    534.535    665.405    536.088    534.535    534.535
 56.170    698.000    696.518      1.482    534.592    694.870    536.234    534.592    534.592
 56.270    723.000    743.432    -20.432    534.650    741.637    536.433    534.650    534.650
 56.370    781.103    817.454    -36.352    534.708    815.431    536.714    534.708    534.708
 56.470    871.000    930.508    -59.508    534.767    928.138    537.108    534.767    534.767
 56.570   1054.000   1094.270    -40.270    534.826   1091.407    537.649    534.826    534.826
 56.670   1288.000   1315.904    -27.904    534.886   1312.381    538.358    534.886    534.886
 56.770   1520.194   1592.558    -72.364    534.947   1588.222    539.226    534.947    534.947
 56.870   1896.000   1905.757     -9.757    535.008   1900.508    540.204    535.008    535.008
 56.970   2205.000   2216.766    -11.766    535.070   2210.618    541.187    535.070    535.070
 57.070   2423.000   2466.005    -43.005    535.132   2459.140    542.010    535.132    535.132
 57.170   2660.000   2586.677     73.323    535.194   2579.458    542.490    535.194    535.194
 57.270   2462.000   2539.676    -77.676    535.257   2532.554    542.523    535.257    535.257
 57.370   2253.127   2342.075    -88.948    535.321   2335.427    542.159    535.321    535.321
 57.470   2149.714   2053.251     96.463    535.385   2047.273    541.567    535.385    535.385
 57.570   1663.000   1738.248    -75.248    535.449   1732.952    540.937    535.449    535.449
 57.670   1520.375   1445.324     75.052    535.514   1440.582    540.419    535.514    535.514
 57.770   1167.000   1201.687    -34.687    535.579   1197.273    540.120    535.579    535.579
 57.870    966.000   1016.842    -50.842    535.645   1012.449    540.129    535.645    535.645
 57.970    833.522    888.010    -54.488    535.711    883.225    540.557    535.711    535.711
 58.070    776.000    805.979    -29.979    535.777    800.220    541.574    535.777    535.777
 58.170    759.000    760.184     -1.184    535.844    752.593    543.454    535.844    535.844
 58.270    751.000    742.012      8.988    535.911    731.362    546.566    535.911    535.911
 58.370    764.000    746.067     17.933    535.979    730.718    551.321    535.979    535.979
 58.470    750.000    769.784    -19.784    536.047    747.785    558.027    536.047    536.047
 58.570    875.000    812.058     62.942    536.115    781.449    566.695    536.115    536.115
 58.670    830.000    871.534    -41.534    536.184    830.850    576.830    536.184    536.184
 58.770    924.000    944.947    -20.947    536.252    893.873    587.283    536.252    536.252
 58.870   1061.507   1025.918     35.589    536.321    965.949    596.247    536.321    536.321
 58.970   1131.000   1105.175     25.825    536.391   1039.928    601.601    536.391    536.391
 59.070   1216.000   1173.311     42.689    536.460   1107.932    601.816    536.460    536.460
 59.170   1274.000   1224.107     49.893    536.530   1163.710    596.920    536.530    536.530
 59.270   1301.000   1254.268     46.732    536.601   1202.423    588.455    536.601    536.601
 59.370   1253.200   1261.233     -8.033    536.671   1219.436    578.490    536.671    536.671
 59.470   1232.000   1244.926    -12.926    536.742   1212.924    568.774    536.742    536.742
 59.570   1313.000   1211.938    101.062    536.812   1188.353    560.423    536.812    536.812
 59.670   1207.373   1174.898     32.475    536.883   1157.854    553.937    536.883    536.883
 59.770   1121.500   1147.060    -25.560    536.955   1134.676    549.320    536.955    536.955
 59.870   1105.000   1138.233    -33.233    537.026   1128.931    546.271    537.026    537.026
 59.970   1159.879   1154.349      5.530    537.097   1146.966    544.380    537.097    537.097
 60.070   1180.000   1198.218    -18.218    537.169   1191.976    543.263    537.169    537.169
 60.170   1315.000   1268.664     46.336    537.241   1263.073    542.636    537.241    537.241
 60.270   1429.000   1357.986     71.014    537.313   1352.755    542.305    537.313    537.313
 60.370   1365.741   1449.894    -84.153    537.385   1444.863    542.146    537.385    537.385
 60.470   1591.000   1520.103     70.897    537.457   1515.212    542.070    537.457    537.457
 60.570   1655.000   1542.617    112.383    537.529   1537.874    542.014    537.529    537.529
 60.670   1414.950   1502.758    -87.808    537.602   1498.199    541.945    537.602    537.602
 60.770   1519.000   1406.761    112.239    537.674   1402.411    541.861    537.674    537.674
 60.870   1225.544   1276.541    -50.997    537.747   1272.385    541.788    537.747    537.747
 60.970   1174.000   1136.793     37.207    537.819   1132.779    541.759    537.819    537.819
 61.070   1031.000   1006.799     24.201    537.892   1002.839    541.805    537.892    537.892
 61.170    950.000    898.400     51.600    537.964    894.371    541.964    537.964    537.964
 61.270    821.080    816.847      4.233    538.037    812.579    542.283    538.037    538.037
 61.370    751.791    762.708    -10.918    538.109    757.961    542.836    538.109    538.109
 61.470    796.014    734.205     61.809    538.182    728.622    543.740    538.182    538.182
 61.570    742.000    729.357     12.643    538.255    722.411    545.166    538.255    538.255
 61.670    770.000    747.357     22.643    538.327    738.300    547.336    538.327    538.327
 61.770    853.000    788.828     64.172    538.400    776.661    550.500    538.400    538.400
 61.870    978.000    854.960    123.040    538.472    838.467    554.875    538.472    538.472
 61.970    985.000    945.818     39.182    538.544    923.690    560.556    538.544    538.544
 62.070   1076.000   1058.315     17.685    538.617   1029.370    567.417    538.617    538.617
 62.170   1191.000   1184.343      6.657    538.689   1147.843    575.019    538.689    538.689
 62.270   1270.000   1309.461    -39.461    538.761   1265.497    582.540    538.761    538.761
 62.370   1389.000   1413.004    -24.004    538.833   1362.860    588.791    538.833    538.833
 62.470   1492.000   1471.895     20.105    538.905   1418.191    592.440    538.905    538.905
 62.570   1404.000   1469.958    -65.958    538.976   1416.246    592.554    538.976    538.976
 62.670   1341.583   1407.396    -65.812    539.048   1357.202    589.146    539.048    539.048
 62.770   1245.000   1300.610    -55.610    539.119   1256.497    583.171    539.119    539.119
 62.870   1172.834   1172.590      0.244    539.191   1135.780    575.965    539.191    539.191
 62.970   1031.000   1043.706    -12.706    539.262   1014.237    568.713    539.262    539.262
 63.070    946.584    927.957     18.627    539.332    905.053    562.229    539.332    539.332
 63.170    795.000    832.811    -37.811    539.403    815.260    556.951    539.403    539.403
 63.270    699.000    760.342    -61.342    539.473    746.811    553.002    539.473    539.473
 63.370    736.000    708.864     27.136    539.544    698.115    550.289    539.544    539.544
 63.470    625.000    674.684    -49.684    539.613    665.687    548.604    539.613    539.613
 63.570    677.000    653.645     23.355    539.683    645.604    547.716    539.683    539.683
 63.670    589.000    642.189    -53.189    539.753    634.497    547.434    539.753    539.753
 63.770    679.532    637.899     41.633    539.822    630.062    547.646    539.822    539.822
 63.870    606.043    639.657    -33.614    539.891    631.186    548.344    539.891    539.891
 63.970    632.000    647.591    -15.591    539.959    637.892    549.636    539.959    539.959
 64.070    677.000    662.776     14.224    540.027    651.023    551.750    540.027    540.027
 64.170    741.292    686.963     54.329    540.095    671.973    555.045    540.095    540.095
 64.270    772.000    722.110     49.890    540.163    702.236    559.982    540.163    540.163
 64.370    806.000    769.762     36.238    540.230    742.851    567.070    540.230    540.230
 64.470    841.000    830.297     10.703    540.297    793.759    576.744    540.297    540.297
 64.570    923.000    902.111     20.889    540.364    853.156    589.208    540.364    540.364
 64.670    920.616    980.842    -60.226    540.430    916.903    604.241    540.430    540.430
 64.770   1136.000   1058.866     77.134    540.495    978.192    621.029    540.495    540.495
 64.870   1056.595   1125.674    -69.080    540.561   1028.049    638.043    540.561    540.561
 64.970   1255.000   1170.056     84.944    540.626   1057.517    653.030    540.626    540.626
 65.070   1208.000   1183.884     24.116    540.690   1061.189    663.268    540.690    540.690
 65.170   1213.423   1165.231     48.192    540.754   1039.541    666.351    540.754    540.754
 65.270   1153.276   1118.926     34.351    540.818    998.269    661.408    540.818    540.818
 65.370   1069.000   1054.621     14.379    540.881    945.758    649.702    540.881    540.881
 65.470    970.000    983.217    -13.217    540.944    890.271    633.870    540.944    540.944
 65.570    938.000    913.619     24.381    541.006    837.975    616.647    541.006    541.006
 65.670    850.000    851.353     -1.353    541.068    792.280    600.150    541.068    541.068
 65.770    854.816    798.781     56.035    541.129    754.206    585.721    541.129    541.129
 65.870    750.000    756.055     -6.055    541.190    723.265    574.000    541.190    541.190
 65.970    676.563    722.202    -45.639    541.250    698.404    565.069    541.250    541.250
 66.070    741.639    695.903     45.736    541.310    678.598    558.634    541.310    541.310
 66.170    664.085    675.839    -11.754    541.369    663.013    554.210    541.369    541.369
 66.270    642.030    660.821    -18.791    541.428    650.987    551.274    541.428    541.428
 66.370    619.608    649.874    -30.266    541.486    642.007    549.361    541.486    541.486
 66.470    644.000    642.270      1.730    541.544    635.704    548.114    541.544    541.544
 66.570    614.000    637.519    -23.519    541.601    631.838    547.285    541.601    541.601
 66.670    688.607    635.323     53.283    541.657    630.269    546.713    541.657    541.657
 66.770    691.713    635.555     56.157    541.713    630.965    546.304    541.713    541.713
 66.870    618.000    638.293    -20.293    541.768    634.055    546.007    541.768    541.768
 66.970    628.000    643.925    -15.925    541.822    639.955    545.793    541.822    541.822
 67.070    638.000    653.329    -15.329    541.876    649.551    545.655    541.876    541.876
 67.170    639.000    668.120    -29.120    541.929    664.457    545.593    541.929    541.929
 67.270    659.840    690.939    -31.100    541.982    687.298    545.622    541.982    541.982
 67.370    675.337    725.693    -50.356    542.034    721.956    545.769    542.034    542.034
 67.470    799.000    777.625     21.375    542.085    773.637    546.068    542.085    542.085
 67.570    882.265    853.030     29.234    542.135    848.590    546.568    542.135    542.135
 67.670    904.000    958.443    -54.443    542.185    953.302    547.316    542.185    542.185
 67.770   1106.000   1099.223      6.777    542.234   1093.095    548.351    542.234    542.234
 67.870   1227.000   1277.654    -50.654    542.283   1270.239    549.689    542.283    542.283
 67.970   1511.235   1490.854     20.382    542.330   1481.877    551.307    542.330    542.330
 68.070   1751.052   1728.844     22.208    542.377   1718.112    553.127    542.377    542.377
 68.170   1931.398   1973.067    -41.668    542.424   1960.534    555.001    542.424    542.424
 68.270   2172.936   2195.806    -22.870    542.469   2181.645    556.715    542.469    542.469
 68.370   2406.000   2362.359     43.641    542.514   2347.011    557.998    542.514    542.514
 68.470   2442.000   2439.352      2.648    542.558   2423.513    558.589    542.558    542.558
 68.570   2469.592   2408.929     60.663    542.601   2393.423    558.349    542.601    542.601
 68.670   2312.000   2278.606     33.394    542.643   2264.187    557.336    542.643    542.643
 68.770   2169.000   2076.712     92.288    542.684   2063.909    555.770    542.684    542.684
 68.870   1895.832   1838.577     57.255    542.725   1827.645    553.924    542.725    542.725
 68.970   1560.111   1595.401    -35.290    542.765   1586.362    552.042    542.765    542.765
 69.070   1291.412   1369.798    -78.386    542.804   1362.504    550.299    542.804    542.804
 69.170   1192.919   1175.415     17.504    542.842   1169.619    548.800    542.842    542.842
 69.270    963.000   1018.077    -55.077    542.879   1013.489    547.591    542.879    542.879
 69.370    860.986    897.543    -36.557    542.916    893.880    546.670    542.916    542.916
 69.470    845.000    809.570     35.430    542.951    806.584    546.004    542.951    542.951
 69.570    767.252    747.940     19.312    542.986    745.428    545.544    542.986    542.986
 69.670    724.000    706.103     17.897    543.020    703.916    545.239    543.020    543.020
 69.770    734.738    678.252     56.486    543.053    676.283    545.044    543.053    543.053
 69.870    621.133    659.813    -38.681    543.085    657.990    544.923    543.085    543.085
 69.970    620.000    647.506    -27.506    543.116    645.784    544.848    543.116    543.116
 70.070    603.000    639.159    -36.159    543.146    637.505    544.808    543.146    543.146
 70.170    613.000    633.421    -20.421    543.175    631.811    544.789    543.175    543.175
 70.270    645.300    629.499     15.801    543.203    627.919    544.786    543.203    543.203
 70.370    623.000    626.957     -3.957    543.230    625.393    544.796    543.230    543.230
 70.470    573.487    625.582    -52.095    543.257    624.023    544.815    543.257    543.257
 70.570    610.000    625.310    -15.310    543.282    623.745    544.845    543.282    543.282
 70.670    630.000    626.212      3.788    543.306    624.628    544.887    543.306    543.306
 70.770    609.000    628.508    -19.508    543.330    626.889    544.944    543.330    543.330
 70.870    654.000    632.637     21.363    543.352    630.963    545.019    543.352    543.352
 70.970    603.000    639.356    -36.356    543.373    637.596    545.123    543.373    543.373
 71.070    614.000    649.871    -35.871    543.394    647.982    545.268    543.394    543.394
 71.170    672.762    665.983      6.779    543.413    663.900    545.475    543.413    543.413
 71.270    719.000    690.197     28.803    543.431    687.826    545.771    543.431    543.431
 71.370    690.641    725.722    -35.080    543.448    722.934    546.192    543.448    543.448
 71.470    731.465    776.292    -44.827    543.464    772.916    546.781    543.464    543.464
 71.570    842.000    845.723     -3.723    543.479    841.542    547.579    543.479    543.479
 71.670    947.000    937.180      9.820    543.493    931.945    548.622    543.493    543.493
 71.770   1061.000   1052.216      8.784    543.506   1045.661    549.928    543.506    543.506
 71.870   1193.000   1189.713      3.287    543.518   1181.583    551.484    543.518    543.518
 71.970   1399.000   1344.884     54.116    543.529   1334.981    553.240    543.529    543.529
 72.070   1583.000   1508.482     74.518    543.538   1496.714    555.092    543.538    543.538
 72.170   1634.000   1666.339    -32.339    543.547   1652.773    556.885    543.547    543.547
 72.270   1748.000   1799.726    -51.726    543.554   1784.640    558.413    543.554    543.554
 72.370   1859.955   1887.844    -27.888    543.560   1871.747    559.446    543.560    543.560
 72.470   1899.000   1913.734    -14.734    543.566   1897.322    559.796    543.566    543.566
 72.570   1887.000   1871.740     15.260    543.569   1855.762    559.401    543.569    543.569
 72.670   1803.000   1770.566     32.434    543.572   1755.670    558.357    543.572    543.572
 72.770   1678.644   1628.791     49.853    543.574   1615.416    556.869    543.574    543.574
 72.870   1448.000   1467.222    -19.222    543.574   1455.577    555.165    543.574    543.574
 72.970   1284.000   1303.671    -19.671    543.574   1293.771    553.439    543.574    543.574
 73.070   1111.000   1151.122    -40.122    543.572   1142.843    551.829    543.572    543.572
 73.170   1089.572   1017.684     71.888    543.569   1010.821    550.420    543.569    543.569
 73.270    913.000    907.175      5.825    543.564    901.482    549.249    543.564    543.564
 73.370    812.000    819.976     -7.976    543.559    815.208    548.321    543.559    543.559
 73.470    735.000    754.064    -19.064    543.552    749.994    547.617    543.552    543.552
 73.570    725.128    706.063     19.064    543.544    702.493    547.111    543.544    543.544
 73.670    700.000    672.157     27.843    543.535    668.918    546.771    543.535    543.535
 73.770    662.456    648.752     13.705    543.525    645.701    546.573    543.525    543.525
 73.870    589.046    632.848    -43.802    543.513    629.861    546.498    543.513    543.513
 73.970    673.000    622.174     50.826    543.500    619.134    546.540    543.500    543.500
 74.070    673.437    615.138     58.299    543.486    611.931    546.695    543.486    543.486
 74.170    562.880    610.696    -47.816    543.470    607.203    546.968    543.470    543.470
 74.270    552.768    608.190    -55.422    543.454    604.290    547.362    543.454    543.454
 74.370    578.000    607.200    -29.200    543.436    602.772    547.876    543.436    543.436
 74.470    603.180    607.419     -4.239    543.416    602.351    548.501    543.416    543.416
 74.570    561.728    608.571    -46.843    543.396    602.773    549.215    543.396    543.396
 74.670    634.000    610.347     23.653    543.374    603.768    549.981    543.374    543.374
 74.770    647.000    612.378     34.622    543.351    605.018    550.744    543.351    543.351
 74.870    573.769    614.219    -40.449    543.326    606.150    551.432    543.326    543.326
 74.970    672.000    615.389     56.611    543.300    606.763    551.968    543.300    543.300
 75.070    655.107    615.478     39.629    543.273    606.511    552.283    543.273    543.273
 75.170    721.000    614.297    106.703    543.245    605.235    552.351    543.245    543.245
 75.270    677.000    611.982     65.018    543.215    603.036    552.201    543.215    543.215
 75.370    652.943    608.953     43.990    543.184    600.253    551.920    543.184    543.184
 75.470    628.297    605.792     22.506    543.151    597.352    551.623    543.151    543.151
 75.570    595.894    603.129     -7.235    543.118    594.835    551.437    543.118    543.118
 75.670    642.000    601.597     40.403    543.082    593.200    551.497    543.082    543.082
 75.770    646.524    601.818     44.705    543.046    592.936    551.939    543.046    543.046
 75.870    671.000    604.411     66.589    543.008    594.518    552.904    543.008    543.008
 75.970    577.000    609.967    -32.967    542.968    598.400    554.532    542.968    542.968
 76.070    610.000    619.016     -9.016    542.928    604.981    556.951    542.928    542.928
 76.170    647.000    631.948     15.052    542.886    614.555    560.259    542.886    542.886
 76.270    651.000    648.922      2.078    542.842    627.235    564.499    542.842    542.842
 76.370    724.000    669.752     54.248    542.797    642.877    569.633    542.797    542.797
 76.470    731.000    693.803     37.197    542.751    660.992    575.515    542.751    542.751
 76.570    682.000    719.898    -37.898    542.703    680.677    581.867    542.703    542.703
 76.670    720.226    746.248    -26.023    542.654    700.572    588.267    542.654    542.654
 76.770    769.483    770.458     -0.975    542.603    718.849    594.142    542.603    542.603
 76.870    817.000    789.671     27.329    542.551    733.337    598.813    542.551    542.551
 76.970    807.850    801.047      6.803    542.498    741.873    601.601    542.498    542.498
 77.070    777.326    802.583    -25.257    542.443    742.932    602.028    542.443    542.443
 77.170    806.000    793.914     12.086    542.387    736.234    600.007    542.387    542.387
 77.270    764.000    776.485    -12.485    542.329    722.879    595.884    542.329    542.329
 77.370    736.000    752.914    -16.914    542.270    704.855    590.286    542.270    542.270
 77.470    753.000    726.113     26.887    542.209    684.376    583.911    542.209    542.209
 77.570    639.682    698.645    -58.963    542.147    663.391    577.373    542.147    542.147
 77.670    668.000    672.476     -4.476    542.084    643.395    571.144    542.084    542.084
 77.770    603.000    648.936    -45.936    542.019    625.398    565.541    542.019    542.019
 77.870    680.891    628.772     52.119    541.952    609.968    560.745    541.952    541.952
 77.970    653.210    612.234     40.977    541.884    597.294    556.815    541.884    541.884
 78.070    573.622    599.192    -25.570    541.815    587.279    553.721    541.815    541.815
 78.170    621.233    589.265     31.968    541.744    579.631    551.373    541.744    541.744
 78.270    611.000    581.937     29.063    541.671    573.957    549.647    541.671    541.671
 78.370    570.000    576.663     -6.663    541.597    569.844    548.413    541.597    541.597
 78.470    523.027    572.941    -49.915    541.522    566.907    547.553    541.522    541.522
 78.570    571.000    570.348      0.652    541.445    564.826    546.965    541.445    541.445
 78.670    545.750    568.557    -22.807    541.366    563.349    546.572    541.366    541.366
 78.770    562.000    567.331     -5.331    541.286    562.297    546.317    541.286    541.286
 78.870    583.000    566.509     16.491    541.205    561.548    546.165    541.205    541.205
 78.970    613.577    565.993     47.585    541.122    561.022    546.091    541.122    541.122
 79.070    540.000    565.724    -25.724    541.037    560.677    546.083    541.037    541.037
 79.170    530.456    565.680    -35.224    540.951    560.493    546.137    540.951    540.951
 79.270    572.000    565.859      6.141    540.864    560.464    546.257    540.864    540.864
 79.370    515.000    566.278    -51.278    540.775    560.600    546.451    540.775    540.775
 79.470    573.000    566.972      6.028    540.684    560.917    546.737    540.684    540.684
 79.570    615.679    567.996     47.683    540.592    561.441    547.144    540.592    540.592
 79.670    549.401    569.427    -20.026    540.499    562.205    547.717    540.499    540.499
 79.770    576.394    571.379      5.014    540.403    563.255    548.524    540.403    540.403
 79.870    584.000    574.015      9.985    540.307    564.648    549.669    540.307    540.307
 79.970    523.509    577.561    -54.052    540.208    566.464    551.300    540.208    540.208
 80.070    556.000    582.327    -26.327    540.109    568.810    553.619    540.109    540.109
 80.170    556.000    588.718    -32.718    540.007    571.826    556.891    540.007    540.007
 80.270    600.000    597.233      2.767    539.904    575.689    561.438    539.904    539.904
 80.370    616.000    608.450      7.550    539.800    580.614    567.625    539.800    539.800
 80.470    609.000    622.986    -13.986    539.694    586.847    575.820    539.694    539.694
 80.570    636.138    641.433     -5.296    539.586    594.656    586.350    539.586    539.586
 80.670    691.000    664.274     26.726    539.477    604.313    599.423    539.477    539.477
 80.770    679.550    691.766    -12.216    539.366    616.059    615.059    539.366    539.366
 80.870    734.033    723.803     10.230    539.254    630.041    633.004    539.254    539.254
 80.970    815.016    759.774     55.242    539.140    646.241    652.663    539.140    539.140
 81.070    810.000    798.439     11.561    539.025    664.398    673.059    539.025    539.025
 81.170    867.000    837.888     29.112    538.908    683.963    692.833    538.908    538.908
 81.270    828.000    875.625    -47.625    538.790    704.089    710.333    538.790    538.790
 81.370    865.208    908.869    -43.661    538.670    723.716    723.839    538.670    538.670
 81.470    978.000    935.047     42.953    538.548    741.714    731.908    538.548    538.548
 81.570    937.984    952.290    -14.306    538.425    757.044    733.709    538.425    538.425
 81.670    900.020    959.682    -59.662    538.300    768.873    729.157    538.300    538.300
 81.770    924.714    957.243    -32.529    538.174    776.636    718.838    538.174    538.174
 81.870    946.000    945.845      0.155    538.046    780.090    703.867    538.046    538.046
 81.970    891.597    927.033    -35.435    537.916    779.310    685.712    537.916    537.916
 82.070    900.000    902.692     -2.692    537.785    774.576    665.978    537.785    537.785
 82.170    843.000    874.684    -31.684    537.653    766.263    646.153    537.653    537.653
 82.270    830.632    844.663    -14.032    537.519    754.841    627.421    537.519    537.519
 82.370    835.000    814.077     20.923    537.383    740.947    610.590    537.383    537.383
 82.470    809.000    784.151     24.849    537.246    725.375    596.097    537.246    537.246
 82.570    723.000    755.807    -32.807    537.107    708.925    584.061    537.107    537.107
 82.670    729.000    729.578     -0.578    536.966    692.248    574.362    536.966    536.966
 82.770    652.000    705.649    -53.649    536.824    675.805    566.729    536.824    536.824
 82.870    639.000    684.017    -45.017    536.681    659.936    560.816    536.681    536.681
 82.970    647.310    664.658    -17.349    536.536    644.962    556.280    536.536    536.536
 83.070    568.000    647.613    -79.613    536.389    631.230    552.813    536.389    536.389
 83.170    601.000    632.969    -31.969    536.241    619.076    550.166    536.241    536.241
 83.270    619.000    620.814     -1.814    536.091    608.779    548.151    536.091    536.091
 83.370    538.000    611.193    -73.193    535.939    600.521    546.628    535.939    535.939
 83.470    595.000    604.058     -9.058    535.786    594.359    545.495    535.786    535.786
 83.570    635.838    599.451     36.387    535.632    590.384    544.701    535.632    535.632
 83.670    603.000    597.176      5.824    535.476    588.457    544.189    535.476    535.476
 83.770    575.000    597.000    -22.000    535.318    588.387    543.918    535.318    535.318
 83.870    584.000    598.602    -14.602    535.159    589.894    543.846    535.159    535.159
 83.970    575.000    601.567    -26.567    534.998    592.611    543.926    534.998    534.998
 84.070    611.000    605.387      5.613    534.836    596.085    544.103    534.836    534.836
 84.170    554.000    609.471    -55.471    534.672    599.789    544.314    534.672    534.672
 84.270    597.717    613.169    -15.451    534.507    603.144    544.487    534.507    534.507
 84.370    591.000    615.826    -24.826    534.340    605.569    544.550    534.340    534.340
 84.470    560.000    616.882    -56.882    534.171    606.563    544.442    534.171    534.171
 84.570    575.000    615.996    -40.996    534.001    605.824    544.127    534.001    534.001
 84.670    593.000    613.138    -20.138    533.830    603.323    543.601    533.830    533.830
 84.770    590.000    608.578    -18.578    533.656    599.298    542.897    533.656    533.656
 84.870    567.000    602.784    -35.784    533.482    594.159    542.072    533.482    533.482
 84.970    579.000    596.289    -17.289    533.306    588.376    541.189    533.306    533.306
 85.070    610.124    589.597     20.527    533.128    582.387    540.313    533.128    533.128
 85.170    607.000    583.129     23.871    532.949    576.556    539.501    532.949    532.949
 85.270    606.000    577.213     28.787    532.768    571.158    538.805    532.768    532.768
 85.370    548.000    572.073    -24.073    532.586    566.375    538.269    532.586    532.586
 85.470    613.627    567.854     45.772    532.402    562.311    537.933    532.402    532.402
 85.570    615.845    564.617     51.228    532.217    558.992    537.830    532.217    532.217
 85.670    572.000    562.366      9.634    532.030    556.394    537.991    532.030    532.030
 85.770    578.000    561.064     16.936    531.841    554.458    538.439    531.841    531.841
 85.870    591.000    560.655     30.345    531.652    553.108    539.189    531.652    531.652
 85.970    605.000    561.071     43.929    531.460    552.272    540.248    531.460    531.460
 86.070    545.000    562.241    -17.241    531.267    551.893    541.604    531.267    531.267
 86.170    547.000    564.102    -17.102    531.073    551.937    543.224    531.073    531.073
 86.270    547.187    566.591    -19.404    530.877    552.401    545.052    530.877    530.877
 86.370    574.142    569.651      4.491    530.680    553.312    547.002    530.680    530.680
 86.470    539.860    573.226    -33.367    530.481    554.730    548.957    530.481    530.481
 86.570    620.000    577.259     42.741    530.281    556.743    550.772    530.281    530.281
 86.670    604.000    581.691     22.309    530.079    559.459    552.282    530.079    530.079
 86.770    580.812    586.473     -5.661    529.876    563.000    553.315    529.876    529.876
 86.870    615.000    591.581     23.419    529.672    567.484    553.730    529.672    529.672
 86.970    607.000    597.039      9.961    529.466    573.012    553.448    529.466    529.466
 87.070    631.000    602.922     28.078    529.258    579.645    552.482    529.258    529.258
 87.170    628.000    609.326     18.674    529.049    587.385    550.928    529.049    529.049
 87.270    597.000    616.315    -19.315    528.839    596.149    548.933    528.839    528.839
 87.370    629.000    623.865      5.135    528.627    605.748    546.662    528.627    528.627
 87.470    662.000    631.821     30.179    528.414    615.876    544.267    528.414    528.414
 87.570    631.771    639.875     -8.104    528.199    626.096    541.876    528.199    528.199
 87.670    700.000    647.566     52.434    527.983    635.846    539.592    527.983    527.983
 87.770    677.000    654.296     22.704    527.766    644.458    537.486    527.766    527.766
 87.870    672.000    659.405     12.595    527.547    651.226    535.603    527.547    527.547
 87.970    671.000    662.283      8.717    527.327    655.522    533.964    527.327    527.327
 88.070    716.745    662.534     54.211    527.105    656.951    532.568    527.105    527.105
 88.170    690.000    660.098     29.902    526.882    655.468    531.399    526.882    526.882
 88.270    699.000    655.273     43.727    526.657    651.395    530.432    526.657    526.657
 88.370    604.402    648.630    -44.228    526.432    645.330    529.640    526.432    526.432
 88.470    627.523    640.878    -13.355    526.205    638.010    528.994    526.205    526.205
 88.570    608.000    632.747    -24.747    525.976    630.192    528.468    525.976    525.976
 88.670    679.018    624.923     54.095    525.746    622.579    528.039    525.746    525.746
 88.770    623.000    617.997      5.003    525.515    615.783    527.691    525.515    525.515
 88.870    598.000    612.441    -14.441    525.283    610.289    527.409    525.283    525.283
 88.970    602.000    608.584     -6.584    525.049    606.435    527.183    525.049    525.049
 89.070    557.042    606.596    -49.554    524.814    604.401    527.005    524.814    524.814
 89.170    597.000    606.487     -9.487    524.578    604.205    526.865    524.578    524.578
 89.270    627.040    608.105     18.935    524.340    605.705    526.756    524.340    524.340
 89.370    647.623    611.152     36.471    524.101    608.610    526.667    524.101    524.101
 89.470    614.000    615.196     -1.196    523.861    612.502    526.589    523.861    523.861
 89.570    651.000    619.693     31.307    523.619    616.848    526.506    523.619    523.619
 89.670    625.000    624.014      0.986    523.376    621.034    526.405    523.376    523.376
 89.770    572.175    627.491    -55.316    523.132    624.408    526.271    523.132    523.132
 89.870    629.000    629.500     -0.500    522.887    626.360    526.087    522.887    522.887
 89.970    626.266    629.572     -3.306    522.641    626.431    525.845    522.641    522.641
 90.070    567.000    627.503    -60.503    522.393    624.422    525.539    522.393    522.393
 90.170    596.000    623.390    -27.390    522.144    620.423    525.174    522.144    522.144
 90.270    602.000    617.580    -15.580    521.894    614.774    524.760    521.894    521.894
 90.370    623.273    610.564     12.709    521.642    607.950    524.311    521.642    521.642
 90.470    580.462    602.860    -22.398    521.390    600.458    523.842    521.390    521.390
 90.570    565.000    594.948    -29.948    521.136    592.761    523.366    521.136    521.136
 90.670    538.366    587.228    -48.861    520.881    585.252    522.894    520.881    520.881
 90.770    589.000    580.011      8.989    520.625    578.233    522.434    520.625    520.625
 90.870    556.000    573.519    -17.519    520.368    571.918    521.994    520.368    520.368
 90.970    584.022    567.885     16.137    520.110    566.439    521.575    520.110    520.110
 91.070    594.000    563.168     30.832    519.850    561.852    521.181    519.850    519.850
 91.170    611.024    559.364     51.660    519.590    558.154    520.810    519.590    519.590
 91.270    543.000    556.428    -13.428    519.328    555.301    520.463    519.328    519.328
 91.370    547.384    554.286     -6.903    519.065    553.221    520.135    519.065    519.065
 91.470    516.000    552.859    -36.859    518.802    551.837    519.827    518.802    518.802
 91.570    577.716    552.073     25.643    518.537    551.077    519.534    518.537    518.537
 91.670    530.000    551.875    -21.875    518.271    550.888    519.257    518.271    518.271
 91.770    526.000    552.239    -26.239    518.004    551.247    518.993    518.004    518.004
 91.870    604.000    553.174     50.826    517.736    552.162    518.744    517.736    517.736
 91.970    514.000    554.725    -40.725    517.467    553.677    518.509    517.467    517.467
 92.070    583.000    556.975     26.025    517.197    555.872    518.292    517.197    517.197
 92.170    528.952    560.041    -31.089    516.926    558.862    518.094    516.926    516.926
 92.270    568.000    564.066      3.934    516.654    562.788    517.919    516.654    516.654
 92.370    562.000    569.215     -7.215    516.381    567.810    517.770    516.381    516.381
 92.470    569.000    575.659     -6.659    516.107    574.095    517.651    516.107    516.107
 92.570    626.000    583.562     42.438    515.832    581.805    517.564    515.832    515.832
 92.670    646.532    593.060     53.472    515.556    591.076    517.511    515.556    515.556
 92.770    596.000    604.250     -8.250    515.279    602.003    517.492    515.279    515.279
 92.870    599.000    617.165    -18.165    515.001    614.620    517.505    515.001    515.001
 92.970    604.229    631.759    -27.530    514.723    628.887    517.546    514.723    514.723
 93.070    662.000    647.896     14.104    514.443    644.674    517.610    514.443    514.443
 93.170    707.417    665.335     42.082    514.163    661.748    517.687    514.163    514.163
 93.270    611.000    683.724    -72.724    513.882    679.767    517.768    513.882    513.882
 93.370    741.000    702.607     38.393    513.600    698.288    517.843    513.600    513.600
 93.470    691.872    721.450    -29.578    513.317    716.786    517.900    513.317    513.317
 93.570    712.000    739.705    -27.705    513.034    734.720    517.932    513.034    513.034
 93.670    795.000    756.913     38.087    512.749    751.635    517.939    512.749    512.749
 93.770    758.000    772.816    -14.816    512.464    767.261    517.929    512.464    512.464
 93.870    749.342    787.421    -38.079    512.178    781.586    517.922    512.178    512.178
 93.970    798.000    800.978     -2.978    511.891    794.829    517.950    511.891    511.891
 94.070    811.769    813.871     -2.102    511.604    807.334    518.051    511.604    511.604
 94.170    848.000    826.483     21.517    511.316    819.444    518.266    511.316    511.316
 94.270    808.000    839.092    -31.092    511.027    831.401    518.630    511.027    511.027
 94.370    910.548    851.842     58.706    510.737    843.320    519.173    510.737    510.737
 94.470    896.000    864.765     31.235    510.447    855.217    519.911    510.447    510.447
 94.570    884.000    877.849      6.151    510.156    867.080    520.844    510.156    510.156
 94.670    850.582    891.091    -40.509    509.865    878.921    521.956    509.865    509.865
 94.770    912.000    904.374      7.626    509.573    890.664    523.208    509.573    509.573
 94.870    976.748    917.436     59.312    509.280    902.100    524.545    509.280    509.280
 94.970    906.000    929.757    -23.757    508.987    912.788    525.890    508.987    508.987
 95.070    920.000    940.513    -20.513    508.693    921.996    527.149    508.693    508.693
 95.170   1042.000    948.603     93.397    508.398    928.730    528.219    508.398    508.398
 95.270    993.000    952.776     40.224    508.103    931.844    528.991    508.103    508.103
 95.370    968.000    951.854     16.146    507.808    930.256    529.369    507.808    507.808
 95.470    926.266    945.022    -18.756    507.512    923.221    529.287    507.512    507.512
 95.570    867.662    932.097    -64.435    507.215    910.574    528.721    507.215    507.215
 95.670    929.000    913.629     15.371    506.918    892.839    527.699    506.918    506.918
 95.770    863.510    890.814    -27.305    506.621    871.139    526.292    506.621    506.621
 95.870    852.000    865.260    -13.260    506.323    846.986    524.597    506.323    506.323
 95.970    781.717    838.745    -57.028    506.025    822.050    522.721    506.025    506.025
 96.070    837.000    813.042     23.958    505.726    798.002    520.768    505.726    505.726
 96.170    767.000    789.823    -22.823    505.427    776.421    518.830    505.427    505.427
 96.270    739.999    770.607    -30.608    505.128    758.748    516.984    505.128    505.128
 96.370    695.920    756.747    -60.827    504.828    746.276    515.291    504.828    504.828
 96.470    750.000    749.415      0.585    504.528    740.135    513.795    504.528    504.528
 96.570    783.000    749.601     33.399    504.227    741.285    512.522    504.227    504.227
 96.670    739.000    758.100    -19.100    503.927    750.511    511.487    503.927    503.927
 96.770    810.000    775.505     34.495    503.626    768.404    510.689    503.626    503.626
 96.870    790.000    802.185    -12.185    503.325    795.342    510.120    503.325    503.325
 96.970    860.080    838.255     21.825    503.023    831.454    509.766    503.023    503.023
 97.070    917.000    883.529     33.471    502.722    876.575    509.606    502.722    502.722
 97.170    941.000    937.480      3.520    502.420    930.199    509.619    502.420    502.420
 97.270   1060.000    999.175     60.825    502.118    991.422    509.781    502.118    502.118
 97.370   1056.671   1067.215    -10.544    501.816   1058.872    510.060    501.816    501.816
 97.470   1168.732   1139.658     29.074    501.514   1130.644    510.422    501.514    501.514
 97.570   1248.000   1214.168     33.832    501.212   1204.439    510.830    501.212    501.212
 97.670   1227.229   1287.773    -60.545    500.909   1277.331    511.240    500.909    500.909
 97.770   1370.078   1357.015     13.063    500.607   1345.907    511.606    500.607    500.607
 97.870   1385.000   1418.101    -33.101    500.305   1406.428    511.877    500.305    500.305
 97.970   1454.000   1467.183    -13.183    500.002   1455.094    512.003    500.002    500.002
 98.070   1573.157   1500.825     72.332    499.700   1488.511    511.940    499.700    499.700
 98.170   1521.066   1516.580      4.486    499.397   1504.264    511.659    499.397    499.397
 98.270   1478.000   1513.496    -35.496    499.095   1501.408    511.149    499.095    499.095
 98.370   1481.599   1492.305    -10.706    498.793   1480.661    510.421    498.793    498.793
 98.470   1451.233   1455.225     -3.992    498.491   1444.211    509.505    498.491    498.491
 98.570   1472.000   1405.489     66.511    498.189   1395.249    508.444    498.189    498.189
 98.670   1329.183   1346.822    -17.639    497.887   1337.453    507.282    497.887    497.887
 98.770   1285.000   1283.019      1.981    497.585   1274.572    506.065    497.585    497.585
 98.870   1250.000   1217.697     32.303    497.283   1210.183    504.834    497.283    497.283
 98.970   1109.000   1154.122    -45.122    496.982   1147.518    503.623    496.982    496.982
 99.070   1097.000   1095.132      1.868    496.681   1089.387    502.460    496.681    496.681
 99.170   1002.000   1043.127    -41.127    496.380   1038.171    501.365    496.380    496.380
 99.270   1054.890   1000.075     54.815    496.080    995.826    500.353    496.080    496.080
 99.370    947.000    967.540    -20.540    495.779    963.905    499.431    495.779    495.779
 99.470    910.000    946.711    -36.711    495.479    943.597    498.602    495.479    495.479
 99.570    927.641    938.431    -10.790    495.180    935.747    497.865    495.180    495.180
 99.670    981.899    943.221     38.679    494.881    940.880    497.215    494.881    494.881
 99.770    963.000    961.296      1.704    494.582    959.222    496.643    494.582    494.582
 99.870    985.000    992.576     -7.576    494.284    990.700    496.141    494.284    494.284
 99.970   1083.385   1036.677     46.708    493.986   1034.942    495.699    493.986    493.986
100.070   1133.000   1092.904     40.096    493.689   1091.261    495.308    493.689    493.689
100.170   1144.703   1160.220    -15.516    493.392   1158.630    494.958    493.392    493.392
100.270   1300.155   1237.215     62.940    493.095   1235.649    494.641    493.095    493.095
100.370   1313.004   1322.071     -9.068    492.800   1320.508    494.349    492.800    492.800
100.470   1456.000   1412.533     43.467    492.504   1410.958    494.074    492.504    492.504
100.570   1572.000   1505.901     66.099    492.210   1504.308    493.812    492.210    492.210
100.670   1588.074   1599.092    -11.018    491.916   1597.478    493.555    491.916    491.916
100.770   1713.000   1688.787     24.213    491.623   1687.154    493.300    491.623    491.623
100.870   1757.667   1771.695    -14.028    491.330   1770.048    493.043    491.330    491.330
100.970   1921.000   1844.881     76.119    491.038   1843.225    492.782    491.038    491.038
101.070   1926.000   1906.055     19.945    490.747   1904.395    492.517    490.747    490.747
101.170   1929.000   1953.683    -24.683    490.457   1952.022    492.248    490.457    490.457
101.270   2022.000   1986.883     35.117    490.167   1985.220    491.978    490.167    490.167
101.370   1939.000   2005.193    -66.193    489.879   2003.525    491.711    489.879    489.879
101.470   2079.280   2008.384     70.896    489.591   2006.704    491.449    489.591    489.591
101.570   1959.000   1996.433    -37.433    489.304   1994.728    491.197    489.304    489.304
101.670   1910.289   1969.771    -59.482    489.018   1968.028    490.956    489.018    489.018
101.770   1908.000   1929.442    -21.442    488.733   1927.646    490.728    488.733    488.733
101.870   1946.000   1877.332     68.668    488.449   1875.466    490.513    488.449    488.449
101.970   1725.000   1816.122    -91.122    488.166   1814.171    490.312    488.166    488.166
102.070   1741.000   1749.024     -8.024    487.884   1746.975    490.121    487.884    487.884
102.170   1681.000   1679.382      1.618    487.603   1677.225    489.940    487.603    487.603
102.270   1566.527   1610.292    -43.765    487.323   1608.023    489.762    487.323    487.323
102.370   1555.000   1544.333     10.667    487.044   1541.952    489.583    487.044    487.044
102.470   1441.000   1483.413    -42.413    486.767   1480.927    489.399    486.767    486.767
102.570   1382.000   1428.727    -46.727    486.490   1426.148    489.204    486.490    486.490
102.670   1373.849   1380.772     -6.922    486.215   1378.117    488.994    486.215    486.215
102.770   1330.000   1339.392     -9.392    485.941   1336.682    488.767    485.941    485.941
102.870   1373.324   1303.847     69.477    485.668   1301.105    488.520    485.668    485.668
102.970   1151.000   1272.905   -121.905    485.397   1270.154    488.251    485.397    485.397
103.070   1221.000   1244.966    -23.966    485.127   1242.233    487.960    485.127    485.127
103.170   1216.000   1218.245     -2.245    484.858   1215.555    487.645    484.858    484.858
103.270   1143.788   1191.004    -47.216    484.591   1188.385    487.306    484.591    484.591
103.370   1120.000   1161.805    -41.805    484.325   1159.282    486.944    484.325    484.325
103.470   1085.000   1129.714    -44.714    484.061   1127.309    486.560    484.061    484.061
103.570   1136.702   1094.396     42.305    483.798   1092.129    486.158    483.798    483.798
103.670   1038.000   1056.074    -18.074    483.537   1053.958    485.743    483.537    483.537
103.770    966.000   1015.382    -49.382    483.277   1013.427    485.318    483.277    483.277
103.870    993.000    973.189     19.811    483.019    971.400    484.891    483.019    483.019
103.970    938.434    930.447      7.987    482.762    928.822    484.465    482.762    482.762
104.070    960.000    888.077     71.923    482.507    886.611    484.045    482.507    482.507
104.170    903.000    846.917     56.083    482.254    845.603    483.633    482.254    482.254
104.270    813.917    807.684      6.234    482.002    806.511    483.234    482.002    482.002
104.370    732.000    770.957    -38.957    481.753    769.914    482.849    481.753    481.753
104.470    722.000    737.172    -15.172    481.505    736.245    482.479    481.505    481.505
104.570    733.842    706.617     27.226    481.259    705.792    482.124    481.259    481.259
104.670    708.848    679.437     29.411    481.014    678.702    481.785    481.014    481.014
104.770    645.598    655.650    -10.053    480.772    654.990    481.461    480.772    480.772
104.870    666.000    635.165     30.835    480.532    634.569    481.151    480.532    480.532
104.970    628.329    617.809     10.520    480.293    617.265    480.856    480.293    480.293
105.070    596.418    603.337     -6.920    480.057    602.836    480.573    480.057    480.057
105.170    667.000    591.474     75.526    479.822    591.007    480.302    479.822    479.822
105.270    639.000    581.930     57.070    479.590    581.487    480.042    479.590    479.590
105.370    564.168    574.420    -10.251    479.360    573.994    479.791    479.360    479.360
105.470    571.660    568.668      2.992    479.132    568.255    479.549    479.132    479.132
105.570    513.047    564.463    -51.416    478.906    564.055    479.316    478.906    478.906
105.670    549.000    561.629    -12.629    478.682    561.219    479.091    478.682    478.682
105.770    556.000    560.006     -4.006    478.461    559.590    478.875    478.461    478.461
105.870    541.000    559.490    -18.490    478.242    559.060    478.667    478.242    478.242
105.970    542.077    560.014    -17.937    478.025    559.564    478.468    478.025    478.025
106.070    541.000    561.547    -20.547    477.811    561.071    478.278    477.811    477.811
106.170    541.700    564.085    -22.386    477.599    563.575    478.098    477.599    477.599
106.270    552.000    567.646    -15.646    477.389    567.094    477.928    477.389    477.389
106.370    585.000    572.258     12.742    477.182    571.656    477.768    477.182    477.182
106.470    594.835    577.954     16.881    476.978    577.292    477.620    476.978    476.978
106.570    578.000    584.761     -6.761    476.776    584.030    477.484    476.776    476.776
106.670    565.371    592.689    -27.318    476.576    591.880    477.359    476.576    476.576
106.770    604.472    601.724      2.748    476.379    600.827    477.247    476.379    476.379
106.870    602.234    611.815     -9.580    476.185    610.822    477.145    476.185    476.185
106.970    623.000    622.869      0.131    475.994    621.773    477.054    475.994    475.994
107.070    643.000    634.746      8.254    475.805    633.540    476.971    475.805    475.805
107.170    640.000    647.253     -7.253    475.620    645.933    476.896    475.620    475.620
107.270    667.000    660.146      6.854    475.437    658.711    476.824    475.437    475.437
107.370    660.000    673.128    -13.128    475.256    671.581    476.754    475.256    475.256
107.470    716.000    685.859     30.141    475.079    684.205    476.682    475.079    475.079
107.570    713.169    697.962     15.207    474.905    696.211    476.604    474.905    474.905
107.670    718.427    709.043      9.384    474.734    707.208    476.515    474.734    474.734
107.770    704.296    718.721    -14.424    474.566    716.820    476.413    474.566    474.566
107.870    713.741    726.668    -12.928    474.400    724.724    476.293    474.400    474.400
107.970    776.000    732.662     43.338    474.238    730.698    476.153    474.238    474.238
108.070    688.000    736.621    -48.621    474.080    734.663    475.992    474.080    474.080
108.170    730.086    738.632     -8.546    473.924    736.704    475.809    473.924    473.924
108.270    773.407    738.931     34.476    473.772    737.056    475.608    473.772    473.772
108.370    725.000    737.874    -12.874    473.622    736.072    475.391    473.622    473.622
108.470    721.000    735.879    -14.879    473.477    734.165    475.162    473.477    473.477
108.570    684.000    733.372    -49.372    473.334    731.757    474.924    473.334    473.334
108.670    729.486    730.744     -1.259    473.195    729.237    474.683    473.195    473.195
108.770    721.000    728.323     -7.323    473.060    726.926    474.441    473.060    473.060
108.870    732.324    726.351      5.973    472.928    725.064    474.202    472.928    472.928
108.970    693.804    724.976    -31.171    472.799    723.797    473.970    472.799    472.799
109.070    780.234    724.246     55.988    472.674    723.171    473.745    472.674    472.674
109.170    704.080    724.114    -20.034    472.553    723.136    473.530    472.553    472.553
109.270    715.000    724.435     -9.435    472.436    723.547    473.326    472.436    472.436
109.370    763.000    724.978     38.022    472.322    724.172    473.134    472.322    472.322
109.470    707.000    725.444    -18.444    472.212    724.711    472.954    472.212    472.212
109.570    682.514    725.487    -42.973    472.105    724.819    472.785    472.105    472.105
109.670    728.000    724.750      3.250    472.003    724.139    472.627    472.003    472.003
109.770    754.605    722.908     31.697    471.904    722.349    472.480    471.904    471.904
109.870    668.487    719.711    -51.225    471.810    719.196    472.343    471.810    471.810
109.970    748.000    715.017     32.983    471.719    714.542    472.215    471.719    471.719
110.070    712.000    708.809      3.191    471.633    708.368    472.095    471.633    471.633
110.170    676.000    701.188    -25.188    471.550    700.776    471.983    471.550    471.550
110.270    647.034    692.349    -45.315    471.472    691.964    471.878    471.472    471.472
110.370    693.000    682.551     10.449    471.398    682.189    471.781    471.398    471.398
110.470    655.000    672.079    -17.079    471.328    671.738    471.689    471.328    471.328
110.570    652.000    661.217     -9.217    471.263    660.898    471.600    471.263    471.263
110.670    704.455    650.256     54.199    471.201    649.954    471.521    471.201    471.201
110.770    652.000    639.441     12.559    471.144    639.153    471.448    471.144    471.144
110.870    630.363    628.991      1.373    471.092    628.715    471.382    471.092    471.092
110.970    631.000    619.090     11.910    471.044    618.825    471.321    471.044    471.044
111.070    638.581    609.890     28.691    471.001    609.635    471.266    471.001    471.001
111.170    593.422    601.506     -8.083    470.962    601.258    471.218    470.962    470.962
111.270    605.000    594.015     10.985    470.927    593.774    471.175    470.927    470.927
111.370    607.000    587.461     19.539    470.898    587.225    471.138    470.898    470.898
111.470    629.887    581.877     48.010    470.873    581.646    471.107    470.873    470.873
111.570    524.986    577.247    -52.262    470.853    577.019    471.082    470.853    470.853
111.670    564.874    573.540     -8.665    470.837    573.313    471.063    470.837    470.837
111.770    529.992    570.706    -40.714    470.827    570.481    471.049    470.827    470.827
111.870    558.000    568.686    -10.686    470.821    568.461    471.042    470.821    470.821
111.970    603.000    567.410     35.590    470.821    567.185    471.040    470.821    470.821
112.070    568.000    566.805      1.195    470.825    566.579    471.044    470.825    470.825
112.170    584.000    566.797     17.203    470.835    566.570    471.054    470.835    470.835
112.270    572.000    567.314      4.686    470.849    567.087    471.069    470.849    470.849
112.370    563.000    568.292     -5.292    470.869    568.062    471.089    470.869    470.869
112.470    577.000    569.671      7.329    470.894    569.439    471.115    470.894    470.894
112.570    544.713    571.401    -26.689    470.924    571.168    471.147    470.924    470.924
112.670    600.000    573.446     26.554    470.960    573.210    471.184    470.960    470.960
112.770    543.000    575.779    -32.779    471.001    575.541    471.227    471.001    471.001
112.870    575.000    578.388     -3.388    471.047    578.148    471.275    471.047    471.047
112.970    572.000    581.276     -9.276    471.099    581.033    471.329    471.099    471.099
113.070    566.000    584.459    -18.459    471.157    584.213    471.389    471.157    471.157
113.170    613.000    587.968     25.032    471.220    587.719    471.455    471.220    471.220
113.270    583.000    591.850     -8.850    471.289    591.598    471.527    471.289    471.289
113.370    567.000    596.170    -29.170    471.363    595.913    471.606    471.363    471.363
113.470    632.000    601.012     30.988    471.443    600.749    471.692    471.443    471.443
113.570    602.000    606.487     -4.487    471.529    606.216    471.785    471.529    471.529
113.670    594.000    612.736    -18.736    471.621    612.455    471.885    471.621    471.621
113.770    578.000    619.941    -41.941    471.719    619.648    471.993    471.719    471.719
113.870    617.000    628.333    -11.333    471.823    628.026    472.110    471.823    471.823
113.970    642.000    638.208      3.792    471.932    637.883    472.235    471.932    471.932
114.070    622.093    649.936    -27.843    472.048    649.590    472.370    472.048    472.048
114.170    652.000    663.980    -11.980    472.170    663.608    472.514    472.170    472.170
114.270    694.178    680.914     13.264    472.298    680.511    472.668    472.298    472.298
114.370    722.320    701.441     20.879    472.433    701.002    472.833    472.433    472.433
114.470    733.000    726.412      6.588    472.574    725.930    473.009    472.574    472.574
114.570    779.000    756.840     22.160    472.721    756.310    473.197    472.721    472.721
114.670    806.000    793.918     12.082    472.874    793.330    473.396    472.874    472.874
114.770    828.000    839.022    -11.022    473.034    838.370    473.607    473.034    473.034
114.870    834.000    893.722    -59.722    473.201    892.996    473.831    473.201    473.201
114.970    995.460    959.763     35.697    473.374    958.955    474.067    473.374    473.374
115.070    994.000   1039.053    -45.053    473.554   1038.154    474.316    473.554    473.554
115.170   1160.000   1133.624     26.376    473.741   1132.625    474.576    473.741    473.741
115.270   1226.000   1245.583    -19.583    473.934   1244.474    474.849    473.934    473.934
115.370   1380.844   1377.042      3.801    474.134   1375.815    475.134    474.134    474.134
115.470   1543.000   1530.034     12.966    474.341   1528.681    475.430    474.341    474.341
115.570   1621.829   1706.407    -84.578    474.555   1704.921    475.736    474.555    474.555
115.670   1992.000   1907.713     84.287    474.776   1906.088    476.052    474.776    474.776
115.770   2179.585   2135.080     44.506    475.005   2133.312    476.377    475.005    475.005
115.870   2364.000   2389.079    -25.079    475.240   2387.166    476.709    475.240    475.240
115.970   2745.000   2669.599     75.401    475.482   2667.542    477.048    475.482    475.482
116.070   3095.000   2975.728    119.272    475.732   2973.528    477.392    475.732    475.732
116.170   3455.000   3305.645    149.355    475.989   3303.308    477.741    475.989    475.989
116.270   3781.000   3656.546    124.454    476.254   3654.080    478.093    476.254    476.254
116.370   4041.000   4024.583     16.417    476.525   4021.997    478.448    476.525    476.525
116.470   4438.006   4404.844     33.162    476.805   4402.151    478.805    476.805    476.805
116.570   4729.000   4791.361    -62.361    477.092   4788.575    479.166    477.092    477.092
116.670   5144.174   5177.146    -32.972    477.386   5174.281    479.530    477.386    477.386
116.770   5457.000   5554.243    -97.243    477.689   5551.316    479.898    477.689    477.689
116.870   5800.455   5914.010   -113.555    477.999   5911.036    480.271    477.999    477.999
116.970   6378.000   6247.119    130.881    478.316   6244.115    480.652    478.316    478.316
117.070   6580.000   6543.953     36.047    478.642   6540.934    481.040    478.642    478.642
117.170   6817.340   6795.054     22.286    478.976   6792.036    481.436    478.976    478.976
117.270   6939.000   6991.688    -52.688    479.317   6988.685    481.841    479.317    479.317
117.370   7057.780   7126.525    -68.745    479.667   7123.549    482.254    479.667    479.667
117.470   7174.000   7194.329    -20.329    480.025   7191.389    482.675    480.025    480.025
117.570   7198.769   7192.532      6.236    480.391   7189.634    483.103    480.391    480.391
117.670   7184.672   7121.529     63.142    480.765   7118.676    483.536    480.765    480.765
117.770   7119.954   6984.623    135.331    481.148   6981.815    483.973    481.148    481.148
117.870   6729.000   6787.636    -58.636    481.539   6784.870    484.411    481.539    481.539
117.970   6469.863   6538.282    -68.420    481.939   6535.558    484.850    481.939    481.939
118.070   6151.704   6245.472    -93.768    482.347   6242.787    485.285    482.347    482.347
118.170   5965.094   5918.645     46.450    482.763   5915.999    485.715    482.763    482.763
118.270   5357.000   5567.240   -210.240    483.189   5564.636    486.139    483.189    483.189
118.370   5288.484   5200.297     88.187    483.623   5197.737    486.554    483.623    483.623
118.470   4715.000   4826.181   -111.181    484.066   4823.671    486.960    484.066    484.066
118.570   4435.963   4452.403    -16.440    484.517   4449.949    487.358    484.517    484.517
118.670   4056.000   4085.506    -29.506    484.978   4083.114    487.748    484.978    484.978
118.770   3810.000   3730.998     79.002    485.448   3728.675    488.133    485.448    485.448
118.870   3450.000   3393.332     56.668    485.926   3391.084    488.515    485.926    485.926
118.970   3103.000   3075.915     27.085    486.414   3073.746    488.897    486.414    486.414
119.070   2798.000   2781.158     16.842    486.911   2779.070    489.281    486.911    486.911
119.170   2470.000   2510.546    -40.546    487.418   2508.543    489.671    487.418    487.418
119.270   2329.964   2264.743     65.221    487.933   2262.824    490.069    487.933    487.933
119.370   2046.000   2043.702      2.298    488.459   2041.866    490.479    488.459    488.459
119.470   1861.105   1846.787     14.318    488.993   1845.032    490.902    488.993    488.993
119.570   1657.000   1672.895    -15.895    489.537   1671.216    491.341    489.537    489.537
119.670   1527.603   1520.572      7.032    490.091   1518.964    491.798    490.091    490.091
119.770   1427.000   1388.124     38.876    490.655   1386.580    492.275    490.655    490.655
119.870   1325.000   1273.717     51.283    491.228   1272.229    492.772    491.228    491.228
119.970   1205.027   1175.460     29.567    491.811   1174.018    493.292    491.811    491.811
120.070   1177.000   1091.480     85.520    492.404   1090.074    493.835    492.404    492.404
120.170   1032.000   1019.979     12.021    493.007   1018.599    494.402    493.007    493.007
120.270   1073.000    959.278    113.722    493.620    957.911    494.993    493.620    493.620
120.370    860.106    907.844    -47.738    494.243    906.478    495.609    494.243    494.243
120.470    859.370    864.306     -4.936    494.876    862.929    496.250    494.876    494.876
120.570    802.000    827.463    -25.463    495.520    826.060    496.916    495.520    495.520
120.670    797.888    796.278      1.610    496.174    794.836    497.608    496.174    496.174
120.770    787.000    769.867     17.133    496.839    768.372    498.325    496.839    496.839
120.870    744.000    747.492     -3.492    497.513    745.928    499.068    497.513    497.513
120.970    700.000    728.536    -28.536    498.199    726.890    499.837    498.199    498.199
121.070    681.000    712.494    -31.494    498.895    710.751    500.631    498.895    498.895
121.170    677.000    698.955    -21.955    499.602    697.098    501.453    499.602    499.602
121.270    683.000    687.582     -4.582    500.319    685.596    502.302    500.319    500.319
121.370    673.000    678.104     -5.104    501.048    675.972    503.178    501.048    501.048
121.470    609.000    670.300    -61.300    501.787    668.004    504.082    501.787    501.787
121.570    618.000    663.989    -45.989    502.538    661.512    505.015    502.538    502.538
121.670    645.000    659.023    -14.023    503.299    656.346    505.978    503.299    503.299
121.770    617.161    655.278    -38.116    504.072    652.382    506.971    504.072    504.072
121.870    643.000    652.647     -9.647    504.856    649.512    507.996    504.856    504.856
121.970    659.208    651.037      8.172    505.651    647.642    509.053    505.651    505.651
122.070    595.000    650.364    -55.364    506.458    646.688    510.142    506.458    506.458
122.170    689.431    650.548     38.883    507.276    646.570    511.265    507.276    507.276
122.270    705.809    651.515     54.295    508.106    647.211    512.421    508.106    508.106
122.370    651.301    653.186     -1.884    508.947    648.537    513.611    508.947    508.947
122.470    680.000    655.483     24.517    509.800    650.469    514.832    509.800    509.800
122.570    624.926    658.326    -33.400    510.665    652.927    516.083    510.665    510.665
122.670    663.468    661.627      1.841    511.542    655.828    517.363    511.542    511.542
122.770    651.000    665.294    -14.294    512.431    659.083    518.667    512.431    512.431
122.870    651.000    669.231    -18.231    513.331    662.598    519.992    513.331    513.331
122.970    662.000    673.332    -11.332    514.244    666.274    521.333    514.244    514.244
123.070    637.987    677.488    -39.502    515.169    670.006    522.684    515.169    515.169
123.170    663.000    681.584    -18.584    516.106    673.686    524.040    516.106    516.106
123.270    728.440    685.500     42.940    517.056    677.202    525.393    517.056    517.056
123.370    709.908    689.116     20.793    518.018    680.440    526.735    518.018    518.018
123.470    730.000    692.314     37.686    518.993    683.290    528.060    518.993    518.993
123.570    686.000    694.984     -8.984    519.980    685.650    529.361    519.980    519.980
123.670    724.176    697.027     27.149    520.980    687.427    530.629    520.980    520.980
123.770    706.056    698.364      7.692    521.992    688.548    531.859    521.992    521.992
123.870    725.000    698.938     26.062    523.018    688.962    533.046    523.018    523.018
123.970    673.390    698.719    -25.330    524.056    688.641    534.187    524.056    524.056
124.070    745.000    697.705     47.295    525.108    687.586    535.280    525.108    525.108
124.170    697.000    695.912      1.088    526.172    685.813    536.326    526.172    526.172
124.270    714.000    693.366     20.634    527.250    683.346    537.323    527.250    527.250
124.370    698.000    690.193      7.807    528.341    680.310    538.277    528.341    528.341
124.470    648.265    686.440    -38.176    529.445    676.748    539.189    529.445    529.445
124.570    688.000    682.187      5.813    530.563    672.736    540.063    530.563    530.563
124.670    696.000    677.519     18.481    531.694    668.356    540.905    531.694    531.694
124.770    656.000    672.527    -16.527    532.839    663.693    541.718    532.839    532.839
124.870    641.856    667.298    -25.442    533.997    658.828    542.510    533.997    533.997
124.970    670.000    661.917      8.083    535.169    653.841    543.285    535.169    535.169
