neutron_powder_diffraction_0055
R_wp: 3.982
Temperature (K): 672.314
Counts: 83477.00
Wavelength (Ã…): 2.52098
COMMENTS
Test file for demonstrating the .xyy file format in Reel1.0
END OF HEADER
   tth       Y_obs     Y_calc      Y_res    Background    Phase_1_Nuc    Phase_1_Mag    Phase_2_Nuc    Phase_2_Mag
  9.970    654.000    648.959      5.041    647.632    648.622    647.968    647.632    647.632
 10.070    661.000    648.666     12.334    647.255    648.325    647.595    647.255    647.255
 10.170    647.000    648.381     -1.381    646.876    648.037    647.220    646.876    646.876
 10.270    627.000    648.108    -21.108    646.495    647.760    646.842    646.495    646.495
 10.370    686.000    647.849     38.151    646.112    647.497    646.463    646.112    646.112
 10.470    620.570    647.607    -27.038    645.726    647.251    646.082    645.726    645.726
 10.570    645.000    647.388     -2.388    645.339    647.028    645.698    645.339    645.339
 10.670    732.000    647.196     84.804    644.950    646.832    645.313    644.950    644.950
 10.770    683.352    647.040     36.311    644.558    646.672    644.925    644.558    644.558
 10.870    631.576    646.931    -15.355    644.165    646.558    644.536    644.165    644.165
 10.970    639.463    646.881     -7.418    643.770    646.505    644.145    643.770    643.770
 11.070    602.500    646.912    -44.412    643.373    646.531    643.752    643.373    643.373
 11.170    692.000    647.050     44.950    642.974    646.665    643.357    642.974    642.974
 11.270    671.000    647.339     23.661    642.573    646.949    642.961    642.573    642.573
 11.370    693.868    647.847     46.021    642.170    647.451    642.563    642.170    642.170
 11.470    652.541    648.707      3.834    641.766    648.306    642.164    641.766    641.766
 11.570    694.000    650.218     43.782    641.360    649.812    641.762    641.360    641.360
 11.670    717.000    653.103     63.897    640.953    652.690    641.360    640.953    640.953
 11.770    671.279    658.893     12.386    640.544    658.472    640.955    640.544    640.544
 11.870    727.000    670.131     56.869    640.133    669.699    640.549    640.133    640.133
 11.970    762.000    689.622     72.378    639.720    689.174    640.142    639.720    639.720
 12.070    802.000    718.025     83.975    639.307    717.556    639.733    639.307    639.307
 12.170    799.000    749.867     49.133    638.891    749.375    639.323    638.891    638.891
 12.270    758.000    770.700    -12.700    638.474    770.191    638.911    638.474    638.474
 12.370    790.000    766.256     23.744    638.056    765.744    638.498    638.056    638.056
 12.470    788.478    739.836     48.643    637.636    739.332    638.084    637.636    637.636
 12.570    674.214    707.288    -33.074    637.215    706.797    637.668    637.215    637.215
 12.670    645.314    680.434    -35.120    636.793    679.952    637.252    636.793    636.793
 12.770    628.000    662.660    -34.660    636.369    662.182    636.834    636.369    636.369
 12.870    639.889    652.494    -12.605    635.945    652.015    636.415    635.945    635.945
 12.970    622.000    646.871    -24.871    635.518    646.389    635.994    635.518    635.518
 13.070    611.000    643.630    -32.630    635.091    643.143    635.573    635.091    635.091
 13.170    601.000    641.515    -40.515    634.663    641.023    635.151    634.663    634.663
 13.270    597.711    639.949    -42.239    634.233    639.452    634.727    634.233    634.233
 13.370    691.000    638.691     52.309    633.802    638.188    634.303    633.802    633.802
 13.470    652.000    637.631     14.369    633.370    637.121    633.878    633.370    633.370
 13.570    608.000    636.708    -28.708    632.937    636.192    633.451    632.937    632.937
 13.670    676.708    635.887     40.821    632.503    635.365    633.024    632.503    632.503
 13.770    609.000    635.144    -26.144    632.068    634.615    632.596    632.068    632.068
 13.870    590.029    634.480    -44.450    631.633    633.943    632.168    631.633    631.633
 13.970    620.000    633.836    -13.836    631.196    633.293    631.739    631.196    631.196
 14.070    638.000    633.225      4.775    630.758    632.674    631.308    630.758    630.758
 14.170    638.000    632.641      5.359    630.320    632.082    630.877    630.320    630.320
 14.270    639.000    632.079      6.921    629.880    631.513    630.445    629.880    629.880
 14.370    657.000    631.535     25.465    629.440    630.961    630.013    629.440    629.440
 14.470    584.182    631.005    -46.824    628.999    630.424    629.580    628.999    628.999
 14.570    631.000    630.488      0.512    628.557    629.898    629.146    628.557    628.557
 14.670    620.341    629.981     -9.640    628.115    629.383    628.712    628.115    628.115
 14.770    606.000    629.482    -23.482    627.671    628.876    628.278    627.671    627.671
 14.870    585.000    628.991    -43.991    627.228    628.376    627.842    627.228    627.228
 14.970    574.000    628.506    -54.506    626.783    627.882    627.407    626.783    626.783
 15.070    577.573    628.026    -50.452    626.338    627.392    626.971    626.338    626.338
 15.170    596.000    627.550    -31.550    625.892    626.908    626.534    625.892    625.892
 15.270    594.000    627.078    -33.078    625.446    626.426    626.098    625.446    625.446
 15.370    628.091    626.610      1.481    624.999    625.948    625.661    624.999    624.999
 15.470    603.000    626.145    -23.145    624.552    625.473    625.223    624.552    624.552
 15.570    610.000    625.682    -15.682    624.104    625.001    624.786    624.104    624.104
 15.670    589.000    625.222    -36.222    623.656    624.530    624.348    623.656    623.656
 15.770    612.000    624.764    -12.764    623.207    624.061    623.910    623.207    623.207
 15.870    575.000    624.308    -49.308    622.758    623.594    623.472    622.758    622.758
 15.970    590.251    623.857    -33.605    622.309    623.132    623.033    622.309    622.309
 16.070    618.000    623.413     -5.413    621.859    622.677    622.595    621.859    621.859
 16.170    606.000    622.962    -16.962    621.409    622.215    622.157    621.409    621.409
 16.270    677.000    622.512     54.488    620.959    621.753    621.718    620.959    620.959
 16.370    581.000    622.064    -41.064    620.508    621.292    621.280    620.508    620.508
 16.470    571.301    621.616    -50.315    620.057    620.832    620.842    620.057    620.057
 16.570    576.000    621.170    -45.170    619.606    620.372    620.403    619.606    619.606
 16.670    657.675    620.725     36.950    619.155    619.914    619.966    619.155    619.155
 16.770    611.000    620.281     -9.281    618.703    619.456    619.528    618.703    618.703
 16.870    633.963    619.837     14.126    618.252    618.999    619.090    618.252    618.252
 16.970    592.000    619.395    -27.395    617.800    618.542    618.653    617.800    617.800
 17.070    625.310    618.958      6.352    617.348    618.091    618.215    617.348    617.348
 17.170    663.862    618.563     45.299    616.896    617.680    617.779    616.896    616.896
 17.270    594.000    618.161    -24.161    616.444    617.263    617.342    616.444    616.444
 17.370    608.000    617.753     -9.753    615.992    616.839    616.906    615.992    615.992
 17.470    636.000    617.319     18.681    615.540    616.389    616.470    615.540    615.540
 17.570    593.000    616.883    -23.883    615.088    615.936    616.035    615.088    615.088
 17.670    572.952    616.448    -43.497    614.637    615.485    615.600    614.637    614.637
 17.770    605.000    616.016    -11.016    614.185    615.034    615.166    614.185    614.185
 17.870    592.591    615.592    -23.002    613.733    614.593    614.732    613.733    613.733
 17.970    595.000    615.166    -20.166    613.281    614.148    614.299    613.281    613.281
 18.070    622.000    614.736      7.264    612.830    613.699    613.867    612.830    612.830
 18.170    587.000    614.307    -27.307    612.379    613.251    613.435    612.379    612.379
 18.270    605.934    613.886     -7.952    611.928    612.808    613.005    611.928    611.928
 18.370    609.000    613.519     -4.519    611.477    612.410    612.585    611.477    611.477
 18.470    651.104    613.106     37.998    611.026    611.974    612.158    611.026    611.026
 18.570    599.000    612.684    -13.684    610.575    611.530    611.729    610.575    610.575
 18.670    569.681    612.263    -42.581    610.125    611.086    611.302    610.125    610.125
 18.770    576.779    611.843    -35.064    609.675    610.643    610.876    609.675    609.675
 18.870    583.928    611.435    -27.507    609.226    610.210    610.450    609.226    609.226
 18.970    599.000    611.019    -12.019    608.777    609.769    610.026    608.777    608.777
 19.070    582.305    610.603    -28.297    608.328    609.328    609.603    608.328    608.328
 19.170    633.000    610.188     22.812    607.879    608.887    609.181    607.879    607.879
 19.270    567.000    609.776    -42.776    607.431    608.446    608.760    607.431    607.431
 19.370    573.000    609.364    -36.364    606.983    608.007    608.341    606.983    606.983
 19.470    619.000    608.955     10.045    606.536    607.569    607.923    606.536    606.536
 19.570    645.327    608.548     36.779    606.089    607.131    607.506    606.089    606.089
 19.670    629.251    608.143     21.108    605.643    606.695    607.091    605.643    605.643
 19.770    570.000    607.740    -37.740    605.197    606.260    606.677    605.197    605.197
 19.870    594.000    607.340    -13.340    604.752    605.827    606.265    604.752    604.752
 19.970    614.000    606.955      7.045    604.307    605.406    605.856    604.307    604.307
 20.070    589.986    606.586    -16.600    603.863    604.999    605.449    603.863    603.863
 20.170    557.000    606.223    -49.223    603.419    604.596    605.047    603.419    603.419
 20.270    590.000    605.865    -15.865    602.976    604.198    604.644    602.976    602.976
 20.370    544.000    605.491    -61.491    602.534    603.783    604.241    602.534    602.534
 20.470    603.000    605.142     -2.142    602.092    603.393    603.841    602.092    602.092
 20.570    619.000    604.793     14.207    601.651    603.001    603.443    601.651    601.651
 20.670    591.029    604.418    -13.389    601.210    602.582    603.046    601.210    601.210
 20.770    608.000    604.049      3.951    600.770    602.167    602.652    600.770    600.770
 20.870    650.694    603.701     46.993    600.331    601.771    602.261    600.331    600.331
 20.970    552.000    603.380    -51.380    599.893    601.400    601.873    599.893    599.893
 21.070    543.000    603.026    -60.026    599.455    600.995    601.487    599.455    599.455
 21.170    592.000    602.667    -10.667    599.018    600.582    601.103    599.018    599.018
 21.270    629.881    602.315     27.566    598.582    600.174    600.723    598.582    598.582
 21.370    555.755    601.965    -46.210    598.147    599.767    600.346    598.147    598.147
 21.470    635.853    601.628     34.225    597.712    599.367    599.974    597.712    597.712
 21.570    572.000    601.291    -29.291    597.279    598.966    599.603    597.279    597.279
 21.670    590.000    600.956    -10.956    596.846    598.566    599.236    596.846    596.846
 21.770    579.000    600.628    -21.628    596.414    598.169    598.873    596.414    596.414
 21.870    599.000    600.311     -1.311    595.983    597.780    598.514    595.983    595.983
 21.970    626.958    600.001     26.956    595.553    597.394    598.160    595.553    595.553
 22.070    593.000    599.693     -6.693    595.123    597.008    597.809    595.123    595.123
 22.170    632.340    599.393     32.947    594.695    596.625    597.463    594.695    594.695
 22.270    620.998    599.101     21.896    594.268    596.248    597.121    594.268    594.268
 22.370    592.000    598.821     -6.821    593.841    595.878    596.784    593.841    593.841
 22.470    633.000    598.549     34.451    593.416    595.512    596.453    593.416    593.416
 22.570    619.000    598.289     20.711    592.991    595.153    596.127    592.991    592.991
 22.670    643.000    598.042     44.958    592.568    594.802    595.808    592.568    592.568
 22.770    580.291    597.810    -17.520    592.145    594.461    595.495    592.145    592.145
 22.870    570.000    597.594    -27.594    591.724    594.130    595.188    591.724    591.724
 22.970    623.000    597.395     25.605    591.303    593.810    594.889    591.303    591.303
 23.070    572.000    597.218    -25.218    590.884    593.505    594.597    590.884    590.884
 23.170    610.000    597.064     12.936    590.465    593.217    594.313    590.465    590.465
 23.270    628.000    596.938     31.062    590.048    592.949    594.038    590.048    590.048
 23.370    582.005    596.846    -14.841    589.632    592.707    593.772    589.632    589.632
 23.470    592.000    596.794     -4.794    589.217    592.496    593.516    589.217    589.217
 23.570    605.581    596.791      8.790    588.803    592.324    593.272    588.803    588.803
 23.670    618.000    596.850     21.150    588.391    592.203    593.038    588.391    588.391
 23.770    615.323    596.985     18.338    587.979    592.149    592.817    587.979    587.979
 23.870    585.000    597.221    -12.221    587.569    592.183    592.609    587.569    587.569
 23.970    606.978    597.593      9.384    587.160    592.341    592.415    587.160    587.160
 24.070    603.000    598.164      4.836    586.752    592.682    592.236    586.752    586.752
 24.170    563.614    599.061    -35.447    586.345    593.335    592.075    586.345    586.345
 24.270    648.000    600.581     47.419    585.940    594.593    591.932    585.940    585.940
 24.370    599.769    603.378     -3.609    585.535    597.111    591.808    585.535    585.535
 24.470    627.000    608.681     18.319    585.132    602.117    591.707    585.132    585.132
 24.570    622.679    618.209      4.470    584.731    611.329    591.629    584.731    584.731
 24.670    684.000    633.363     50.637    584.330    626.144    591.577    584.330    584.330
 24.770    711.000    653.495     57.505    583.931    645.915    591.554    583.931    583.931
 24.870    724.744    673.528     51.217    583.533    665.555    591.564    583.533    583.533
 24.970    730.619    683.144     47.476    583.137    674.737    591.608    583.137    583.137
 25.070    695.378    675.273     20.105    582.741    666.382    591.692    582.741    582.741
 25.170    670.000    656.103     13.897    582.347    646.676    591.819    582.347    582.347
 25.270    625.000    636.040    -11.040    581.955    626.029    591.996    581.955    581.955
 25.370    623.000    620.676      2.324    581.564    610.030    592.227    581.564    581.564
 25.470    568.424    611.008    -42.583    581.174    599.672    592.521    581.174    581.174
 25.570    658.000    605.777     52.223    580.785    593.685    592.885    580.785    580.785
 25.670    614.361    603.271     11.089    580.398    590.346    593.328    580.398    580.398
 25.770    586.000    602.224    -16.224    580.013    588.376    593.864    580.013    580.013
 25.870    587.000    601.949    -14.949    579.629    587.074    594.506    579.629    579.629
 25.970    654.000    602.144     51.856    579.246    586.122    595.269    579.246    579.246
 26.070    596.089    602.683     -6.595    578.865    585.377    596.172    578.865    578.865
 26.170    621.000    603.531     17.469    578.485    584.777    597.239    578.485    578.485
 26.270    619.704    604.686     15.018    578.106    584.291    598.501    578.106    578.106
 26.370    615.507    606.166      9.341    577.729    583.902    599.993    577.729    577.729
 26.470    644.000    608.005     35.995    577.354    583.597    601.761    577.354    577.354
 26.570    653.978    610.256     43.722    576.980    583.374    603.862    576.980    576.980
 26.670    627.259    612.993     14.266    576.607    583.232    606.368    576.607    576.607
 26.770    576.276    616.314    -40.038    576.236    583.176    609.373    576.236    576.236
 26.870    652.720    620.354     32.366    575.867    583.218    613.002    575.867    575.867
 26.970    624.217    625.297     -1.079    575.499    583.373    617.420    575.499    575.499
 27.070    696.000    631.379     64.621    575.133    583.665    622.844    575.133    575.133
 27.170    681.502    638.947     42.555    574.768    584.127    629.584    574.768    574.768
 27.270    657.553    648.487      9.066    574.404    584.810    638.076    574.404    574.404
 27.370    722.000    660.713     61.287    574.043    585.789    648.960    574.043    574.043
 27.470    706.000    676.766     29.234    573.683    587.182    663.259    573.683    573.683
 27.570    741.000    698.862     42.138    573.324    589.219    682.957    573.324    573.324
 27.670    722.000    732.572    -10.572    572.967    592.476    713.048    572.967    572.967
 27.770    794.000    793.528      0.472    572.612    598.564    767.550    572.612    572.612
 27.870    900.000    921.078    -21.078    572.258    611.531    881.752    572.258    572.258
 27.970   1175.267   1191.293    -16.026    571.906    639.201   1123.889    571.906    571.906
 28.070   1551.000   1699.904   -148.904    571.555    691.424   1579.833    571.555    571.555
 28.170   2300.000   2481.389   -181.389    571.206    771.773   2280.511    571.206    571.206
 28.270   3288.000   3380.664    -92.664    570.859    864.391   3086.759    570.859    570.859
 28.370   3935.000   3991.275    -56.275    570.513    927.699   3633.788    570.513    570.513
 28.470   3917.000   3926.556     -9.556    570.169    922.372   3574.240    570.169    570.169
 28.570   3394.707   3292.387    102.320    569.827    860.107   3002.142    569.827    569.827
 28.670   2630.460   2565.329     65.130    569.486    791.221   2343.670    569.486    569.486
 28.770   1905.000   2126.157   -221.157    569.147    756.281   1939.070    569.147    569.147
 28.870   1971.000   2074.620   -103.620    568.810    765.744   1877.697    568.810    568.810
 28.970   2264.938   2275.306    -10.368    568.474    802.723   2041.067    568.474    568.474
 29.070   2490.000   2453.377     36.623    568.141    831.839   2189.743    568.141    568.141
 29.170   2424.000   2367.100     56.900    567.808    821.300   2113.750    567.808    567.808
 29.270   1938.518   2013.574    -75.056    567.478    771.929   1809.294    567.478    567.478
 29.370   1636.000   1573.154     62.846    567.149    709.845   1430.606    567.149    567.149
 29.470   1135.126   1201.335    -66.209    566.822    657.332   1110.927    566.822    566.822
 29.570    909.233    951.711    -42.478    566.497    622.085    896.182    566.497    566.497
 29.670    911.000    808.447    102.553    566.173    601.898    772.754    566.173    566.173
 29.770    702.490    732.908    -30.417    565.851    591.306    707.469    565.851    565.851
 29.870    777.000    692.522     84.478    565.531    585.702    672.359    565.531    565.531
 29.970    701.000    668.524     32.476    565.213    582.440    651.301    565.213    565.213
 30.070    688.000    652.372     35.628    564.896    580.331    636.940    564.896    564.896
 30.170    609.876    640.619    -30.743    564.581    578.918    626.283    564.581    564.581
 30.270    704.000    631.876     72.124    564.268    578.071    618.073    564.268    564.268
 30.370    578.793    625.639    -46.846    563.957    577.858    611.736    563.957    563.957
 30.470    717.000    622.052     94.948    563.647    578.614    607.081    563.647    563.647
 30.570    578.518    622.009    -43.492    563.339    581.069    604.272    563.339    563.339
 30.670    665.338    627.141     38.197    563.033    586.370    603.790    563.033    563.033
 30.770    678.000    639.171     38.829    562.729    595.695    606.181    562.729    562.729
 30.870    637.125    658.321    -21.196    562.427    609.250    611.461    562.427    562.427
 30.970    651.287    680.964    -29.677    562.126    624.797    618.244    562.126    562.126
 31.070    730.000    697.967     32.033    561.827    636.613    623.125    561.827    561.827
 31.170    735.000    698.507     36.493    561.530    637.901    622.083    561.530    561.530
 31.270    638.971    680.604    -41.634    561.235    627.434    614.363    561.235    561.235
 31.370    685.000    653.797     31.203    560.942    611.249    603.460    560.942    560.942
 31.470    622.000    628.507     -6.507    560.650    595.938    593.200    560.650    560.650
 31.570    561.763    609.601    -47.839    560.360    584.587    585.363    560.360    560.360
 31.670    640.000    597.436     42.564    560.072    577.431    580.070    560.072    560.072
 31.770    605.180    590.276     14.905    559.786    573.387    576.670    559.786    559.786
 31.870    631.000    586.121     44.879    559.502    571.201    574.419    559.502    559.502
 31.970    623.000    583.553     39.447    559.220    569.985    572.785    559.220    559.220
 32.070    596.000    581.808     14.192    558.939    569.265    571.480    558.939    558.939
 32.170    604.000    580.539     23.461    558.660    568.828    570.369    558.660    558.660
 32.270    608.000    579.603     28.397    558.384    568.592    569.393    558.384    558.384
 32.370    604.000    578.940     25.060    558.108    568.526    568.521    558.108    558.108
 32.470    636.000    578.523     57.477    557.835    568.620    567.737    557.835    557.835
 32.570    579.000    578.349      0.651    557.564    568.881    567.030    557.564    557.564
 32.670    627.000    578.426     48.574    557.295    569.325    566.394    557.295    557.295
 32.770    567.233    578.782    -11.549    557.027    569.982    565.825    557.027    557.027
 32.870    632.000    579.459     52.541    556.761    570.896    565.323    556.761    556.761
 32.970    629.000    580.524     48.476    556.497    572.129    564.890    556.497    556.497
 33.070    534.036    582.078    -48.041    556.235    573.777    564.534    556.235    556.235
 33.170    588.000    584.280      3.720    555.975    575.984    564.269    555.975    555.975
 33.270    598.549    587.410     11.139    555.717    579.003    564.120    555.717    555.717
 33.370    570.000    592.039    -22.039    555.461    583.350    564.146    555.461    555.461
 33.470    666.000    599.437     66.563    555.206    590.163    564.474    555.206    555.206
 33.570    582.581    612.329    -29.747    554.953    601.888    565.386    554.953    554.953
 33.670    642.000    635.837      6.163    554.703    623.121    567.406    554.703    554.703
 33.770    649.118    677.704    -28.586    554.454    660.805    571.332    554.454    554.454
 33.870    759.000    746.198     12.802    554.207    722.357    578.016    554.207    554.207
 33.970    875.000    844.606     30.394    553.962    810.730    587.795    553.962    553.962
 34.070    930.970    962.879    -31.910    553.718    916.916    599.634    553.718    553.718
 34.170   1110.530   1068.756     41.774    553.477   1011.983    610.207    553.477    553.477
 34.270   1085.967   1110.938    -24.972    553.238   1049.923    614.226    553.238    553.238
 34.370   1126.000   1061.138     64.862    553.000   1005.354    608.772    553.000    553.000
 34.470    904.054    951.303    -47.248    552.764    906.926    597.139    552.764    552.764
 34.570    818.000    832.743    -14.743    552.531    800.660    584.615    552.531    552.531
 34.670    734.000    735.820     -1.820    552.299    713.791    574.329    552.299    552.299
 34.770    650.000    669.034    -19.034    552.069    653.946    567.158    552.069    552.069
 34.870    579.201    628.325    -49.123    551.840    617.482    562.683    551.840    551.840
 34.970    600.000    605.251     -5.251    551.614    596.830    560.034    551.614    551.614
 35.070    622.000    592.223     29.777    551.390    585.183    558.428    551.390    551.390
 35.170    629.000    584.337     44.663    551.167    578.143    557.361    551.167    551.167
 35.270    603.000    579.033     23.967    550.947    573.412    556.567    550.947    550.947
 35.370    585.000    575.130      9.870    550.728    569.932    555.926    550.728    550.728
 35.470    607.174    572.094     35.079    550.511    567.223    555.382    550.511    550.511
 35.570    559.259    569.658    -10.398    550.296    565.045    554.909    550.296    550.296
 35.670    581.000    567.663     13.337    550.083    563.256    554.490    550.083    550.083
 35.770    551.000    566.007    -15.007    549.872    561.764    554.115    549.872    549.872
 35.870    569.000    564.616      4.384    549.663    560.501    553.777    549.663    549.663
 35.970    597.000    563.437     33.563    549.456    559.420    553.472    549.456    549.456
 36.070    531.000    562.432    -31.432    549.250    558.485    553.197    549.250    549.250
 36.170    532.000    561.573    -29.573    549.047    557.669    552.951    549.047    549.047
 36.270    517.815    560.838    -43.023    548.845    556.951    552.732    548.845    548.845
 36.370    570.298    560.213     10.085    548.645    556.317    552.541    548.645    548.645
 36.470    524.000    559.689    -35.689    548.447    555.755    552.381    548.447    548.447
 36.570    517.000    559.259    -42.259    548.251    555.256    552.254    548.251    548.251
 36.670    550.482    558.924     -8.442    548.057    554.815    552.165    548.057    548.057
 36.770    545.000    558.686    -13.686    547.865    554.429    552.121    547.865    547.865
 36.870    528.357    558.555    -30.198    547.674    554.099    552.130    547.674    547.674
 36.970    573.000    558.552     14.448    547.486    553.830    552.207    547.486    547.486
 37.070    598.238    558.716     39.522    547.299    553.644    552.371    547.299    547.299
 37.170    563.000    559.124      3.876    547.114    553.585    552.653    547.114    547.114
 37.270    541.000    559.929    -18.929    546.931    553.747    553.113    546.931    546.931
 37.370    506.000    561.411    -55.411    546.750    554.288    553.873    546.750    546.750
 37.470    564.627    564.040      0.587    546.571    555.417    555.194    546.571    546.571
 37.570    575.000    568.514      6.486    546.393    557.328    557.581    546.393    546.393
 37.670    572.000    575.721     -3.721    546.218    560.053    561.886    546.218    546.218
 37.770    578.000    586.486     -8.486    546.044    563.281    569.250    546.044    546.044
 37.870    598.537    601.011     -2.473    545.873    566.162    580.721    545.873    545.873
 37.970    643.000    618.226     24.774    545.703    567.432    596.498    545.703    545.703
 38.070    604.884    635.723    -30.839    545.535    566.376    614.882    545.535    545.535
 38.170    641.417    649.453     -8.036    545.368    563.625    631.198    545.368    545.368
 38.270    663.000    653.341      9.659    545.204    560.287    638.262    545.204    545.204
 38.370    638.000    643.879     -5.879    545.041    557.102    631.824    545.041    545.041
 38.470    564.000    625.210    -61.210    544.881    554.461    615.636    544.881    544.881
 38.570    607.515    604.622      2.893    544.722    552.500    596.849    544.722    544.722
 38.670    632.173    586.959     45.214    544.565    551.146    580.383    544.565    544.565
 38.770    593.000    573.975     19.025    544.410    550.239    568.149    544.410    544.410
 38.870    565.076    565.440     -0.364    544.256    549.624    560.075    544.256    544.256
 38.970    544.000    560.235    -16.235    544.105    549.187    555.154    544.105    544.105
 39.070    576.000    557.138     18.862    543.955    548.856    552.238    543.955    543.955
 39.170    537.000    555.227    -18.227    543.807    548.587    550.448    543.807    543.807
 39.270    596.537    553.947     42.591    543.661    548.358    549.250    543.661    543.661
 39.370    590.973    553.008     37.965    543.517    548.157    548.368    543.517    543.517
 39.470    555.000    552.271      2.729    543.374    547.978    547.668    543.374    543.374
 39.570    567.250    551.670     15.580    543.234    547.816    547.089    543.234    543.234
 39.670    541.490    551.168     -9.678    543.095    547.669    546.594    543.095    543.095
 39.770    559.000    550.743      8.257    542.958    547.536    546.165    542.958    542.958
 39.870    550.000    550.379     -0.379    542.823    547.416    545.786    542.823    542.823
 39.970    561.000    550.065     10.935    542.689    547.308    545.447    542.689    542.689
 40.070    530.000    549.794    -19.794    542.557    547.212    545.140    542.557    542.557
 40.170    582.851    549.560     33.291    542.427    547.128    544.860    542.427    542.427
 40.270    515.000    549.358    -34.358    542.299    547.056    544.602    542.299    542.299
 40.370    551.000    549.186      1.814    542.173    546.996    544.363    542.173    542.173
 40.470    544.695    549.041     -4.346    542.048    546.951    544.139    542.048    542.048
 40.570    574.000    548.923     25.077    541.925    546.920    543.930    541.925    541.925
 40.670    528.000    548.832    -20.832    541.804    546.905    543.732    541.804    541.804
 40.770    593.152    548.767     44.385    541.685    546.908    543.545    541.685    541.685
 40.870    523.608    548.730    -25.122    541.567    546.931    543.367    541.567    541.567
 40.970    552.641    548.724      3.918    541.452    546.978    543.198    541.452    541.452
 41.070    514.000    548.751    -34.751    541.338    547.052    543.037    541.338    541.338
 41.170    512.000    548.816    -36.816    541.225    547.158    542.884    541.225    541.225
 41.270    526.098    548.925    -22.827    541.114    547.302    542.738    541.114    541.114
 41.370    492.000    549.086    -57.086    541.006    547.493    542.599    541.006    541.006
 41.470    556.000    549.309      6.691    540.898    547.742    542.467    540.898    540.898
 41.570    574.720    549.612     25.108    540.793    548.064    542.342    540.793    540.793
 41.670    574.000    550.014     23.986    540.689    548.480    542.225    540.689    540.689
 41.770    533.000    550.552    -17.552    540.587    549.025    542.116    540.587    540.587
 41.870    542.392    551.291     -8.899    540.487    549.761    542.018    540.487    540.487
 41.970    544.000    552.355     -8.355    540.388    550.811    541.935    540.388    540.388
 42.070    542.000    554.002    -12.002    540.291    552.421    541.875    540.291    540.291
 42.170    508.812    556.712    -47.900    540.196    555.057    541.856    540.196    540.196
 42.270    547.000    561.296    -14.296    540.102    559.501    541.904    540.102    540.102
 42.370    605.090    568.888     36.201    540.010    566.850    542.059    540.010    540.010
 42.470    612.588    580.718     31.870    539.920    578.290    542.363    539.920    539.920
 42.570    579.331    597.538    -18.207    539.831    594.550    542.842    539.831    539.831
 42.670    575.066    618.783    -43.717    539.744    615.084    543.476    539.744    539.744
 42.770    613.000    641.578    -28.578    539.659    637.116    544.167    539.659    539.659
 42.870    665.970    660.010      5.960    539.575    654.932    544.710    539.575    539.575
 42.970    656.000    666.538    -10.538    539.493    661.250    544.844    539.493    539.493
 43.070    616.235    657.686    -41.451    539.412    652.709    544.450    539.412    539.412
 43.170    590.000    637.926    -47.926    539.333    633.629    543.682    539.333    539.333
 43.270    515.000    614.927    -99.927    539.256    611.418    542.805    539.256    539.256
 43.370    606.483    594.171     12.312    539.180    591.372    542.007    539.180    539.180
 43.470    550.000    578.088    -28.088    539.106    575.840    541.373    539.106    539.106
 43.570    553.000    566.957    -13.957    539.034    565.090    540.913    539.034    539.034
 43.670    560.000    559.887      0.113    538.963    558.264    540.594    538.963    538.963
 43.770    548.000    555.631     -7.631    538.894    554.155    540.376    538.894    538.894
 43.870    532.000    553.090    -21.090    538.826    551.702    540.218    538.826    538.826
 43.970    559.000    551.512      7.488    538.760    550.178    540.097    538.760    538.760
 44.070    553.000    550.459      2.541    538.695    549.162    539.995    538.695    538.695
 44.170    522.818    549.705    -26.887    538.632    548.433    539.907    538.632    538.632
 44.270    554.000    549.137      4.863    538.571    547.883    539.827    538.571    538.571
 44.370    557.000    548.699      8.301    538.511    547.458    539.753    538.511    538.511
 44.470    528.000    548.358    -20.358    538.453    547.126    539.686    538.453    538.453
 44.570    522.104    548.094    -25.990    538.396    546.868    539.623    538.396    538.396
 44.670    586.732    547.892     38.840    538.340    546.669    539.565    538.340    538.340
 44.770    536.000    547.743    -11.743    538.287    546.519    539.511    538.287    538.287
 44.870    535.000    547.638    -12.638    538.234    546.411    539.461    538.234    538.234
 44.970    506.262    547.571    -41.309    538.183    546.340    539.415    538.183    538.183
 45.070    575.000    547.538     27.462    538.134    546.301    539.372    538.134    538.134
 45.170    591.482    547.537     43.944    538.086    546.290    539.333    538.086    538.086
 45.270    604.000    547.565     56.435    538.040    546.307    539.298    538.040    538.040
 45.370    578.340    547.620     30.720    537.995    546.349    539.266    537.995    537.995
 45.470    586.397    547.701     38.696    537.951    546.415    539.238    537.951    537.951
 45.570    583.000    547.809     35.191    537.909    546.505    539.213    537.909    537.909
 45.670    552.000    547.943      4.057    537.869    546.619    539.193    537.869    537.869
 45.770    594.000    548.104     45.896    537.830    546.758    539.176    537.830    537.830
 45.870    578.000    548.293     29.707    537.792    546.922    539.163    537.792    537.792
 45.970    568.000    548.512     19.488    537.756    547.112    539.155    537.756    537.756
 46.070    582.848    548.763     34.085    537.721    547.331    539.152    537.721    537.721
 46.170    547.000    549.048     -2.048    537.687    547.581    539.153    537.687    537.687
 46.270    546.000    549.372     -3.372    537.655    547.866    539.160    537.655    537.655
 46.370    525.372    549.739    -24.367    537.624    548.189    539.173    537.624    537.624
 46.470    515.000    550.154    -35.154    537.595    548.556    539.192    537.595    537.595
 46.570    562.000    550.627     11.373    537.567    548.974    539.219    537.567    537.567
 46.670    507.002    551.165    -44.164    537.541    549.452    539.253    537.541    537.541
 46.770    574.000    551.784     22.216    537.515    550.001    539.297    537.515    537.515
 46.870    550.255    552.502     -2.247    537.491    550.640    539.352    537.491    537.491
 46.970    532.000    553.354    -21.354    537.469    551.400    539.421    537.469    537.469
 47.070    523.000    554.397    -31.397    537.448    552.334    539.509    537.448    537.448
 47.170    495.000    555.747    -60.747    537.428    553.547    539.624    537.428    537.428
 47.270    566.000    557.610      8.390    537.409    555.230    539.784    537.409    537.409
 47.370    572.000    560.338     11.662    537.392    557.708    540.017    537.392    537.392
 47.470    533.568    564.458    -30.890    537.376    561.463    540.363    537.376    537.376
 47.570    542.247    570.625    -28.378    537.361    567.100    540.874    537.361    537.361
 47.670    581.000    579.467      1.533    537.348    575.197    541.599    537.348    537.348
 47.770    605.809    591.277     14.533    537.336    586.023    542.563    537.336    537.336
 47.870    605.308    605.624     -0.316    537.325    599.181    543.732    537.325    537.325
 47.970    608.000    620.920    -12.920    537.315    613.204    544.985    537.315    537.315
 48.070    663.000    634.091     28.909    537.307    625.261    546.084    537.307    537.307
 48.170    583.000    641.164    -58.164    537.300    631.685    546.723    537.300    537.300
 48.270    689.000    639.725     49.275    537.294    630.251    546.715    537.294    537.294
 48.370    611.000    631.124    -20.124    537.289    622.200    546.169    537.289    537.289
 48.470    580.000    619.160    -39.160    537.286    611.028    545.382    537.286    537.286
 48.570    627.000    607.381     19.619    537.283    600.004    544.635    537.283    537.283
 48.670    543.000    597.952    -54.952    537.282    591.116    544.100    537.282    537.282
 48.770    610.000    591.756     18.244    537.282    585.173    543.853    537.282    537.282
 48.870    621.000    588.820     32.180    537.284    582.190    543.905    537.284    537.284
 48.970    621.449    588.737     32.712    537.286    581.782    544.234    537.286    537.286
 49.070    610.000    591.027     18.973    537.290    583.490    544.821    537.290    537.290
 49.170    580.391    595.389    -14.998    537.294    587.014    545.665    537.294    537.294
 49.270    601.000    601.903     -0.903    537.300    592.382    546.816    537.300    537.300
 49.370    593.007    611.316    -18.309    537.307    600.197    548.422    537.307    537.307
 49.470    602.947    625.699    -22.752    537.315    612.168    550.840    537.315    537.315
 49.570    624.000    649.750    -25.750    537.324    632.201    554.863    537.324    537.324
 49.670    666.942    692.808    -25.867    537.335    668.070    562.056    537.335    537.335
 49.770    760.623    770.829    -10.206    537.346    733.054    575.089    537.346    537.346
 49.870    883.101    906.222    -23.122    537.359    845.814    597.712    537.359    537.359
 49.970   1078.000   1122.636    -44.636    537.372   1026.039    633.883    537.372    537.372
 50.070   1308.000   1433.061   -125.061    537.387   1284.552    685.773    537.387    537.387
 50.170   1759.000   1823.754    -64.754    537.402   1609.920    751.084    537.402    537.402
 50.270   2272.000   2240.281     31.719    537.419   1956.837    820.707    537.419    537.419
 50.370   2582.814   2583.765     -0.952    537.437   2242.993    878.093    537.437    537.437
 50.470   2804.000   2735.597     68.403    537.455   2369.643    903.383    537.455    537.455
 50.570   2620.000   2631.177    -11.177    537.475   2283.002    885.736    537.475    537.475
 50.670   2299.159   2318.210    -19.051    537.496   2022.792    833.084    537.496    537.496
 50.770   1988.775   1911.462     77.313    537.518   1684.616    764.565    537.518    537.518
 50.870   1438.000   1516.246    -78.246    537.540   1356.240    697.737    537.540    537.540
 50.970   1158.000   1195.746    -37.746    537.564   1090.346    643.119    537.564    537.564
 51.070    905.000    970.607    -65.607    537.589    904.151    604.161    537.589    537.589
 51.170    820.000    831.348    -11.348    537.614    789.689    579.355    537.614    537.614
 51.270    727.000    754.328    -27.328    537.641    727.080    564.948    537.641    537.641
 51.370    738.901    714.520     24.381    537.668    695.173    557.064    537.668    537.668
 51.470    666.000    692.532    -26.532    537.697    677.293    552.976    537.697    537.697
 51.570    632.000    676.570    -44.570    537.726    663.291    551.040    537.726    537.726
 51.670    680.000    661.858     18.142    537.756    649.253    550.390    537.756    537.756
 51.770    681.618    647.995     33.623    537.787    635.169    550.636    537.787    537.787
 51.870    593.000    635.944    -42.944    537.819    622.244    551.535    537.819    537.819
 51.970    634.000    626.418      7.582    537.852    611.486    552.794    537.852    537.852
 52.070    636.000    619.443     16.557    537.886    603.351    553.984    537.886    537.886
 52.170    568.065    614.466    -46.400    537.920    597.816    554.573    537.920    537.920
 52.270    604.918    610.777     -5.859    537.955    594.584    554.151    537.955    537.955
 52.370    670.000    607.983     62.017    537.992    593.265    552.711    537.992    537.992
 52.470    649.000    606.171     42.829    538.029    593.560    550.641    538.029    538.029
 52.570    599.000    605.746     -6.746    538.067    595.380    548.434    538.067    538.067
 52.670    602.000    607.306     -5.306    538.105    598.952    546.461    538.105    538.105
 52.770    620.000    611.754      8.246    538.145    604.976    544.924    538.145    538.145
 52.870    620.000    620.545     -0.545    538.185    614.844    543.886    538.185    538.185
 52.970    620.459    635.992    -15.534    538.226    630.885    543.332    538.226    538.226
 53.070    686.640    661.446     25.194    538.267    656.488    543.224    538.267    538.267
 53.170    696.000    701.079     -5.079    538.310    695.850    543.535    538.310    538.310
 53.270    790.000    759.028     30.972    538.353    753.112    544.264    538.353    538.353
 53.370    817.715    837.803    -20.088    538.397    830.792    545.402    538.397    538.397
 53.470    993.000    936.205     56.795    538.442    927.738    546.904    538.442    538.442
 53.570   1094.159   1047.063     47.096    538.487   1036.913    548.636    538.487    538.487
 53.670   1147.504   1155.142     -7.638    538.533   1143.339    550.342    538.533    538.533
 53.770   1221.958   1236.746    -14.788    538.580   1223.716    551.627    538.580    538.580
 53.870   1293.000   1266.334     26.666    538.627   1252.921    552.069    538.627    538.627
 53.970   1209.000   1232.658    -23.658    538.675   1219.887    551.480    538.675    538.675
 54.070   1137.000   1148.605    -11.605    538.724   1137.293    550.072    538.724    538.724
 54.170    968.000   1040.203    -72.203    538.773   1030.738    548.271    538.773    538.773
 54.270    930.000    930.662     -0.662    538.823    923.059    546.454    538.823    538.823
 54.370    806.000    834.466    -28.466    538.874    828.534    544.827    538.874    538.874
 54.470    748.000    758.236    -10.236    538.925    753.633    543.543    538.925    538.925
 54.570    691.000    702.761    -11.761    538.977    699.120    542.628    538.977    538.977
 54.670    666.000    665.240      0.760    539.029    662.263    542.014    539.029    539.029
 54.770    613.460    641.404    -27.944    539.082    638.864    541.626    539.082    539.082
 54.870    657.000    627.024     29.976    539.136    624.767    541.396    539.136    539.136
 54.970    594.520    618.739    -24.218    539.190    616.665    541.266    539.190    539.190
 55.070    663.000    614.254     48.746    539.244    612.301    541.200    539.244    539.244
 55.170    593.000    612.188    -19.188    539.300    610.317    541.172    539.300    539.300
 55.270    610.000    611.793     -1.793    539.355    609.979    541.170    539.355    539.355
 55.370    605.000    612.713     -7.713    539.411    610.938    541.188    539.411    539.411
 55.470    619.000    614.819      4.181    539.468    613.068    541.220    539.468    539.468
 55.570    611.000    618.128     -7.128    539.525    616.387    541.267    539.525    539.525
 55.670    632.000    622.778      9.222    539.583    621.034    541.328    539.583    539.583
 55.770    635.000    629.079      5.921    539.641    627.318    541.402    539.641    539.641
 55.870    655.000    637.642     17.358    539.700    635.848    541.494    539.700    539.700
 55.970    607.835    649.655    -41.819    539.759    647.804    541.609    539.759    539.759
 56.070    703.358    667.346     36.013    539.818    665.404    541.757    539.818    539.818
 56.170    676.528    694.665    -18.137    539.878    692.579    541.959    539.878    539.878
 56.270    773.298    738.034     35.264    539.938    735.717    542.245    539.938    539.938
 56.370    826.686    806.799     19.887    539.999    804.117    542.664    539.999    539.999
 56.470    929.000    912.742     16.258    540.060    909.501    543.273    540.060    540.060
 56.570   1108.285   1067.985     40.300    540.122   1063.933    544.134    540.122    540.122
 56.670   1325.160   1280.979     44.181    540.183   1275.823    545.289    540.183    540.183
 56.770   1560.404   1551.060      9.343    540.246   1544.516    546.735    540.246    540.246
 56.870   1930.883   1862.676     68.207    540.308   1854.540    548.396    540.308    540.308
 56.970   2133.522   2180.463    -46.941    540.371   2170.712    550.097    540.371    540.371
 57.070   2518.000   2447.800     70.200    540.434   2436.698    551.559    540.434    540.434
 57.170   2697.000   2597.492     99.508    540.498   2585.631    552.448    540.498    540.498
 57.270   2630.000   2582.883     47.117    540.562   2571.069    552.536    540.562    540.562
 57.370   2474.000   2409.553     64.447    540.626   2398.533    551.853    540.626    540.626
 57.470   2164.000   2130.794     33.206    540.690   2121.036    550.669    540.690    540.690
 57.570   1834.360   1813.286     21.074    540.755   1804.923    549.324    540.755    540.755
 57.670   1407.000   1510.025   -103.025    540.820   1502.923    548.096    540.820    540.820
 57.770   1249.839   1252.709     -2.870    540.885   1246.557    547.172    540.885    540.885
 57.870   1045.570   1054.132     -8.562    540.950   1048.507    546.673    540.950    540.950
 57.970    948.000    913.453     34.547    541.016    907.828    546.707    541.016    541.016
 58.070    835.000    822.168     12.832    541.082    815.861    547.429    541.082    541.082
 58.170    755.000    769.532    -14.532    541.148    761.605    549.097    541.148    541.148
 58.270    771.000    746.341     24.659    541.214    735.468    552.093    541.214    541.214
 58.370    699.025    746.600    -47.576    541.281    730.996    556.880    541.281    541.281
 58.470    745.000    767.373    -22.373    541.347    744.853    563.850    541.347    541.347
 58.570    848.000    807.460     40.540    541.414    775.741    573.105    541.414    541.414
 58.670    830.000    865.608    -35.608    541.481    822.848    584.205    541.481    541.481
 58.770    957.832    938.736     19.096    541.548    884.274    595.969    541.548    541.548
 58.870    993.000   1020.638    -27.638    541.615    955.764    606.449    541.615    541.615
 58.970   1121.000   1101.928     19.072    541.683   1030.337    613.242    541.683    541.683
 59.070   1203.236   1172.457     30.778    541.750   1099.798    614.392    541.750    541.750
 59.170   1202.000   1225.135    -23.135    541.818   1157.386    609.567    541.818    541.818
 59.270   1262.000   1256.762      5.238    541.885   1198.357    600.309    541.885    541.885
 59.370   1253.538   1265.529    -11.991    541.953   1218.490    589.025    541.953    541.953
 59.470   1230.000   1251.306    -21.306    542.021   1215.494    577.875    542.021    542.021
 59.570   1292.000   1219.652     72.348    542.088   1193.498    568.281    542.088    542.088
 59.670   1220.000   1182.527     37.473    542.156   1163.816    560.889    542.156    542.156
 59.770   1126.000   1153.331    -27.331    542.224   1139.833    555.714    542.224    542.224
 59.870   1148.000   1142.114      5.886    542.292   1131.981    552.378    542.292    542.292
 59.970   1089.257   1154.718    -65.461    542.360   1146.626    550.362    542.360    542.360
 60.070   1257.000   1194.061     62.939    542.428   1187.162    549.189    542.428    542.428
 60.170   1291.000   1259.992     31.008    542.496   1253.783    548.519    542.496    542.496
 60.270   1328.098   1346.567    -18.469    542.564   1340.760    548.143    542.564    542.564
 60.370   1435.000   1439.313     -4.313    542.631   1433.747    547.939    542.631    542.631
 60.470   1594.000   1515.264     78.736    542.699   1509.863    547.833    542.699    542.699
 60.570   1634.000   1548.253     85.747    542.767   1542.996    547.774    542.767    542.767
 60.670   1477.000   1520.744    -43.744    542.834   1515.634    547.734    542.834    542.834
 60.770   1501.000   1434.578     66.422    542.902   1429.611    547.709    542.902    542.902
 60.870   1419.000   1309.005    109.995    542.969   1304.147    547.715    542.969    542.969
 60.970   1132.503   1168.885    -36.382    543.037   1164.068    547.779    543.037    543.037
 61.070   1016.455   1035.086    -18.631    543.104   1030.207    547.935    543.104    543.104
 61.170    942.000    921.185     20.815    543.171    916.101    548.225    543.171    543.171
 61.270    864.000    833.791     30.209    543.238    828.298    548.710    543.238    543.238
 61.370    789.000    774.300     14.700    543.305    768.089    549.494    543.305    543.305
 61.470    772.000    741.233     30.767    543.372    733.835    550.745    543.372    543.372
 61.570    795.000    732.551     62.449    543.438    723.245    552.710    543.438    543.438
 61.670    820.000    747.264     72.736    543.505    734.995    555.726    543.505    543.505
 61.770    830.000    785.936     44.064    543.571    769.262    560.180    543.571    543.571
 61.870    828.000    849.985    -21.985    543.637    827.101    566.432    543.637    543.637
 61.970    939.000    940.028     -1.028    543.703    908.927    574.688    543.703    543.703
 62.070   1128.000   1053.761     74.239    543.768   1012.546    584.840    543.768    543.768
 62.170   1181.000   1183.921     -2.921    543.833   1131.268    596.318    543.833    543.833
 62.270   1333.000   1316.800     16.200    543.899   1252.532    607.981    543.899    543.899
 62.370   1453.000   1431.988     21.012    543.963   1357.658    618.107    543.963    543.963
 62.470   1472.000   1505.298    -33.298    544.028   1424.513    624.644    544.028    544.028
 62.570   1468.000   1517.245    -49.245    544.092   1435.263    625.938    544.092    544.092
 62.670   1471.000   1463.897      7.103    544.156   1386.296    621.659    544.156    544.156
 62.770   1304.000   1359.611    -55.611    544.220   1290.736    613.032    544.220    544.220
 62.870   1143.000   1228.165    -85.165    544.283   1170.323    602.088    544.283    544.283
 62.970   1065.000   1092.050    -27.050    544.346   1045.630    590.747    544.346    544.346
 63.070   1008.370    967.424     40.947    544.409    931.435    580.390    544.409    544.409
 63.170    818.000    863.448    -45.448    544.472    836.114    571.801    544.472    544.472
 63.270    703.000    783.295    -80.295    544.534    762.571    565.255    544.534    544.534
 63.370    741.442    725.784     15.658    544.595    709.719    560.657    544.595    544.595
 63.470    668.235    687.244    -19.010    544.657    674.195    557.700    544.657    544.657
 63.570    661.904    663.234     -1.330    544.718    651.929    556.015    544.718    544.718
 63.670    661.000    649.767     11.233    544.778    639.260    555.276    544.778    544.778
 63.770    640.487    644.061     -3.575    544.839    633.612    555.275    544.839    544.839
 63.870    618.000    644.649    -26.649    544.898    633.591    555.942    544.898    544.898
 63.970    647.848    651.400     -3.552    544.958    638.973    557.365    544.958    544.958
 64.070    713.000    665.305     47.695    545.017    650.489    559.807    545.017    545.017
 64.170    653.955    688.176    -34.221    545.075    669.510    563.706    545.075    545.075
 64.270    773.055    722.202     50.854    545.133    697.635    569.652    545.133    545.133
 64.370    806.000    769.337     36.663    545.191    736.143    578.321    545.191    545.191
 64.470    875.000    830.517     44.483    545.248    785.347    590.333    545.248    545.248
 64.570    877.037    904.765    -27.728    545.305    843.915    606.049    545.305    545.305
 64.670   1019.000    988.316     30.684    545.361    908.230    625.319    545.361    545.361
 64.770   1096.000   1073.908     22.092    545.416    971.937    647.241    545.416    545.416
 64.870   1114.803   1150.806    -36.003    545.472   1026.136    669.986    545.472    545.472
 64.970   1208.000   1206.609      1.391    545.526   1061.244    690.737    545.526    545.526
 65.070   1294.128   1231.184     62.945    545.580   1070.670    705.955    545.580    545.580
 65.170   1257.000   1220.542     36.458    545.634   1053.785    712.276    545.634    545.634
 65.270   1161.000   1178.128    -17.128    545.687   1015.681    708.051    545.687    545.687
 65.370   1154.000   1113.299     40.701    545.739    964.635    694.351    545.739    545.739
 65.470   1016.000   1037.778    -21.778    545.791    909.217    674.328    545.791    545.791
 65.570    943.000    961.928    -18.928    545.842    856.133    651.635    545.842    545.842
 65.670    852.112    892.681    -40.568    545.893    809.289    629.298    545.893    545.893
 65.770    845.733    833.332     12.401    545.943    769.948    609.350    545.943    545.943
 65.870    772.000    784.445    -12.445    545.993    737.608    592.857    545.993    545.993
 65.970    738.000    745.160     -7.160    546.042    711.136    580.093    546.042    546.042
 66.070    737.132    714.212     22.920    546.090    689.558    570.767    546.090    546.090
 66.170    651.000    690.336    -39.336    546.137    672.214    564.279    546.137    546.137
 66.270    686.000    672.337     13.663    546.184    658.604    559.932    546.184    546.184
 66.370    657.000    659.151     -2.151    546.231    648.308    557.083    546.231    546.231
 66.470    675.710    649.913     25.796    546.276    640.974    555.222    546.276    546.276
 66.570    599.000    643.987    -44.987    546.321    636.327    553.984    546.321    546.321
 66.670    632.000    640.931     -8.931    546.366    634.167    553.132    546.366    546.366
 66.770    631.000    640.490     -9.490    546.409    634.379    552.521    546.409    546.409
 66.870    603.646    642.615    -38.969    546.452    636.997    552.071    546.452    546.452
 66.970    681.782    647.561     34.221    546.494    642.319    551.737    546.494    546.494
 67.070    622.000    656.054    -34.054    546.536    651.086    551.504    546.536    546.536
 67.170    627.000    669.520    -42.520    546.576    664.727    551.370    546.576    546.576
 67.270    654.000    690.371    -36.371    546.616    685.636    551.350    546.616    546.616
 67.370    724.000    722.260      1.740    546.655    717.438    551.475    546.655    546.655
 67.470    733.000    770.211    -37.211    546.694    765.109    551.790    546.694    546.694
 67.570    828.000    840.425    -12.425    546.732    834.794    552.354    546.732    546.732
 67.670    964.546    939.591     24.955    546.768    933.118    553.230    546.768    546.768
 67.770   1044.528   1073.594    -29.066    546.805   1065.909    554.476    546.805    546.805
 67.870   1221.414   1245.666    -24.252    546.840   1236.373    556.122    546.840    546.840
 67.970   1380.016   1454.271    -74.256    546.874   1442.993    558.150    546.874    546.874
 68.070   1755.000   1691.061     63.939    546.908   1677.510    560.475    546.908    546.908
 68.170   1914.000   1939.242    -25.242    546.941   1923.304    562.924    546.941    546.941
 68.270   2168.263   2172.760     -4.498    546.973   2154.587    565.234    546.973    546.973
 68.370   2351.000   2357.758     -6.758    547.004   2337.843    567.061    547.004    547.004
 68.470   2500.000   2459.375     40.625    547.035   2438.563    568.050    547.035    547.035
 68.570   2431.000   2454.868    -23.868    547.064   2434.217    567.972    547.064    547.064
 68.670   2346.000   2345.359      0.641    547.093   2325.907    566.836    547.093    547.093
 68.770   2224.544   2155.158     69.387    547.120   2137.691    564.888    547.120    547.120
 68.870   1891.028   1919.417    -28.389    547.147   1904.367    562.483    547.147    547.147
 68.970   1672.000   1671.471      0.529    547.173   1658.940    559.958    547.173    547.173
 69.070   1429.000   1436.608     -7.608    547.198   1426.452    557.569    547.198    547.198
 69.170   1213.000   1230.882    -17.882    547.222   1222.800    555.477    547.222    547.222
 69.270   1072.188   1062.015     10.172    547.246   1055.633    553.761    547.246    547.246
 69.370    888.000    931.070    -43.070    547.268    926.005    552.431    547.268    547.268
 69.470    853.000    834.510     18.490    547.289    830.419    551.451    547.289    547.289
 69.570    806.000    766.314     39.686    547.310    762.913    550.759    547.310    547.310
 69.670    770.000    719.769     50.231    547.329    716.843    550.289    547.329    547.329
 69.770    641.551    688.715    -47.164    547.348    686.113    549.974    547.348    547.348
 69.870    695.962    668.187     27.775    547.365    665.799    549.770    547.365    547.365
 69.970    683.000    654.546     28.454    547.382    652.302    549.638    547.382    547.382
 70.070    664.000    645.342     18.658    547.397    643.195    549.552    547.397    547.397
 70.170    649.000    639.029      9.971    547.412    636.949    549.498    547.412    547.412
 70.270    645.000    634.694     10.306    547.425    632.659    549.465    547.425    547.425
 70.370    632.000    631.824      0.176    547.438    629.816    549.449    547.438    547.438
 70.470    674.119    630.157     43.962    547.450    628.161    549.447    547.450    547.450
 70.570    627.000    629.596     -2.596    547.460    627.596    549.459    547.460    547.460
 70.670    598.438    630.172    -31.734    547.470    628.154    549.485    547.470    547.470
 70.770    655.000    632.062     22.938    547.478    630.007    549.530    547.478    547.478
 70.870    614.013    635.638    -21.624    547.485    633.521    549.597    547.485    547.485
 70.970    621.000    641.560    -20.560    547.492    639.347    549.696    547.492    547.492
 71.070    602.696    650.911    -48.215    547.497    648.552    549.844    547.497    547.497
 71.170    687.000    665.343     21.657    547.501    662.763    550.064    547.501    547.501
 71.270    697.000    687.210      9.790    547.504    684.300    550.390    547.504    547.504
 71.370    711.873    719.614     -7.740    547.506    716.220    550.866    547.506    547.506
 71.470    772.251    766.286      5.965    547.507    762.200    551.545    547.507    547.507
 71.570    863.000    831.208     31.792    547.507    826.163    552.484    547.507    547.507
 71.670    949.000    917.940     31.060    547.506    911.620    553.735    547.506    547.506
 71.770    986.000   1028.678    -42.678    547.504   1020.733    555.330    547.504    547.504
 71.870   1189.000   1163.157     25.843    547.500   1153.243    557.264    547.500    547.500
 71.970   1287.890   1317.588    -29.698    547.496   1305.416    559.485    547.496    547.496
 72.070   1426.037   1483.768    -57.731    547.490   1469.168    561.878    547.490    547.490
 72.170   1699.000   1648.474     50.526    547.483   1631.467    564.256    547.483    547.483
 72.270   1707.000   1793.500    -86.500    547.475   1774.369    566.361    547.475    547.475
 72.370   1932.000   1897.491     34.509    547.466   1876.827    567.891    547.466    547.466
 72.470   1965.898   1941.239     24.659    547.455   1919.906    568.573    547.455    547.455
 72.570   1899.000   1915.531    -16.531    547.444   1894.519    568.278    547.444    547.444
 72.670   1788.632   1825.877    -37.245    547.431   1806.090    567.083    547.431    547.431
 72.770   1653.000   1689.509    -36.509    547.417   1671.598    565.234    547.417    547.417
 72.870   1518.039   1527.754     -9.715    547.402   1512.065    563.031    547.402    547.402
 72.970   1431.155   1359.892     71.263    547.386   1346.502    560.743    547.386    547.386
 73.070   1208.000   1200.527      7.473    547.369   1189.308    558.571    547.369    547.369
 73.170   1059.000   1059.175     -0.175    547.350   1049.878    556.642    547.350    547.350
 73.270    975.278    940.743     34.535    547.330    933.055    555.018    547.330    547.330
 73.370    879.000    846.354     32.646    547.309    839.954    553.712    547.309    547.309
 73.470    799.000    774.396     24.604    547.286    768.981    552.705    547.286    547.286
 73.570    729.509    721.620      7.889    547.263    716.924    551.960    547.263    547.263
 73.670    633.766    684.135    -50.369    547.238    679.934    551.439    547.238    547.238
 73.770    685.038    658.156     26.882    547.212    654.262    551.107    547.212    547.212
 73.870    599.000    640.453    -41.453    547.185    636.702    550.935    547.185    547.185
 73.970    667.391    628.532     38.859    547.156    624.778    550.911    547.156    547.156
 74.070    601.000    620.624    -19.624    547.126    616.724    551.029    547.126    547.126
 74.170    580.000    615.559    -35.559    547.095    611.367    551.292    547.095    547.095
 74.270    623.521    612.601     10.920    547.063    607.966    551.705    547.063    547.063
 74.370    630.000    611.289     18.711    547.029    606.059    552.270    547.029    547.029
 74.470    602.662    611.305     -8.643    546.994    605.333    552.981    546.994    546.994
 74.570    635.199    612.374     22.826    546.958    605.535    553.817    546.958    546.958
 74.670    602.000    614.196    -12.196    546.921    606.406    554.736    546.921    546.921
 74.770    652.000    616.406     35.594    546.882    607.641    555.678    546.882    546.882
 74.870    656.000    618.557     37.443    546.842    608.875    556.560    546.842    546.842
 74.970    629.143    620.140      9.003    546.800    609.697    557.284    546.800    546.800
 75.070    710.000    620.679     89.321    546.758    609.722    557.758    546.758    546.758
 75.170    648.000    619.889     28.111    546.713    608.717    557.930    546.713    546.713
 75.270    628.895    617.807     11.088    546.668    606.701    557.816    546.668    546.668
 75.370    612.467    614.803     -2.337    546.621    603.957    557.506    546.621    546.621
 75.470    674.000    611.464     62.536    546.573    600.933    557.137    546.573    546.573
 75.570    666.000    608.456     57.544    546.524    598.136    556.870    546.524    546.524
 75.670    623.913    606.455     17.458    546.473    596.074    556.874    546.473    546.473
 75.770    650.000    606.132     43.868    546.421    595.240    557.325    546.421    546.421
 75.870    623.000    608.156     14.844    546.368    596.119    558.409    546.368    546.368
 75.970    654.972    613.186     41.786    546.313    599.181    560.315    546.313    546.313
 76.070    571.106    621.840    -50.734    546.257    604.859    563.226    546.257    546.257
 76.170    640.000    634.621      5.379    546.199    613.502    567.298    546.199    546.199
 76.270    691.898    651.822     40.075    546.140    625.308    572.625    546.140    546.140
 76.370    695.000    673.400     21.600    546.080    640.239    579.202    546.080    546.080
 76.470    677.000    698.845    -21.845    546.018    657.926    586.889    546.018    546.018
 76.570    709.882    727.075    -17.193    545.955    677.600    595.372    545.955    545.955
 76.670    787.165    756.339     30.826    545.891    698.023    604.141    545.891    545.891
 76.770    815.000    784.185     30.815    545.825    717.463    612.475    545.825    545.825
 76.870    783.000    807.534    -24.534    545.758    733.749    619.468    545.758    545.758
 76.970    857.114    823.072     34.042    545.689    744.542    624.144    545.689    545.689
 77.070    837.000    828.107      8.893    545.619    747.948    625.707    545.619    545.619
 77.170    867.996    821.608     46.388    545.548    743.238    623.854    545.548    545.548
 77.270    846.707    804.704     42.004    545.475    731.203    618.919    545.475    545.475
 77.370    807.000    780.141     26.859    545.401    713.779    611.715    545.401    545.401
 77.470    749.000    751.216     -2.216    545.325    693.285    603.218    545.325    545.325
 77.570    732.953    720.945     12.008    545.248    671.844    594.318    545.248    545.248
 77.670    667.000    691.690    -24.690    545.169    651.121    585.715    545.169    545.169
 77.770    634.415    665.094    -30.679    545.089    632.272    577.894    545.089    545.089
 77.870    606.868    642.126    -35.258    545.008    615.977    571.143    545.008    545.008
 77.970    605.000    623.170    -18.170    544.925    602.509    565.576    544.925    544.925
 78.070    572.000    608.152    -36.152    544.841    591.814    561.172    544.841    544.841
 78.170    593.000    596.684     -3.684    544.755    583.618    557.816    544.755    544.755
 78.270    565.512    588.204    -22.691    544.668    577.525    555.343    544.668    544.668
 78.370    565.000    582.098    -17.098    544.580    573.102    553.572    544.580    544.580
 78.470    530.730    577.789    -47.060    544.490    569.942    552.334    544.490    544.490
 78.570    575.000    574.789      0.211    544.398    567.700    551.484    544.398    544.398
 78.670    582.000    572.713      9.287    544.306    566.105    550.911    544.306    544.306
 78.770    579.000    571.283      7.717    544.211    564.961    550.532    544.211    544.211
 78.870    569.000    570.310     -1.310    544.116    564.131    550.292    544.116    544.116
 78.970    545.000    569.672    -24.672    544.018    563.532    550.157    544.018    544.018
 79.070    586.933    569.301     17.632    543.920    563.112    550.107    543.920    543.920
 79.170    602.259    569.164     33.095    543.820    562.847    550.134    543.820    543.820
 79.270    556.000    569.256    -13.256    543.718    562.732    550.240    543.718    543.718
 79.370    525.000    569.593    -44.593    543.615    562.773    550.433    543.615    543.615
 79.470    529.085    570.212    -41.127    543.510    562.988    550.732    543.510    543.510
 79.570    551.000    571.170    -20.170    543.404    563.403    551.169    543.404    543.404
 79.670    570.000    572.552     -2.552    543.297    564.053    551.793    543.297    543.297
 79.770    578.817    574.481      4.336    543.188    564.983    552.682    543.188    543.188
 79.870    571.197    577.131     -5.935    543.078    566.249    553.956    543.078    543.078
 79.970    536.922    580.749    -43.828    542.966    567.925    555.784    542.966    542.966
 80.070    572.000    585.673    -13.673    542.852    570.108    558.410    542.852    542.852
 80.170    608.000    592.350     15.650    542.738    572.925    562.154    542.738    542.738
 80.270    593.327    601.342     -8.016    542.621    576.534    567.419    542.621    542.621
 80.370    620.000    613.311      6.689    542.504    581.129    574.672    542.504    542.504
 80.470    638.614    628.973      9.641    542.384    586.934    584.408    542.384    542.384
 80.570    647.000    649.032     -2.032    542.264    594.194    597.084    542.264    542.264
 80.670    699.000    674.083     24.917    542.142    603.169    613.036    542.142    542.142
 80.770    707.000    704.482      2.518    542.018    614.106    632.373    542.018    542.018
 80.870    748.000    740.196      7.804    541.893    627.192    654.876    541.893    541.893
 80.970    791.000    780.623     10.377    541.766    642.476    679.895    541.766    541.766
 81.070    868.259    824.450     43.809    541.638    659.789    706.284    541.638    541.638
 81.170    872.000    869.574      2.426    541.509    678.681    732.393    541.509    541.509
 81.270    896.382    913.162    -16.780    541.378    698.401    756.138    541.378    541.378
 81.370    999.660    951.944     47.716    541.245    717.953    775.246    541.245    541.245
 81.470   1020.630    982.768     37.862    541.111    736.225    787.676    541.111    541.111
 81.570   1025.000   1003.262     21.738    540.976    752.172    792.100    540.976    540.976
 81.670   1057.000   1012.242     44.758    540.839    764.944    788.183    540.839    540.839
 81.770   1073.000   1009.722     63.278    540.701    773.948    776.532    540.701    540.701
 81.870   1081.000    996.719     84.281    540.561    778.874    758.473    540.561    540.561
 81.970   1010.394    975.024     35.370    540.419    779.691    735.827    540.419    540.419
 82.070   1042.000    946.850     95.150    540.277    776.560    710.646    540.277    540.277
 82.170    900.000    914.423    -14.423    540.132    769.730    684.908    540.132    540.132
 82.270    843.140    879.721    -36.582    539.987    759.534    660.257    539.987    539.987
 82.370    854.000    844.443      9.557    539.839    746.498    637.866    539.839    539.839
 82.470    777.000    810.026    -33.026    539.691    731.377    618.418    539.691    539.691
 82.570    831.116    777.569     53.547    539.541    715.023    602.162    539.541    539.541
 82.670    710.139    747.700    -37.561    539.389    698.159    589.000    539.389    539.389
 82.770    748.000    720.764     27.236    539.236    681.431    578.632    539.236    539.236
 82.870    724.000    696.689     27.311    539.081    665.209    570.618    539.081    539.081
 82.970    658.000    675.348    -17.348    538.925    649.824    564.500    538.925    538.925
 83.070    639.000    656.669    -17.669    538.768    635.620    559.860    538.768    538.768
 83.170    616.000    640.647    -24.647    538.609    622.937    556.355    538.609    538.609
 83.270    657.000    627.306     29.694    538.449    612.064    553.718    538.449    538.449
 83.370    604.113    616.656    -12.543    538.287    603.207    551.756    538.287    538.287
 83.470    603.000    608.668     -5.668    538.124    596.471    550.332    538.124    538.124
 83.570    588.107    603.262    -15.155    537.959    591.870    549.354    537.959    537.959
 83.670    569.373    600.295    -30.922    537.793    589.328    548.756    537.793    537.793
 83.770    547.000    599.548    -52.548    537.625    588.679    548.483    537.625    537.625
 83.870    558.000    600.716    -42.716    537.456    589.671    548.483    537.456    537.456
 83.970    581.941    603.400    -21.460    537.286    591.963    548.696    537.286    537.286
 84.070    576.000    607.108    -31.108    537.114    595.136    549.053    537.114    537.114
 84.170    612.000    611.263      0.737    536.941    598.696    549.470    536.941    536.941
 84.270    574.000    615.220    -41.220    536.766    602.091    549.852    536.766    536.766
 84.370    593.000    618.309    -25.309    536.590    604.753    550.100    536.590    536.590
 84.470    650.644    619.923     30.721    536.412    606.165    550.124    536.412    536.412
 84.570    574.531    619.636    -45.105    536.233    605.963    549.860    536.233    536.233
 84.670    649.000    617.317     31.683    536.053    604.036    549.291    536.053    536.053
 84.770    611.964    613.158     -1.195    535.871    600.540    548.450    535.871    535.871
 84.870    651.433    607.589     43.844    535.688    595.836    547.405    535.688    535.688
 84.970    556.636    601.142    -44.506    535.503    590.368    546.246    535.503    535.503
 85.070    636.000    594.352     41.648    535.317    584.581    545.062    535.317    535.317
 85.170    618.962    587.678     31.284    535.130    578.849    543.937    535.130    535.130
 85.270    528.000    581.485    -53.485    534.941    573.467    542.941    534.941    534.941
 85.370    561.000    576.040    -15.040    534.751    568.639    542.136    534.751    534.751
 85.470    503.000    571.515    -68.515    534.559    564.485    541.575    534.559    534.559
 85.570    606.294    568.000     38.294    534.366    561.053    541.302    534.366    534.366
 85.670    578.923    565.522     13.401    534.172    558.331    541.352    534.172    534.172
 85.770    537.000    564.058    -27.058    533.976    556.268    541.756    533.976    533.976
 85.870    585.000    563.556     21.444    533.779    554.792    542.533    533.779    533.779
 85.970    573.000    563.952      9.048    533.581    553.829    543.693    533.581    533.581
 86.070    511.000    565.173    -54.173    533.381    553.317    545.224    533.381    533.381
 86.170    593.000    567.144     25.856    533.180    553.214    547.096    533.180    533.180
 86.270    598.644    569.794     28.850    532.978    553.508    549.247    532.978    532.978
 86.370    543.039    573.047    -30.008    532.774    554.219    551.583    532.774    532.774
 86.470    587.000    576.829     10.171    532.569    555.399    553.977    532.569    532.569
 86.570    551.497    581.062    -29.565    532.362    557.135    556.264    532.362    532.362
 86.670    564.047    585.665    -21.619    532.155    559.540    558.251    532.155    532.155
 86.770    567.000    590.566    -23.566    531.946    562.743    559.734    531.946    531.946
 86.870    606.000    595.716     10.284    531.735    566.885    560.527    531.735    531.735
 86.970    620.968    601.124     19.844    531.524    572.093    560.509    531.524    531.524
 87.070    625.000    606.864     18.136    531.311    578.464    559.659    531.311    531.311
 87.170    655.312    613.063     42.249    531.097    586.040    558.059    531.097    531.097
 87.270    652.146    619.841     32.305    530.881    594.783    555.869    530.881    530.881
 87.370    630.046    627.244      2.802    530.664    604.547    553.280    530.664    530.664
 87.470    673.269    635.188     38.082    530.446    615.062    550.481    530.446    530.446
 87.570    643.000    643.428     -0.428    530.227    625.919    547.634    530.227    530.227
 87.670    724.000    651.542     72.458    530.007    636.564    544.873    530.007    530.007
 87.770    646.000    658.943    -12.943    529.785    646.312    542.296    529.785    529.785
 87.870    745.000    664.923     80.077    529.562    654.390    539.969    529.562    529.562
 87.970    672.000    668.767      3.233    529.338    660.050    537.927    529.338    529.338
 88.070    736.000    669.919     66.081    529.112    662.727    536.179    529.112    529.112
 88.170    738.000    668.157     69.843    528.886    662.212    534.711    528.886    528.886
 88.270    653.933    663.670     -9.737    528.658    658.720    533.498    528.658    528.658
 88.370    616.000    656.995    -40.995    528.429    652.818    532.507    528.429    528.429
 88.470    690.923    648.864     42.059    528.198    645.274    531.704    528.198    528.198
 88.570    622.646    640.066    -17.420    527.967    636.907    531.056    527.967    527.967
 88.670    687.000    631.350     55.650    527.734    628.494    530.535    527.734    527.734
 88.770    641.310    623.378     17.932    527.501    620.720    530.117    527.501    527.501
 88.870    575.653    616.691    -41.038    527.266    614.144    529.783    527.266    527.266
 88.970    611.000    611.684     -0.684    527.030    609.176    529.521    527.030    527.030
 89.070    626.000    608.588     17.412    526.792    606.056    529.317    526.792    526.792
 89.170    594.000    607.460    -13.460    526.554    604.856    529.162    526.554    526.554
 89.270    598.781    608.194     -9.413    526.315    605.476    529.046    526.315    526.315
 89.370    618.000    610.524      7.476    526.074    607.663    528.958    526.074    526.074
 89.470    599.000    614.053    -15.053    525.832    611.030    528.886    525.832    525.832
 89.570    628.000    618.262      9.738    525.590    615.074    528.816    525.590    525.590
 89.670    663.696    622.542     41.154    525.346    619.202    528.732    525.346    525.346
 89.770    608.256    626.237    -17.981    525.101    622.773    528.617    525.101    525.101
 89.870    655.000    628.707     26.293    524.855    625.165    528.455    524.855    524.855
 89.970    621.166    629.435     -8.269    524.608    625.873    528.231    524.608    524.608
 90.070    656.000    628.127     27.873    524.360    624.610    527.940    524.360    524.360
 90.170    640.239    624.776     15.464    524.111    621.368    527.581    524.111    524.111
 90.270    585.178    619.640    -34.462    523.861    616.395    527.166    523.861    523.861
 90.370    558.000    613.153    -55.153    523.609    610.112    526.707    523.609    523.609
 90.470    624.134    605.816     18.318    523.357    603.004    526.221    523.357    523.357
 90.570    570.642    598.110    -27.468    523.104    595.538    525.722    523.104    523.104
 90.670    563.000    590.457    -27.457    522.850    588.123    525.224    522.850    522.850
 90.770    586.000    583.194      2.806    522.595    581.084    524.738    522.595    522.595
 90.870    561.000    576.567    -15.567    522.339    574.664    524.270    522.339    522.339
 90.970    585.000    570.739     14.261    522.082    569.017    523.826    522.082    522.082
 91.070    535.000    565.792    -30.792    521.824    564.224    523.408    521.824    521.824
 91.170    572.000    561.744     10.256    521.565    560.304    523.018    521.565    521.565
 91.270    533.000    558.564    -25.564    521.306    557.226    522.653    521.306    521.306
 91.370    550.797    556.189     -5.393    521.045    554.928    522.312    521.045    521.045
 91.470    582.398    554.543     27.855    520.783    553.336    521.993    520.783    520.783
 91.570    516.000    553.548    -37.548    520.521    552.378    521.693    520.521    520.521
 91.670    547.000    553.147     -6.147    520.258    551.994    521.411    520.258    520.258
 91.770    535.033    553.304    -18.271    519.994    552.151    521.145    519.994    519.994
 91.870    536.000    554.014    -18.014    519.729    552.845    520.894    519.729    519.729
 91.970    579.000    555.312     23.688    519.463    554.109    520.661    519.463    519.463
 92.070    559.425    557.264      2.162    519.196    556.007    520.446    519.196    519.196
 92.170    533.000    559.974    -26.974    518.929    558.642    520.252    518.929    518.929
 92.270    514.987    563.577    -48.589    518.661    562.143    520.083    518.661    518.661
 92.370    565.000    568.228     -3.228    518.392    566.663    519.942    518.392    518.392
 92.470    598.999    574.095     24.904    518.122    572.366    519.834    518.122    518.122
 92.570    609.000    581.347     27.653    517.852    579.416    519.761    517.852    517.852
 92.670    569.000    590.132    -21.132    517.581    587.959    519.727    517.581    517.581
 92.770    595.000    600.564     -5.564    517.309    598.109    519.731    517.309    517.309
 92.870    640.000    612.705     27.295    517.036    609.929    519.774    517.036    517.036
 92.970    622.000    626.548     -4.548    516.763    623.414    519.851    516.763    516.763
 93.070    611.000    642.000    -31.000    516.489    638.480    519.957    516.489    516.489
 93.170    699.000    658.875     40.125    516.215    654.946    520.084    516.215    516.215
 93.270    727.496    676.879     50.616    515.939    672.531    520.221    515.939    515.939
 93.370    686.000    695.616     -9.616    515.664    690.849    520.358    515.664    515.664
 93.470    703.000    714.598    -11.598    515.387    709.425    520.483    515.387    515.387
 93.570    697.000    733.297    -36.297    515.110    727.737    520.587    515.110    515.110
 93.670    731.000    751.225    -20.225    514.832    745.304    520.668    514.832    514.832
 93.770    746.565    768.054    -21.489    514.554    761.788    520.733    514.554    514.554
 93.870    804.004    783.695     20.309    514.275    777.079    520.803    514.275    514.275
 93.970    856.000    798.300     57.700    513.996    791.297    520.911    513.996    513.996
 94.070    849.000    812.258     36.742    513.716    804.783    521.104    513.716    513.716
 94.170    800.000    825.929    -25.929    513.436    817.850    521.427    513.436    513.436
 94.270    829.624    839.602     -9.978    513.155    830.743    521.929    513.155    513.155
 94.370    815.797    853.425    -37.628    512.874    843.569    522.646    512.874    512.874
 94.470    876.000    867.415      8.585    512.592    856.321    523.604    512.592    512.592
 94.570    872.000    881.522     -9.522    512.310    868.943    524.809    512.310    512.310
 94.670    877.000    895.682    -18.682    512.027    881.385    526.246    512.027    512.027
 94.770    864.610    909.804    -45.194    511.744    893.597    527.876    511.744    511.744
 94.870    921.000    923.689     -2.689    511.461    905.442    529.636    511.461    511.461
 94.970    958.985    936.918     22.067    511.177    916.590    531.437    511.177    511.177
 95.070   1002.000    948.769     53.231    510.893    926.431    533.168    510.893    510.893
 95.170    962.000    958.223      3.777    510.608    934.071    534.703    510.608    510.608
 95.270    980.000    964.047     15.953    510.324    938.414    535.907    510.324    510.324
 95.370    964.000    965.002     -1.002    510.038    938.344    536.654    510.038    510.038
 95.470    945.051    960.111    -15.061    509.753    932.984    536.848    509.753    509.753
 95.570    962.114    948.953     13.161    509.467    921.957    536.440    509.467    509.467
 95.670    930.000    931.824     -1.824    509.182    905.547    535.444    509.182    509.182
 95.770    941.000    909.719     31.281    508.895    884.679    533.929    508.895    508.895
 95.870    948.000    884.141     63.859    508.609    860.743    532.007    508.609    508.609
 95.970    850.000    856.859     -6.859    508.323    835.378    529.807    508.323    508.323
 96.070    823.000    829.700     -6.700    508.036    810.281    527.461    508.036    508.036
 96.170    844.000    804.424     39.576    507.749    787.089    525.090    507.749    507.749
 96.270    830.000    782.659     47.341    507.462    767.327    522.797    507.462    507.462
 96.370    785.000    765.869     19.131    507.175    752.375    520.669    507.175    507.175
 96.470    821.000    755.326     65.674    506.888    743.442    518.767    506.888    506.888
 96.570    797.821    752.111     45.710    506.600    741.570    517.130    506.600    506.600
 96.670    784.103    757.108     26.995    506.313    747.622    515.780    506.313    506.313
 96.770    826.899    770.993     55.906    506.026    762.269    514.722    506.026    506.026
 96.870    799.000    794.224      4.776    505.738    785.977    513.946    505.738    505.738
 96.970    821.105    827.009     -5.904    505.451    818.973    513.437    505.451    505.451
 97.070    866.000    869.276     -3.276    505.164    861.208    513.172    505.164    505.164
 97.170    942.000    920.621     21.379    504.876    912.302    513.123    504.876    504.876
 97.270   1043.000    980.218     62.782    504.589    971.465    513.260    504.589    504.589
 97.370   1043.000   1046.892     -3.892    504.302   1037.551    513.550    504.302    504.302
 97.470   1069.362   1118.942    -49.580    504.015   1108.899    513.956    504.015    504.015
 97.570   1209.000   1194.091     14.909    503.728   1183.275    514.435    503.728    503.728
 97.670   1312.849   1269.545     43.304    503.441   1257.933    514.941    503.441    503.441
 97.770   1279.644   1341.993    -62.349    503.155   1329.615    515.421    503.155    503.155
 97.870   1462.000   1407.707     54.293    502.868   1394.649    515.819    502.868    502.868
 97.970   1432.000   1462.767    -30.767    502.582   1449.172    516.078    502.582    502.582
 98.070   1565.588   1503.467     62.122    502.296   1489.533    516.144    502.296    502.296
 98.170   1525.000   1526.885     -1.885    502.010   1512.850    515.977    502.010    502.010
 98.270   1574.000   1531.440     42.560    501.725   1517.561    515.555    501.725    501.725
 98.370   1563.000   1517.196     45.804    501.440   1503.726    514.882    501.440    501.440
 98.470   1493.000   1485.837      7.163    501.155   1473.001    513.982    501.155    501.155
 98.570   1469.753   1440.273     29.480    500.871   1428.253    512.899    500.871    500.871
 98.670   1451.000   1384.117     66.883    500.587   1373.043    511.683    500.587    500.587
 98.770   1303.000   1321.213    -18.213    500.303   1311.163    510.385    500.303    500.303
 98.870   1282.151   1255.305     26.846    500.020   1246.309    509.055    500.020    500.020
 98.970   1157.184   1189.830    -32.646    499.737   1181.875    507.733    499.737    499.737
 99.070   1164.000   1127.815     36.185    499.455   1120.855    506.456    499.455    499.455
 99.170   1071.759   1071.841     -0.082    499.173   1065.802    505.249    499.173    499.173
 99.270   1057.346   1024.043     33.302    498.892   1018.834    504.134    498.892    498.892
 99.370   1015.098    986.144     28.954    498.611    981.661    503.121    498.611    498.611
 99.470    966.000    959.485      6.515    498.331    955.618    502.216    498.331    498.331
 99.570    887.294    945.059    -57.765    498.051    941.701    501.421    498.051    498.051
 99.670    959.000    943.536     15.464    497.772    940.581    500.730    497.772    497.772
 99.770    960.000    955.279      4.721    497.494    952.631    500.137    497.494    497.494
 99.870    957.000    980.358    -23.358    497.216    977.931    499.632    497.216    497.216
 99.970   1117.000   1018.549     98.451    496.939   1016.268    499.204    496.939    496.939
100.070   1052.000   1069.333    -17.333    496.663   1067.135    498.842    496.663    496.663
100.170   1140.000   1131.872      8.128    496.387   1129.705    498.533    496.387    496.387
100.270   1221.000   1204.980     16.020    496.112   1202.805    498.268    496.112    496.112
100.370   1303.000   1287.084     15.916    495.838   1284.872    498.035    495.838    495.838
100.470   1382.454   1376.187      6.267    495.565   1373.919    497.824    495.565    495.565
100.570   1529.000   1469.848     59.152    495.293   1467.515    497.627    495.293    495.293
100.670   1603.000   1565.201     37.799    495.022   1562.804    497.435    495.022    495.022
100.770   1688.000   1659.061     28.939    494.751   1656.606    497.239    494.751    494.751
100.870   1764.000   1748.132     15.868    494.481   1745.632    497.035    494.481    494.481
100.970   1814.000   1829.298    -15.298    494.213   1826.769    496.817    494.213    494.213
101.070   1913.000   1899.914     13.086    493.945   1897.372    496.585    493.945    493.945
101.170   1905.000   1958.030    -53.030    493.679   1955.490    496.340    493.679    493.679
101.270   1962.000   2002.309    -40.309    493.413   1999.782    496.084    493.413    493.413
101.370   2024.000   2031.842     -7.842    493.148   2029.330    495.825    493.148    493.148
101.470   2111.000   2045.957     65.043    492.885   2043.457    495.567    492.885    492.885
101.570   2089.000   2044.147     44.853    492.623   2041.648    495.318    492.623    492.623
101.670   2017.000   2026.222     -9.222    492.361   2023.708    495.082    492.361    492.361
101.770   1955.574   1992.629    -37.056    492.101   1990.080    494.865    492.101    492.101
101.870   1963.869   1944.763     19.106    491.843   1942.155    494.668    491.843    491.843
101.970   1898.210   1885.061     13.149    491.585   1882.369    494.492    491.585    491.585
102.070   1864.000   1816.802     47.198    491.329   1814.004    494.337    491.329    491.329
102.170   1709.198   1743.678    -34.480    491.074   1740.755    494.198    491.074    491.074
102.270   1670.000   1669.314      0.686    490.820   1666.252    494.072    490.820    490.820
102.370   1556.000   1596.886    -40.886    490.568   1593.679    493.951    490.568    490.568
102.470   1509.000   1528.895    -19.895    490.317   1525.545    493.829    490.317    490.317
102.570   1399.000   1467.070    -68.070    490.067   1463.589    493.697    490.067    490.067
102.670   1361.000   1412.368    -51.368    489.819   1408.774    493.550    489.819    489.819
102.770   1396.352   1365.008     31.344    489.573   1361.324    493.381    489.573    489.573
102.870   1292.914   1324.534    -31.620    489.327   1320.789    493.187    489.327    489.327
102.970   1327.669   1289.906     37.762    489.084   1286.132    492.964    489.084    489.084
103.070   1151.000   1259.613   -108.613    488.842   1255.844    492.711    488.842    488.842
103.170   1132.000   1231.840    -99.840    488.601   1228.112    492.426    488.601    488.601
103.270   1203.000   1204.698     -1.698    488.363   1201.047    492.107    488.363    488.363
103.370   1244.717   1176.480     68.236    488.126   1172.943    491.755    488.126    488.126
103.470   1127.000   1145.909    -18.909    487.890   1142.520    491.371    487.890    487.890
103.570   1026.000   1112.293    -86.293    487.656   1109.082    490.959    487.656    487.656
103.670   1073.000   1075.548     -2.548    487.425   1072.538    490.524    487.425    487.425
103.770   1082.376   1036.091     46.284    487.194   1033.301    490.073    487.194    487.194
103.870   1049.625    994.675     54.949    486.966    992.113    489.613    486.966    486.966
103.970    930.000    952.211    -22.211    486.740    949.879    489.152    486.740    486.740
104.070    872.000    909.652    -37.652    486.515    907.547    488.696    486.515    486.515
104.170    884.000    867.884     16.116    486.292    865.996    488.250    486.292    486.292
104.270    795.000    827.693    -32.693    486.072    826.011    487.818    486.072    486.072
104.370    791.000    789.740      1.260    485.853    788.247    487.404    485.853    485.853
104.470    785.000    754.540     30.460    485.636    753.218    487.009    485.636    485.636
104.570    687.733    722.459    -34.727    485.421    721.291    486.635    485.421    485.421
104.670    654.000    693.717    -39.717    485.209    692.682    486.282    485.209    485.209
104.770    644.038    668.393    -24.355    484.998    667.474    485.950    484.998    484.998
104.870    691.000    646.445     44.555    484.790    645.625    485.639    484.790    484.790
104.970    641.000    627.732     13.268    484.584    626.993    485.346    484.584    484.584
105.070    628.000    612.025     15.975    484.380    611.354    485.070    484.380    484.380
105.170    633.000    599.061     33.939    484.178    598.446    484.809    484.178    484.178
105.270    615.000    588.580     26.420    483.979    588.006    484.565    483.979    483.979
105.370    632.000    580.272     51.728    483.782    579.729    484.334    483.782    483.782
105.470    606.000    573.859     32.141    483.587    573.337    484.115    483.587    483.587
105.570    551.000    569.094    -18.094    483.395    568.585    483.908    483.395    483.395
105.670    602.000    565.767     36.233    483.205    565.263    483.711    483.205    483.205
105.770    547.000    563.708    -16.708    483.018    563.202    483.523    483.018    483.018
105.870    589.937    562.792     27.145    482.833    562.276    483.346    482.833    482.833
105.970    611.223    562.932     48.291    482.651    562.399    483.179    482.651    482.651
106.070    566.000    564.079      1.921    482.471    563.521    483.022    482.471    482.471
106.170    538.921    566.214    -27.293    482.294    565.623    482.875    482.294    482.294
106.270    560.000    569.340     -9.340    482.120    568.707    482.740    482.120    482.120
106.370    558.000    573.477    -15.477    481.948    572.794    482.616    481.948    481.948
106.470    562.677    578.655    -15.978    481.779    577.911    482.505    481.779    481.779
106.570    566.763    584.902    -18.139    481.613    584.088    482.407    481.613    481.613
106.670    601.000    592.237      8.763    481.450    591.341    482.322    481.450    481.450
106.770    606.761    600.658      6.103    481.289    599.670    482.250    481.289    481.289
106.870    607.000    610.134     -3.134    481.131    609.044    482.190    481.131    481.131
106.970    623.949    620.594      3.355    480.977    619.393    482.143    480.977    480.977
107.070    630.503    631.922     -1.419    480.825    630.603    482.106    480.825    480.825
107.170    665.000    643.954     21.046    480.676    642.511    482.078    480.676    480.676
107.270    651.041    656.470     -5.429    480.530    654.901    482.056    480.530    480.530
107.370    679.000    669.205      9.795    480.388    667.509    482.037    480.388    480.388
107.470    720.000    681.841     38.159    480.248    680.024    482.017    480.248    480.248
107.570    701.681    694.025      7.656    480.112    692.094    481.993    480.112    480.112
107.670    740.849    705.376     35.474    479.979    703.345    481.959    479.979    479.979
107.770    764.000    715.512     48.488    479.849    713.399    481.912    479.849    479.849
107.870    737.000    724.089     12.911    479.722    721.914    481.847    479.722    479.722
107.970    765.000    730.839     34.161    479.599    728.630    481.761    479.599    479.599
108.070    715.000    735.625    -20.625    479.479    733.408    481.652    479.479    479.479
108.170    766.000    738.463     27.537    479.362    736.266    481.519    479.362    479.362
108.270    697.000    739.533    -42.533    479.249    737.382    481.363    479.249    479.249
108.370    690.373    739.152    -48.779    479.139    737.070    481.189    479.139    479.139
108.470    784.215    737.721     46.494    479.033    735.727    480.998    479.033    479.033
108.570    723.184    735.676    -12.492    478.931    733.785    480.797    478.931    478.931
108.670    722.000    733.434    -11.434    478.832    731.656    480.589    478.832    478.832
108.770    732.000    731.356      0.644    478.737    729.697    480.379    478.737    478.737
108.870    695.227    729.724    -34.497    478.645    728.186    480.171    478.645    478.645
108.970    708.000    728.726    -20.726    478.557    727.306    479.968    478.557    478.557
109.070    768.147    728.446     39.701    478.473    727.140    479.773    478.473    478.473
109.170    703.000    728.866    -25.866    478.393    727.668    479.589    478.393    478.393
109.270    761.000    729.864     31.136    478.317    728.767    479.415    478.317    478.317
109.370    702.000    731.222    -29.222    478.244    730.216    479.254    478.244    478.244
109.470    745.104    732.637     12.467    478.176    731.714    479.106    478.176    478.176
109.570    726.000    733.744     -7.744    478.111    732.895    478.971    478.111    478.111
109.670    723.716    734.147    -10.431    478.051    733.364    478.847    478.051    478.051
109.770    712.000    733.459    -21.459    477.994    732.734    478.735    477.994    477.994
109.870    765.069    731.355     33.714    477.942    730.682    478.633    477.942    477.942
109.970    690.000    727.615    -37.615    477.894    726.988    478.541    477.894    477.894
110.070    766.749    722.150     44.599    477.850    721.565    478.457    477.850    477.850
110.170    666.377    715.014    -48.636    477.811    714.466    478.381    477.811    477.811
110.270    707.862    706.375      1.487    477.775    705.864    478.309    477.775    477.775
110.370    723.114    696.511     26.603    477.744    696.032    478.246    477.744    477.744
110.470    670.579    685.733    -15.154    477.718    685.282    478.191    477.718    477.718
110.570    658.000    674.369    -16.369    477.696    673.943    478.143    477.696    477.696
110.670    629.299    662.741    -33.442    477.678    662.338    478.102    477.678    477.678
110.770    622.000    651.145    -29.145    477.665    650.761    478.067    477.665    477.665
110.870    661.780    639.842     21.937    477.657    639.477    478.039    477.657    477.657
110.970    583.364    629.058    -45.694    477.653    628.708    478.017    477.653    477.653
111.070    625.110    618.972      6.138    477.654    618.637    478.002    477.654    477.654
111.170    653.674    609.719     43.955    477.660    609.396    477.993    477.660    477.660
111.270    604.000    601.417      2.583    477.670    601.105    477.991    477.670    477.670
111.370    601.000    594.122      6.878    477.686    593.818    477.996    477.686    477.686
111.470    556.753    587.859    -31.105    477.706    587.562    478.007    477.706    477.706
111.570    568.309    582.623    -14.314    477.731    582.331    478.025    477.731    477.731
111.670    577.000    578.384     -1.384    477.761    578.096    478.049    477.761    477.761
111.770    611.497    575.090     36.407    477.796    574.805    478.080    477.796    477.796
111.870    611.231    572.675     38.556    477.836    572.391    478.118    477.836    477.836
111.970    579.000    571.062      7.938    477.881    570.778    478.161    477.881    477.881
112.070    604.141    570.169     33.971    477.932    569.885    478.211    477.932    477.932
112.170    596.000    569.914     26.086    477.987    569.629    478.266    477.987    477.987
112.270    561.000    570.217     -9.217    478.048    569.929    478.328    478.048    478.048
112.370    535.474    571.002    -35.528    478.114    570.712    478.396    478.114    478.114
112.470    550.000    572.203    -22.203    478.186    571.911    478.469    478.186    478.186
112.570    543.709    573.763    -30.054    478.263    573.468    478.548    478.263    478.263
112.670    594.000    575.635     18.365    478.346    575.338    478.632    478.346    478.346
112.770    574.000    577.787     -3.787    478.434    577.488    478.723    478.434    478.434
112.870    606.000    580.200     25.800    478.527    579.897    478.819    478.527    478.527
112.970    566.998    582.867    -15.869    478.626    582.561    478.921    478.626    478.626
113.070    630.000    585.798     44.202    478.731    585.489    479.028    478.731    478.731
113.170    563.942    589.017    -25.074    478.842    588.704    479.142    478.842    478.842
113.270    601.000    592.564      8.436    478.958    592.247    479.263    478.958    478.958
113.370    578.733    596.493    -17.760    479.081    596.171    479.390    479.081    479.081
113.470    637.009    600.879     36.130    479.209    600.550    479.524    479.209    479.209
113.570    582.841    605.816    -22.975    479.343    605.479    479.666    479.343    479.343
113.670    613.000    611.430      1.570    479.483    611.082    479.816    479.483    479.483
113.770    605.000    617.879    -12.879    479.629    617.518    479.974    479.629    479.629
113.870    628.814    625.367      3.446    479.781    624.990    480.141    479.781    479.781
113.970    665.000    634.156     30.844    479.940    633.759    480.317    479.940    479.940
114.070    628.432    644.575    -16.144    480.104    644.153    480.503    480.104    480.104
114.170    676.000    657.040     18.960    480.275    656.588    480.700    480.275    480.275
114.270    653.423    672.068    -18.645    480.452    671.581    480.909    480.452    480.452
114.370    741.170    690.300     50.870    480.636    689.770    481.129    480.636    480.636
114.470    685.000    712.514    -27.514    480.826    711.935    481.362    480.826    480.826
114.570    702.000    739.651    -37.651    481.022    739.013    481.608    481.022    481.022
114.670    811.000    772.826     38.174    481.225    772.119    481.868    481.225    481.225
114.770    831.000    813.341     17.659    481.434    812.556    482.143    481.434    481.434
114.870    840.000    862.694    -22.694    481.651    861.821    482.432    481.651    481.651
114.970    891.000    922.575    -31.575    481.874    921.602    482.737    481.874    481.874
115.070    975.000    994.855    -19.855    482.103    993.770    483.056    482.103    482.103
115.170   1098.947   1081.554     17.394    482.340   1080.344    483.391    482.340    482.340
115.270   1152.000   1184.802    -32.802    482.583   1183.456    483.741    482.583    482.583
115.370   1274.912   1306.778    -31.866    482.833   1305.285    484.106    482.833    482.833
115.470   1520.685   1449.631     71.055    483.091   1447.979    484.486    483.091    483.091
115.570   1590.687   1615.381    -24.694    483.355   1613.561    484.879    483.355    483.355
115.670   1797.599   1805.810     -8.211    483.626   1803.813    485.284    483.626    483.626
115.770   2028.000   2022.333      5.667    483.905   2020.153    485.701    483.905    483.905
115.870   2256.134   2265.866     -9.732    484.191   2263.499    486.128    484.191    484.191
115.970   2612.000   2536.693     75.307    484.484   2534.137    486.564    484.484    484.484
116.070   2983.000   2834.330    148.670    484.784   2831.588    487.006    484.784    484.784
116.170   3296.000   3157.416    138.584    485.092   3154.492    487.453    485.092    485.092
116.270   3530.613   3503.612     27.000    485.408   3500.513    487.904    485.408    485.408
116.370   3798.186   3869.533    -71.347    485.730   3866.271    488.357    485.730    485.730
116.470   4343.404   4250.705     92.700    486.061   4247.294    488.810    486.061    486.061
116.570   4696.000   4641.540     54.460    486.399   4637.998    489.264    486.399    486.399
116.670   5106.000   5035.458     70.542    486.744   5031.803    489.719    486.744    486.744
116.770   5351.000   5424.876    -73.876    487.098   5421.125    490.175    487.098    487.098
116.870   5703.000   5801.283    -98.283    487.459   5797.457    490.633    487.459    487.459
116.970   6088.000   6155.490    -67.490    487.828   6151.609    491.094    487.828    487.828
117.070   6456.000   6477.865    -21.865    488.206   6473.948    491.559    488.206    488.206
117.170   6730.000   6758.697    -28.697    488.591   6754.762    492.028    488.591    488.591
117.270   6934.054   6988.701    -54.648    488.984   6984.766    492.503    488.984    488.984
117.370   7076.000   7159.647    -83.647    489.385   7155.726    492.981    489.385    489.385
117.470   7273.000   7265.057      7.943    489.795   7261.163    493.465    489.795    489.795
117.570   7367.304   7300.861     66.443    490.212   7297.002    493.951    490.212    490.212
117.670   7328.000   7265.851     62.149    490.638   7262.034    494.439    490.638    490.638
117.770   7197.000   7161.826     35.174    491.073   7158.053    494.928    491.073    491.073
117.870   7160.045   6993.369    166.676    491.516   6989.641    495.415    491.516    491.516
117.970   6620.000   6767.332   -147.332    491.967   6763.649    495.899    491.967    491.967
118.070   6396.639   6492.161    -95.522    492.427   6488.525    496.377    492.427    492.427
118.170   6046.000   6177.197   -131.197    492.896   6173.609    496.847    492.896    492.896
118.270   5723.000   5832.068   -109.068    493.373   5828.533    497.307    493.373    493.373
118.370   5360.855   5466.218   -105.363    493.859   5462.743    497.756    493.859    493.859
118.470   5059.000   5088.564    -29.564    494.354   5085.157    498.192    494.354    494.354
118.570   4786.000   4707.259     78.741    494.857   4703.929    498.617    494.857    494.857
118.670   4290.000   4329.537    -39.537    495.370   4326.294    499.031    495.370    495.370
118.770   3972.548   3961.614     10.934    495.892   3958.467    499.436    495.892    495.892
118.870   3564.000   3608.632    -44.632    496.422   3605.591    499.836    496.422    496.422
118.970   3234.809   3274.651    -39.842    496.962   3271.721    500.232    496.962    496.962
119.070   2944.000   2962.671    -18.671    497.512   2959.858    500.630    497.512    497.512
119.170   2655.000   2674.696    -19.696    498.070   2672.003    501.032    498.070    498.070
119.270   2461.157   2411.824     49.333    498.638   2409.252    501.442    498.638    498.638
119.370   2222.000   2174.359     47.641    499.215   2171.907    501.864    499.215    499.215
119.470   2015.000   1961.933     53.067    499.802   1959.598    502.300    499.802    499.802
119.570   1813.000   1773.638     39.362    500.398   1771.413    502.755    500.398    500.398
119.670   1604.000   1608.145     -4.145    501.004   1606.024    503.229    501.004    501.004
119.770   1397.159   1463.827    -66.669    501.619   1461.800    503.726    501.619    501.619
119.870   1268.173   1338.865    -70.692    502.244   1336.921    504.247    502.244    502.244
119.970   1211.000   1231.340    -20.340    502.880   1229.466    504.794    502.880    502.880
120.070   1185.697   1139.320     46.377    503.525   1137.502    505.369    503.525    503.525
120.170   1111.000   1060.920     50.080    504.180   1059.143    505.972    504.180    504.180
120.270    995.000    994.361      0.639    504.845    992.609    506.603    504.845    504.845
120.370    940.488    937.998      2.489    505.520    936.253    507.264    505.520    505.520
120.470    923.000    890.349     32.651    506.205    888.594    507.956    506.205    506.205
120.570    877.000    850.103     26.897    506.900    848.319    508.677    506.900    506.900
120.670    764.473    816.118    -51.645    507.606    814.287    509.429    507.606    507.606
120.770    761.000    787.418    -26.418    508.322    785.520    510.212    508.322    508.322
120.870    722.000    763.178    -41.178    509.049    761.193    511.026    509.049    509.049
120.970    718.172    742.710    -24.538    509.786    740.618    511.871    509.786    509.786
121.070    760.000    725.444     34.556    510.534    723.224    512.747    510.534    510.534
121.170    737.974    710.914     27.060    511.292    708.545    513.656    511.292    511.292
121.270    663.000    698.738    -35.738    512.062    696.199    514.598    512.062    512.062
121.370    700.000    688.608     11.392    512.842    685.876    515.572    512.842    512.842
121.470    701.916    680.271     21.645    513.633    677.323    516.581    513.633    513.633
121.570    634.000    673.523    -39.523    514.434    670.334    517.624    514.434    514.434
121.670    667.000    668.194     -1.194    515.247    664.742    518.703    515.247    515.247
121.770    642.435    664.146    -21.711    516.071    660.403    519.818    516.071    516.071
121.870    661.000    661.259     -0.259    516.906    657.200    520.971    516.906    516.906
121.970    678.000    659.433     18.567    517.753    655.030    522.163    517.753    517.753
122.070    628.881    658.577    -29.696    518.610    653.802    523.395    518.610    518.610
122.170    642.670    658.609    -15.939    519.479    653.433    524.666    519.479    519.479
122.270    658.501    659.450     -0.950    520.360    653.844    525.979    520.360    520.360
122.370    615.000    661.026    -46.026    521.252    654.960    527.333    521.252    521.252
122.470    710.633    663.258     47.375    522.156    656.705    528.726    522.156    522.156
122.570    630.000    666.069    -36.069    523.071    659.002    530.157    523.071    523.071
122.670    647.115    669.374    -22.259    523.999    661.770    531.624    523.999    523.999
122.770    679.000    673.088      5.912    524.938    664.927    533.122    524.938    524.938
122.870    653.000    677.115    -24.115    525.889    668.382    534.648    525.889    525.889
122.970    674.888    681.357     -6.469    526.852    672.043    536.194    526.852    526.852
123.070    694.000    685.707      8.293    527.827    675.811    537.754    527.827    527.827
123.170    686.000    690.054     -4.054    528.814    679.582    539.320    528.814    528.814
123.270    647.402    694.281    -46.879    529.813    683.249    540.883    529.813    529.813
123.370    695.000    698.269     -3.269    530.825    686.703    542.432    530.825    530.825
123.470    722.867    701.900     20.968    531.849    689.833    543.958    531.849    531.849
123.570    677.649    705.057    -27.408    532.886    692.537    545.451    532.886    532.886
123.670    720.000    707.635     12.365    533.935    694.718    546.900    533.935    533.935
123.770    695.000    709.543    -14.543    534.997    696.293    548.297    534.997    534.997
123.870    645.000    710.710    -65.710    536.071    697.199    549.633    536.071    536.071
123.970    675.000    711.085    -36.085    537.158    697.393    550.903    537.158    537.158
124.070    694.173    710.619    -16.445    538.259    696.827    552.104    538.259    538.259
124.170    709.000    709.381     -0.381    539.372    695.574    553.233    539.372    539.372
124.270    756.460    707.386     49.074    540.498    693.645    554.292    540.498    540.498
124.370    755.553    704.677     50.876    541.637    691.084    555.283    541.637    541.637
124.470    744.000    701.321     42.679    542.789    687.954    556.209    542.789    542.789
124.570    696.000    697.399     -1.399    543.955    684.329    557.076    543.955    543.955
124.670    732.000    692.995     39.005    545.134    680.289    557.889    545.134    545.134
124.770    719.000    688.198     30.802    546.326    675.917    558.655    546.326    546.326
124.870    701.000    683.100     17.900    547.532    671.297    559.381    547.532    547.532
124.970    702.000    677.789     24.211    548.752    666.508    560.075    548.752    548.752
