neutron_powder_diffraction_0101
R_wp: 3.969
Temperature (K): 894.096
Counts: 83173.00
Wavelength (Ã…): 2.52098
COMMENTS
Test file for demonstrating the .xyy file format in Reel1.0
END OF HEADER
   tth       Y_obs     Y_calc      Y_res    Background    Phase_1_Nuc    Phase_1_Mag    Phase_2_Nuc    Phase_2_Mag
  9.970    613.000    550.353     62.647    549.105    550.188    549.105    549.269    549.105
 10.070    623.000    550.843     72.157    549.499    550.678    549.499    549.663    549.499
 10.170    617.000    551.335     65.665    549.883    551.169    549.883    550.048    549.883
 10.270    566.002    551.832     14.170    550.258    551.665    550.258    550.424    550.258
 10.370    523.629    552.339    -28.711    550.624    552.172    550.624    550.791    550.624
 10.470    565.261    552.861     12.400    550.981    552.693    550.981    551.149    550.981
 10.570    528.504    553.403    -24.899    551.329    553.234    551.329    551.497    551.329
 10.670    574.000    553.972     20.028    551.669    553.803    551.669    551.837    551.669
 10.770    594.000    554.579     39.421    551.999    554.408    551.999    552.169    551.999
 10.870    629.000    555.235     73.765    552.321    555.064    552.321    552.491    552.321
 10.970    515.857    555.960    -40.102    552.635    555.787    552.635    552.805    552.635
 11.070    592.253    556.777     35.476    552.939    556.603    552.939    553.111    552.939
 11.170    554.000    557.724     -3.724    553.236    557.550    553.236    553.408    553.236
 11.270    565.000    558.859      6.141    553.523    558.683    553.523    553.696    553.523
 11.370    573.000    560.285     12.715    553.803    560.108    553.803    553.977    553.803
 11.470    588.000    562.221     25.779    554.074    562.042    554.074    554.249    554.074
 11.570    595.000    565.154     29.846    554.337    564.972    554.337    554.513    554.337
 11.670    575.523    570.095      5.428    554.593    569.910    554.593    554.769    554.593
 11.770    611.313    578.801     32.512    554.839    578.611    554.839    555.016    554.839
 11.870    648.000    593.514     54.486    555.079    593.314    555.079    555.256    555.079
 11.970    632.203    615.709     16.494    555.310    615.496    555.310    555.488    555.310
 12.070    676.000    643.608     32.392    555.533    643.378    555.533    555.712    555.533
 12.170    647.000    669.007    -22.007    555.748    668.762    555.748    555.928    555.748
 12.270    725.850    677.928     47.922    555.956    677.677    555.956    556.137    555.956
 12.370    641.445    663.517    -22.072    556.156    663.274    556.156    556.338    556.156
 12.470    609.421    636.258    -26.837    556.349    636.030    556.349    556.531    556.349
 12.570    579.000    609.730    -30.730    556.534    609.516    556.534    556.717    556.534
 12.670    548.000    590.081    -42.081    556.712    589.878    556.712    556.896    556.712
 12.770    563.000    577.762    -14.762    556.882    577.566    556.882    557.067    556.882
 12.870    568.000    570.830     -2.830    557.045    570.637    557.045    557.231    557.045
 12.970    529.000    567.076    -38.076    557.201    566.884    557.201    557.388    557.201
 13.070    563.000    564.952     -1.952    557.350    564.760    557.350    557.537    557.350
 13.170    522.022    563.630    -41.608    557.491    563.438    557.491    557.679    557.491
 13.270    600.504    562.730     37.774    557.626    562.538    557.626    557.815    557.626
 13.370    560.134    562.082     -1.949    557.753    561.890    557.753    557.943    557.753
 13.470    529.000    561.603    -32.603    557.874    561.410    557.874    558.065    557.874
 13.570    507.000    561.242    -54.242    557.988    561.049    557.988    558.180    557.988
 13.670    537.000    560.968    -23.968    558.095    560.774    558.095    558.288    558.095
 13.770    523.000    560.758    -37.758    558.195    560.563    558.195    558.389    558.195
 13.870    551.028    560.597     -9.569    558.289    560.401    558.289    558.484    558.289
 13.970    478.000    560.470    -82.470    558.376    560.274    558.376    558.572    558.376
 14.070    580.309    560.371     19.938    558.457    560.174    558.457    558.653    558.457
 14.170    521.321    560.293    -38.971    558.531    560.094    558.531    558.728    558.531
 14.270    558.646    560.230     -1.584    558.598    560.031    558.598    558.797    558.598
 14.370    571.584    560.179     11.405    558.660    559.979    558.660    558.860    558.660
 14.470    555.000    560.137     -5.137    558.715    559.936    558.715    558.916    558.715
 14.570    518.000    560.101    -42.101    558.764    559.899    558.764    558.966    558.764
 14.670    530.498    560.070    -29.572    558.807    559.867    558.807    559.010    558.807
 14.770    595.563    560.042     35.521    558.844    559.838    558.844    559.047    558.844
 14.870    543.000    560.023    -17.023    558.874    559.818    558.874    559.079    558.874
 14.970    547.000    560.016    -13.016    558.899    559.810    558.899    559.105    558.899
 15.070    545.000    559.992    -14.992    558.918    559.784    558.918    559.125    558.918
 15.170    496.000    559.965    -63.965    558.931    559.756    558.931    559.139    558.931
 15.270    540.215    559.939    -19.723    558.938    559.729    558.938    559.147    558.938
 15.370    558.000    559.910     -1.910    558.939    559.700    558.939    559.150    558.939
 15.470    551.000    559.878     -8.878    558.935    559.666    558.935    559.147    558.935
 15.570    537.000    559.842    -22.842    558.925    559.629    558.925    559.138    558.925
 15.670    544.000    559.804    -15.804    558.910    559.590    558.910    559.124    558.910
 15.770    552.000    559.762     -7.762    558.889    559.547    558.889    559.104    558.889
 15.870    528.356    559.717    -31.361    558.863    559.501    558.863    559.079    558.863
 15.970    539.000    559.669    -20.669    558.831    559.451    558.831    559.049    558.831
 16.070    546.149    559.617    -13.468    558.794    559.398    558.794    559.013    558.794
 16.170    515.000    559.561    -44.561    558.752    559.341    558.752    558.972    558.752
 16.270    573.245    559.502     13.743    558.705    559.280    558.705    558.926    558.705
 16.370    571.133    559.446     11.687    558.652    559.223    558.652    558.875    558.652
 16.470    525.000    559.459    -34.459    558.595    559.235    558.595    558.818    558.595
 16.570    578.000    559.426     18.574    558.532    559.200    558.532    558.757    558.532
 16.670    551.440    559.354     -7.913    558.464    559.127    558.464    558.691    558.464
 16.770    587.000    559.275     27.725    558.392    559.047    558.392    558.619    558.392
 16.870    556.000    559.192     -3.192    558.314    558.963    558.314    558.543    558.314
 16.970    553.000    559.105     -6.105    558.232    558.874    558.232    558.463    558.232
 17.070    562.000    559.014      2.986    558.145    558.782    558.145    558.377    558.145
 17.170    585.000    558.919     26.081    558.053    558.686    558.053    558.287    558.053
 17.270    543.000    558.821    -15.821    557.957    558.586    557.957    558.192    557.957
 17.370    543.000    558.723    -15.723    557.856    558.486    557.856    558.092    557.856
 17.470    595.000    558.618     36.382    557.750    558.380    557.750    557.988    557.750
 17.570    546.000    558.508    -12.508    557.640    558.268    557.640    557.880    557.640
 17.670    509.000    558.393    -49.393    557.526    558.152    557.526    557.767    557.526
 17.770    542.000    558.275    -16.275    557.407    558.032    557.407    557.650    557.407
 17.870    543.000    558.153    -15.153    557.284    557.908    557.284    557.528    557.284
 17.970    547.000    558.027    -11.027    557.156    557.781    557.156    557.402    557.156
 18.070    554.718    557.898     -3.180    557.024    557.650    557.024    557.272    557.024
 18.170    542.000    557.768    -15.768    556.888    557.519    556.888    557.138    556.888
 18.270    575.422    557.632     17.790    556.748    557.380    556.748    557.000    556.748
 18.370    585.592    557.491     28.101    556.604    557.238    556.604    556.857    556.604
 18.470    511.000    557.347    -46.347    556.456    557.092    556.456    556.711    556.456
 18.570    548.859    557.199     -8.340    556.304    556.942    556.304    556.561    556.304
 18.670    551.000    557.052     -6.052    556.148    556.793    556.148    556.407    556.148
 18.770    518.206    556.938    -38.732    555.988    556.678    555.988    556.249    555.988
 18.870    535.000    556.810    -21.810    555.824    556.548    555.824    556.087    555.824
 18.970    537.000    556.652    -19.652    555.657    556.388    555.657    555.921    555.657
 19.070    527.000    556.488    -29.488    555.486    556.222    555.486    555.752    555.486
 19.170    536.000    556.320    -20.320    555.311    556.052    555.311    555.579    555.311
 19.270    592.697    556.150     36.547    555.132    555.880    555.132    555.403    555.132
 19.370    535.000    555.977    -20.977    554.950    555.704    554.950    555.223    554.950
 19.470    554.000    555.801     -1.801    554.765    555.526    554.765    555.039    554.765
 19.570    559.000    555.624      3.376    554.575    555.347    554.575    554.852    554.575
 19.670    533.000    555.453    -22.453    554.383    555.174    554.383    554.662    554.383
 19.770    489.000    555.296    -66.296    554.187    555.014    554.187    554.469    554.187
 19.870    531.000    555.110    -24.110    553.988    554.827    553.988    554.272    553.988
 19.970    574.000    554.920     19.080    553.785    554.634    553.785    554.071    553.785
 20.070    526.000    554.727    -28.727    553.579    554.439    553.579    553.868    553.579
 20.170    533.000    554.537    -21.537    553.370    554.245    553.370    553.662    553.370
 20.270    542.000    554.346    -12.346    553.158    554.052    553.158    553.452    553.158
 20.370    553.276    554.146     -0.870    552.943    553.850    552.943    553.239    552.943
 20.470    526.873    553.944    -27.071    552.724    553.645    552.724    553.024    552.724
 20.570    521.000    553.740    -32.740    552.503    553.437    552.503    552.805    552.503
 20.670    527.000    553.533    -26.533    552.278    553.228    552.278    552.584    552.278
 20.770    547.505    553.325     -5.819    552.051    553.017    552.051    552.359    552.051
 20.870    527.000    553.115    -26.115    551.821    552.804    551.821    552.132    551.821
 20.970    554.287    552.905      1.382    551.588    552.591    551.588    551.902    551.588
 21.070    515.425    552.716    -37.291    551.352    552.399    551.352    551.669    551.352
 21.170    580.000    552.525     27.475    551.113    552.205    551.113    551.434    551.113
 21.270    539.660    552.312    -12.651    550.872    551.988    550.872    551.196    550.872
 21.370    515.965    552.095    -36.130    550.628    551.768    550.628    550.955    550.628
 21.470    537.000    551.878    -14.878    550.382    551.548    550.382    550.712    550.382
 21.570    559.000    551.661      7.339    550.132    551.327    550.132    550.467    550.132
 21.670    543.685    551.444     -7.759    549.881    551.106    549.881    550.219    549.881
 21.770    595.000    551.228     43.772    549.626    550.887    549.626    549.968    549.626
 21.870    586.000    551.033     34.967    549.370    550.687    549.370    549.716    549.370
 21.970    545.000    550.861     -5.861    549.111    550.512    549.111    549.460    549.111
 22.070    565.809    550.702     15.108    548.849    550.348    548.849    549.203    548.849
 22.170    534.000    550.493    -16.493    548.585    550.135    548.585    548.944    548.585
 22.270    546.000    550.287     -4.287    548.319    549.924    548.319    548.682    548.319
 22.370    571.079    550.122     20.957    548.051    549.755    548.051    548.418    548.051
 22.470    583.212    549.945     33.267    547.780    549.573    547.780    548.153    547.780
 22.570    512.682    549.749    -37.067    547.507    549.372    547.507    547.885    547.507
 22.670    561.000    549.557     11.443    547.233    549.176    547.233    547.615    547.233
 22.770    559.057    549.380      9.677    546.956    548.993    546.956    547.343    546.956
 22.870    532.000    549.206    -17.206    546.677    548.813    546.677    547.070    546.677
 22.970    529.000    549.045    -20.045    546.396    548.647    546.396    546.794    546.396
 23.070    544.000    548.911     -4.911    546.113    548.507    546.113    546.517    546.113
 23.170    545.000    548.788     -3.788    545.828    548.378    545.828    546.238    545.828
 23.270    559.917    548.688     11.229    545.541    548.272    545.541    545.958    545.541
 23.370    572.000    548.611     23.389    545.252    548.189    545.252    545.676    545.252
 23.470    578.000    548.573     29.427    544.962    548.144    544.962    545.392    544.962
 23.570    543.769    548.587     -4.817    544.669    548.151    544.669    545.107    544.669
 23.670    539.000    548.664     -9.664    544.375    548.221    544.375    544.820    544.375
 23.770    509.000    548.832    -39.832    544.080    548.381    544.080    544.532    544.080
 23.870    515.648    549.127    -33.479    543.782    548.668    543.782    544.243    543.782
 23.970    539.000    549.613    -10.613    543.483    549.147    543.483    543.952    543.483
 24.070    567.000    550.425     16.575    543.183    549.951    543.183    543.661    543.183
 24.170    608.000    551.863     56.137    542.880    551.381    542.880    543.368    542.880
 24.270    572.000    554.556     17.444    542.577    554.066    542.577    543.074    542.577
 24.370    570.044    559.617     10.427    542.272    559.121    542.272    542.779    542.272
 24.470    580.000    568.520     11.480    541.965    568.020    541.965    542.482    541.965
 24.570    595.000    582.375     12.625    541.657    581.873    541.657    542.186    541.657
 24.670    628.000    600.457     27.543    541.347    599.957    541.347    541.888    541.347
 24.770    582.029    618.088    -36.059    541.037    617.587    541.037    541.589    541.037
 24.870    661.000    625.899     35.101    540.724    625.391    540.724    541.290    540.724
 24.970    600.575    617.767    -17.193    540.411    617.241    540.411    540.991    540.411
 25.070    641.000    599.710     41.290    540.096    599.156    540.096    540.690    540.096
 25.170    598.000    581.107     16.893    539.781    580.525    539.781    540.390    539.781
 25.270    615.000    566.697     48.303    539.464    566.089    539.464    540.089    539.464
 25.370    608.000    557.242     50.758    539.145    556.610    539.145    539.788    539.145
 25.470    582.895    551.651     31.244    538.826    550.997    538.826    539.487    538.826
 25.570    568.000    548.452     19.548    538.506    547.776    538.506    539.186    538.506
 25.670    507.258    546.527    -39.269    538.185    545.830    538.185    538.886    538.185
 25.770    568.000    545.243     22.757    537.862    544.523    537.862    538.585    537.862
 25.870    554.000    544.298      9.702    537.539    543.554    537.539    538.285    537.539
 25.970    538.179    543.559     -5.379    537.214    542.789    537.214    537.986    537.214
 26.070    507.994    542.962    -34.967    536.889    542.164    536.889    537.688    536.889
 26.170    581.000    542.472     38.528    536.563    541.646    536.563    537.391    536.563
 26.270    610.000    542.071     67.929    536.236    541.213    536.236    537.095    536.236
 26.370    522.610    541.744    -19.134    535.908    540.852    535.908    536.801    535.908
 26.470    492.000    541.484    -49.484    535.580    540.556    535.580    536.509    535.580
 26.570    571.000    541.289     29.711    535.251    540.321    535.251    536.219    535.251
 26.670    532.000    541.160     -9.160    534.921    540.150    534.921    535.931    534.921
 26.770    559.000    541.102     17.898    534.590    540.046    534.590    535.647    534.590
 26.870    560.870    541.125     19.745    534.258    540.018    534.258    535.366    534.258
 26.970    582.694    541.243     41.452    533.926    540.080    533.926    535.089    533.926
 27.070    594.000    541.476     52.524    533.594    540.253    533.594    534.817    533.594
 27.170    569.000    541.858     27.142    533.261    540.568    533.261    534.550    533.261
 27.270    566.000    542.432     23.568    532.927    541.069    532.927    534.290    532.927
 27.370    595.000    543.270     51.730    532.593    541.825    532.593    534.037    532.593
 27.470    539.000    544.498     -5.498    532.258    542.963    532.258    533.792    532.258
 27.570    548.964    546.428      2.536    531.923    544.793    531.923    533.556    531.923
 27.670    581.000    550.097     30.903    531.587    548.349    531.587    533.332    531.587
 27.770    622.000    558.872     63.128    531.251    556.996    531.251    533.121    531.251
 27.870    557.000    581.305    -24.305    530.915    579.280    530.915    532.924    530.915
 27.970    657.000    631.861     25.139    530.578    629.661    530.578    532.744    530.578
 28.070    726.000    721.623      4.377    530.241    719.219    530.241    532.584    530.241
 28.170    816.724    837.023    -20.299    529.903    834.394    529.903    532.445    529.903
 28.270    933.000    926.194      6.806    529.566    923.338    529.566    532.331    529.566
 28.370    960.000    930.932     29.068    529.228    927.849    529.228    532.244    529.228
 28.470    834.576    853.684    -19.108    528.890    850.349    528.890    532.188    528.890
 28.570    746.000    759.401    -13.401    528.551    755.767    528.551    532.166    528.551
 28.670    715.000    708.569      6.431    528.213    704.586    528.213    532.180    528.213
 28.770    766.000    718.982     47.018    527.874    714.605    527.874    532.231    527.874
 28.870    794.898    769.053     25.844    527.536    764.247    527.536    532.320    527.536
 28.970    847.000    813.409     33.591    527.197    808.147    527.197    532.444    527.197
 29.070    824.233    809.860     14.373    526.858    804.123    526.858    532.595    526.858
 29.170    779.253    755.209     24.044    526.519    748.977    526.519    532.761    526.519
 29.270    730.000    682.112     47.888    526.181    675.380    526.181    532.924    526.181
 29.370    655.000    620.990     34.010    525.842    613.784    525.842    533.058    525.842
 29.470    540.998    582.262    -41.264    525.503    574.641    525.503    533.130    525.503
 29.570    594.000    562.116     31.884    525.164    554.176    525.164    533.107    525.164
 29.670    617.000    552.695     64.305    524.826    544.563    524.826    532.959    524.826
 29.770    573.000    548.107     24.893    524.487    539.929    524.487    532.666    524.487
 29.870    550.000    545.410      4.590    524.149    537.337    524.149    532.223    524.149
 29.970    539.288    543.488     -4.200    523.811    535.657    523.811    531.642    523.811
 30.070    582.000    541.991     40.009    523.473    534.516    523.473    530.948    523.473
 30.170    556.000    540.851     15.149    523.135    533.814    523.135    530.173    523.135
 30.270    588.000    540.168     47.832    522.798    533.614    522.798    529.351    522.798
 30.370    559.000    540.289     18.711    522.460    534.236    522.460    528.511    522.460
 30.470    576.918    542.003     34.915    522.124    536.444    522.124    527.677    522.124
 30.570    552.000    546.666      5.334    521.787    541.578    521.787    526.865    521.787
 30.670    583.000    555.829     27.171    521.451    551.177    521.451    526.085    521.451
 30.770    630.000    570.003     59.997    521.115    565.749    521.115    525.341    521.115
 30.870    586.000    586.774     -0.774    520.779    582.879    520.779    524.636    520.779
 30.970    634.732    599.571     35.161    520.444    596.001    520.444    523.968    520.444
 31.070    604.627    600.604      4.022    520.109    597.334    520.109    523.336    520.109
 31.170    632.839    588.587     44.252    519.775    585.590    519.775    522.737    519.775
 31.270    565.038    570.523     -5.485    519.441    567.773    519.441    522.168    519.441
 31.370    544.000    553.908     -9.908    519.107    551.375    519.107    521.626    519.107
 31.470    543.000    542.085      0.915    518.774    539.743    518.774    521.109    518.774
 31.570    527.460    535.016     -7.557    518.442    532.841    518.442    520.613    518.442
 31.670    526.988    531.219     -4.231    518.110    529.190    518.110    520.136    518.110
 31.770    548.000    529.209     18.791    517.779    527.310    517.779    519.676    517.779
 31.870    582.000    528.055     53.945    517.448    526.271    517.448    519.230    517.448
 31.970    590.000    527.315     62.685    517.118    525.633    517.118    518.798    517.118
 32.070    520.000    526.812     -6.812    516.788    525.222    516.788    518.377    516.788
 32.170    525.000    526.483     -1.483    516.459    524.975    516.459    517.967    516.459
 32.270    571.000    526.305     44.695    516.131    524.870    516.131    517.565    516.131
 32.370    545.000    526.272     18.728    515.804    524.903    515.804    517.171    515.804
 32.470    534.000    526.390      7.610    515.477    525.081    515.477    516.785    515.477
 32.570    537.000    526.676     10.324    515.151    525.421    515.151    516.405    515.151
 32.670    577.000    527.157     49.843    514.825    525.951    514.825    516.031    514.825
 32.770    539.000    527.874     11.126    514.501    526.712    514.501    515.662    514.501
 32.870    538.035    528.888      9.147    514.177    527.766    514.177    515.298    514.177
 32.970    543.000    530.286     12.714    513.854    529.201    513.854    514.938    513.854
 33.070    567.483    532.208     35.274    513.531    531.156    513.531    514.582    513.531
 33.170    561.000    534.901     26.099    513.210    533.879    513.210    514.230    513.210
 33.270    546.000    538.888      7.112    512.889    537.893    512.889    513.881    512.889
 33.370    520.000    545.382    -25.382    512.570    544.412    512.570    513.536    512.570
 33.470    557.000    557.097     -0.097    512.251    556.148    512.251    513.193    512.251
 33.570    574.403    579.276     -4.873    511.933    578.343    511.933    512.854    511.933
 33.670    650.725    619.920     30.805    511.616    619.000    511.616    512.517    511.616
 33.770    684.000    687.349     -3.349    511.299    686.436    511.299    512.182    511.299
 33.870    768.000    783.816    -15.816    510.984    782.908    510.984    511.850    510.984
 33.970    917.000    896.247     20.753    510.670    895.348    510.670    511.520    510.670
 34.070   1063.000    989.043     73.957    510.357    988.164    510.357    511.193    510.357
 34.170    995.655   1014.525    -18.871    510.044   1013.675    510.044    510.868    510.044
 34.270    954.000    955.070     -1.070    509.733    954.248    509.733    510.544    509.733
 34.370    851.174    846.578      4.596    509.423    845.777    509.423    510.223    509.423
 34.470    772.551    736.645     35.907    509.113    735.857    509.113    509.904    509.113
 34.570    646.349    651.206     -4.857    508.805    650.427    508.805    509.586    508.805
 34.670    610.000    595.443     14.557    508.498    594.672    508.498    509.270    508.498
 34.770    583.460    563.323     20.138    508.192    562.558    508.192    508.957    508.192
 34.870    559.000    545.974     13.026    507.887    545.216    507.887    508.645    507.887
 34.970    565.000    536.411     28.589    507.583    535.659    507.583    508.334    507.583
 35.070    525.000    530.584     -5.584    507.280    529.838    507.280    508.026    507.280
 35.170    498.000    526.572    -28.572    506.979    525.832    506.979    507.719    506.979
 35.270    489.049    523.552    -34.503    506.678    522.816    506.678    507.414    506.678
 35.370    505.089    521.159    -16.070    506.379    520.428    506.379    507.110    506.379
 35.470    558.914    519.208     39.706    506.081    518.480    506.081    506.808    506.081
 35.570    506.000    517.582    -11.582    505.784    516.858    505.784    506.508    505.784
 35.670    512.338    516.206     -3.868    505.488    515.484    505.488    506.210    505.488
 35.770    488.000    515.023    -27.023    505.194    514.304    505.194    505.913    505.194
 35.870    497.000    513.994    -16.994    504.900    513.277    504.900    505.617    504.900
 35.970    499.442    513.088    -13.647    504.608    512.373    504.608    505.324    504.608
 36.070    527.229    512.284     14.945    504.318    511.570    504.318    505.032    504.318
 36.170    541.262    511.564     29.698    504.028    510.851    504.028    504.741    504.028
 36.270    477.639    510.916    -33.276    503.740    510.204    503.740    504.452    503.740
 36.370    512.000    510.331      1.669    503.453    509.619    503.453    504.165    503.453
 36.470    532.409    509.802     22.607    503.167    509.090    503.167    503.879    503.167
 36.570    511.000    509.325      1.675    502.883    508.613    502.883    503.595    502.883
 36.670    496.000    508.900    -12.900    502.600    508.188    502.600    503.312    502.600
 36.770    477.000    508.532    -31.532    502.318    507.819    502.318    503.032    502.318
 36.870    459.000    508.231    -49.231    502.038    507.517    502.038    502.752    502.038
 36.970    468.000    508.031    -40.031    501.759    507.316    501.759    502.475    501.759
 37.070    481.000    507.998    -26.998    501.481    507.281    501.481    502.199    501.481
 37.170    529.843    508.250     21.592    501.205    507.532    501.205    501.924    501.205
 37.270    467.000    508.960    -41.960    500.930    508.240    500.930    501.651    500.930
 37.370    503.000    510.315     -7.315    500.657    509.593    500.657    501.380    500.657
 37.470    514.750    512.416      2.334    500.385    511.692    500.385    501.111    500.385
 37.570    531.000    515.120     15.880    500.114    514.394    500.114    500.843    500.114
 37.670    541.075    517.848     23.228    499.845    517.120    499.845    500.577    499.845
 37.770    514.000    519.547     -5.547    499.577    518.818    499.577    500.312    499.577
 37.870    521.000    519.326      1.674    499.311    518.595    499.311    500.049    499.311
 37.970    502.769    517.323    -14.554    499.046    516.590    499.046    499.788    499.046
 38.070    516.407    514.430      1.978    498.783    513.694    498.783    499.528    498.783
 38.170    485.000    511.417    -26.417    498.521    510.678    498.521    499.271    498.521
 38.270    498.000    508.701    -10.701    498.260    507.956    498.260    499.014    498.260
 38.370    457.000    506.493    -49.493    498.002    505.742    498.002    498.760    498.002
 38.470    504.000    504.841     -0.841    497.744    504.083    497.744    498.507    497.744
 38.570    474.000    503.661    -29.661    497.488    502.896    497.488    498.256    497.488
 38.670    524.988    502.824     22.164    497.234    502.053    497.234    498.007    497.234
 38.770    520.000    502.212     17.788    496.981    501.435    496.981    497.760    496.981
 38.870    515.584    501.739     13.845    496.730    500.956    496.730    497.514    496.730
 38.970    472.000    501.347    -29.347    496.480    500.558    496.480    497.270    496.480
 39.070    516.000    501.005     14.995    496.232    500.210    496.232    497.028    496.232
 39.170    492.000    500.695     -8.695    495.985    499.893    495.985    496.787    495.985
 39.270    490.000    500.408    -10.408    495.740    499.600    495.740    496.549    495.740
 39.370    508.656    500.140      8.517    495.497    499.325    495.497    496.312    495.497
 39.470    518.000    499.887     18.113    495.255    499.065    495.255    496.077    495.255
 39.570    536.108    499.647     36.461    495.014    498.819    495.014    495.844    495.014
 39.670    502.113    499.421      2.692    494.776    498.585    494.776    495.612    494.776
 39.770    485.000    499.206    -14.206    494.538    498.362    494.538    495.383    494.538
 39.870    474.145    499.001    -24.856    494.303    498.149    494.303    495.155    494.303
 39.970    496.000    498.804     -2.804    494.069    497.944    494.069    494.930    494.069
 40.070    476.347    498.622    -22.276    493.837    497.754    493.837    494.706    493.837
 40.170    504.179    498.453      5.726    493.606    497.576    493.606    494.484    493.606
 40.270    516.000    498.296     17.704    493.377    497.410    493.377    494.264    493.377
 40.370    511.703    498.153     13.551    493.150    497.257    493.150    494.046    493.150
 40.470    507.000    498.024      8.976    492.924    497.118    492.924    493.830    492.924
 40.570    479.000    497.910    -18.910    492.700    496.995    492.700    493.616    492.700
 40.670    532.513    497.815     34.698    492.477    496.890    492.477    493.403    492.477
 40.770    459.500    497.741    -38.240    492.256    496.805    492.256    493.193    492.256
 40.870    464.623    497.690    -33.067    492.037    496.743    492.037    492.985    492.037
 40.970    486.000    497.667    -11.667    491.820    496.709    491.820    492.779    491.820
 41.070    516.000    497.677     18.323    491.604    496.708    491.604    492.575    491.604
 41.170    468.617    497.727    -29.111    491.390    496.746    491.390    492.373    491.390
 41.270    468.000    497.827    -29.827    491.178    496.834    491.178    492.172    491.178
 41.370    485.000    497.988    -12.988    490.967    496.982    490.967    491.975    490.967
 41.470    470.000    498.228    -28.228    490.758    497.209    490.758    491.779    490.758
 41.570    504.000    498.572      5.428    490.550    497.539    490.550    491.585    490.550
 41.670    530.000    499.063     30.937    490.345    498.017    490.345    491.393    490.345
 41.770    540.442    499.786     40.656    490.141    498.726    490.141    491.204    490.141
 41.870    514.000    500.913     13.087    489.939    499.838    489.939    491.017    489.939
 41.970    488.000    502.796    -14.796    489.738    501.707    489.738    490.832    489.738
 42.070    498.000    506.084     -8.084    489.539    504.980    489.539    490.649    489.539
 42.170    481.000    511.799    -30.799    489.342    510.682    489.342    490.469    489.342
 42.270    499.591    521.236    -21.646    489.147    520.106    489.147    490.291    489.147
 42.370    496.067    535.515    -39.448    488.953    534.373    488.953    490.115    488.953
 42.470    577.559    554.777     22.782    488.761    553.626    488.761    489.941    488.761
 42.570    574.000    577.149     -3.149    488.571    575.990    488.571    489.770    488.571
 42.670    528.000    597.746    -69.746    488.383    596.579    488.383    489.602    488.383
 42.770    634.521    609.098     25.423    488.196    607.920    488.196    489.435    488.196
 42.870    589.000    605.710    -16.710    488.011    604.511    488.011    489.272    488.011
 42.970    574.658    589.365    -14.707    487.828    588.138    487.828    489.111    487.828
 43.070    560.000    567.098     -7.098    487.646    565.837    487.646    488.952    487.646
 43.170    525.000    545.446    -20.446    487.466    544.148    487.466    488.796    487.466
 43.270    502.000    527.949    -25.949    487.288    526.617    487.288    488.643    487.288
 43.370    516.000    515.530      0.470    487.112    514.165    487.112    488.492    487.112
 43.470    484.572    507.538    -22.966    486.938    506.141    486.938    488.345    486.938
 43.570    465.766    502.716    -36.950    486.765    501.288    486.765    488.200    486.765
 43.670    503.000    499.859      3.141    486.594    498.400    486.594    488.058    486.594
 43.770    501.612    498.104      3.508    486.425    496.613    486.425    487.919    486.425
 43.870    480.000    496.938    -16.938    486.257    495.416    486.257    487.783    486.257
 43.970    533.000    496.097     36.903    486.091    494.540    486.091    487.650    486.091
 44.070    454.884    495.449    -40.565    485.927    493.858    485.927    487.521    485.927
 44.170    519.813    494.932     24.880    485.765    493.305    485.765    487.395    485.765
 44.270    481.000    494.512    -13.512    485.605    492.847    485.605    487.272    485.605
 44.370    464.129    494.167    -30.037    485.446    492.462    485.446    487.153    485.446
 44.470    495.000    493.882      1.118    485.289    492.135    485.289    487.037    485.289
 44.570    508.000    493.647     14.353    485.134    491.857    485.134    486.925    485.134
 44.670    533.730    493.455     40.275    484.981    491.619    484.981    486.818    484.981
 44.770    532.393    493.299     39.094    484.829    491.415    484.829    486.714    484.829
 44.870    480.629    493.177    -12.548    484.679    491.242    484.679    486.615    484.679
 44.970    510.868    493.084     17.784    484.531    491.096    484.531    486.520    484.531
 45.070    517.868    493.018     24.850    484.384    490.974    484.384    486.429    484.384
 45.170    467.000    492.978    -25.978    484.240    490.875    484.240    486.344    484.240
 45.270    527.683    492.963     34.720    484.097    490.797    484.097    486.264    484.097
 45.370    506.000    492.973     13.027    483.956    490.741    483.956    486.189    483.956
 45.470    495.385    493.008      2.377    483.816    490.705    483.816    486.120    483.816
 45.570    518.000    493.067     24.933    483.679    490.690    483.679    486.057    483.679
 45.670    509.519    493.153     16.366    483.543    490.696    483.543    486.000    483.543
 45.770    472.000    493.266    -21.266    483.409    490.725    483.409    485.951    483.409
 45.870    490.000    493.409     -3.409    483.277    490.778    483.277    485.908    483.277
 45.970    499.000    493.584      5.416    483.146    490.857    483.146    485.874    483.146
 46.070    499.000    493.794      5.206    483.017    490.964    483.017    485.848    483.017
 46.170    467.000    494.044    -27.044    482.890    491.104    482.890    485.831    482.890
 46.270    498.000    494.338      3.662    482.765    491.279    482.765    485.824    482.765
 46.370    495.196    494.683      0.513    482.641    491.497    482.641    485.827    482.641
 46.470    534.000    495.088     38.912    482.519    491.765    482.519    485.843    482.519
 46.570    483.727    495.564    -11.837    482.399    492.091    482.399    485.871    482.399
 46.670    513.000    496.126     16.874    482.281    492.493    482.281    485.914    482.281
 46.770    524.138    496.801     27.338    482.164    492.992    482.164    485.972    482.164
 46.870    468.000    497.633    -29.633    482.049    493.633    482.049    486.047    482.049
 46.970    506.546    498.709      7.838    481.936    494.501    481.936    486.142    481.936
 47.070    487.000    500.193    -13.193    481.825    495.756    481.825    486.259    481.825
 47.170    471.000    502.382    -31.382    481.715    497.692    481.715    486.401    481.715
 47.270    534.000    505.740     28.260    481.607    500.771    481.607    486.570    481.607
 47.370    532.000    510.898     21.102    481.501    505.618    481.501    486.771    481.501
 47.470    528.347    518.511      9.836    481.396    512.885    481.396    487.008    481.396
 47.570    570.773    528.985     41.788    481.293    522.972    481.293    487.285    481.293
 47.670    563.000    542.079     20.921    481.192    535.633    481.192    487.608    481.192
 47.770    586.841    556.452     30.388    481.093    549.521    481.093    487.984    481.093
 47.870    580.000    569.310     10.690    480.995    561.838    480.995    488.420    480.995
 47.970    563.000    576.828    -13.828    480.899    568.753    480.899    488.923    480.899
 48.070    569.854    576.372     -6.518    480.805    567.626    480.805    489.503    480.805
 48.170    544.082    568.847    -24.765    480.712    559.350    480.712    490.169    480.712
 48.270    567.000    557.786      9.214    480.621    547.447    480.621    490.930    480.621
 48.370    559.000    546.716     12.284    480.532    535.429    480.532    491.797    480.532
 48.470    529.000    537.829     -8.829    480.444    525.480    480.444    492.780    480.444
 48.570    523.000    532.008     -9.008    480.358    518.473    480.358    493.886    480.358
 48.670    500.447    529.236    -28.788    480.274    514.383    480.274    495.123    480.274
 48.770    509.000    529.036    -20.036    480.192    512.734    480.192    496.492    480.192
 48.870    565.000    530.834     34.166    480.111    512.958    480.111    497.987    480.111
 48.970    502.000    534.187    -32.187    480.032    514.625    480.032    499.595    480.032
 49.070    525.163    538.897    -13.734    479.954    517.568    479.954    501.285    479.954
 49.170    558.000    545.127     12.873    479.878    522.000    479.878    503.008    479.878
 49.270    552.000    553.733     -1.733    479.804    528.847    479.804    504.692    479.804
 49.370    588.000    567.104     20.896    479.731    540.594    479.731    506.242    479.731
 49.470    599.000    590.859      8.141    479.660    562.968    479.660    507.547    479.660
 49.570    631.346    636.264     -4.917    479.591    607.348    479.591    508.492    479.591
 49.670    670.000    722.058    -52.058    479.523    692.569    479.523    508.978    479.523
 49.770    833.000    872.652    -39.652    479.457    843.095    479.457    508.950    479.457
 49.870   1097.951   1109.215    -11.264    479.393   1080.101    479.393    508.407    479.393
 49.970   1430.000   1433.421     -3.421    479.330   1405.219    479.330    507.403    479.330
 50.070   1818.712   1810.033      8.678    479.269   1783.135    479.269    506.035    479.269
 50.170   2096.000   2159.458    -63.458    479.209   2134.157    479.209    504.417    479.209
 50.270   2413.000   2374.027     38.973    479.151   2350.508    479.151    502.661    479.151
 50.370   2349.539   2370.471    -20.933    479.095   2348.797    479.095    500.865    479.095
 50.470   2068.451   2150.480    -82.029    479.040   2130.594    479.040    499.100    479.040
 50.570   1851.000   1799.474     51.526    478.987   1781.246    478.987    497.415    478.987
 50.670   1321.000   1425.448   -104.448    478.935   1408.725    478.935    495.843    478.935
 50.770   1066.000   1107.410    -41.410    478.885   1092.043    478.885    494.398    478.885
 50.870    856.000    879.666    -23.666    478.836    865.522    478.836    493.085    478.836
 50.970    750.000    739.423     10.577    478.789    726.381    478.789    491.904    478.789
 51.070    660.000    664.047     -4.047    478.744    651.997    478.744    490.848    478.744
 51.170    674.000    627.061     46.939    478.700    615.897    478.700    489.908    478.700
 51.270    617.320    607.408      9.912    478.658    597.029    478.658    489.076    478.658
 51.370    643.000    592.769     50.231    478.617    583.080    478.617    488.340    478.617
 51.470    606.000    578.766     27.234    478.577    569.680    478.577    487.692    478.577
 51.570    583.975    565.363     18.611    478.540    556.804    478.540    487.123    478.540
 51.670    573.000    553.582     19.418    478.503    545.481    478.503    486.622    478.503
 51.770    555.327    544.163     11.164    478.469    536.463    478.469    486.183    478.469
 51.870    558.000    537.335     20.665    478.435    529.982    478.435    485.798    478.435
 51.970    516.000    532.913    -16.913    478.403    525.863    478.403    485.462    478.403
 52.070    566.691    530.512     36.179    478.373    523.724    478.373    485.168    478.373
 52.170    537.000    529.739      7.261    478.344    523.177    478.344    484.912    478.344
 52.270    552.000    530.324     21.676    478.317    523.956    478.317    484.690    478.317
 52.370    512.163    532.215    -20.053    478.291    526.013    478.291    484.498    478.291
 52.470    542.000    535.669      6.331    478.267    529.607    478.267    484.333    478.267
 52.570    573.871    541.398     32.473    478.244    535.452    478.244    484.193    478.244
 52.670    602.000    550.807     51.193    478.222    544.957    478.222    484.076    478.222
 52.770    542.623    566.278    -23.655    478.202    560.504    478.202    483.978    478.202
 52.870    609.000    591.322     17.678    478.183    585.608    478.183    483.900    478.183
 52.970    671.853    630.335     41.518    478.166    624.663    478.166    483.840    478.166
 53.070    687.000    687.646     -0.646    478.150    682.002    478.150    483.796    478.150
 53.170    765.640    765.769     -0.130    478.136    760.140    478.136    483.768    478.136
 53.270    915.000    863.105     51.895    478.123    857.479    478.123    483.755    478.123
 53.370    948.000    971.438    -23.438    478.111    965.805    478.111    483.757    478.111
 53.470   1164.000   1073.928     90.072    478.100   1068.278    478.100    483.773    478.100
 53.570   1095.062   1145.848    -50.786    478.092   1140.172    478.092    483.803    478.092
 53.670   1111.367   1163.361    -51.995    478.084   1157.646    478.084    483.847    478.084
 53.770   1060.814   1119.586    -58.772    478.078   1113.812    478.078    483.904    478.078
 53.870   1016.000   1030.823    -14.823    478.073   1024.972    478.073    483.975    478.073
 53.970    971.640    923.498     48.142    478.069    917.553    478.069    484.059    478.069
 54.070    796.000    819.408    -23.408    478.067    813.354    478.067    484.158    478.067
 54.170    702.000    731.239    -29.239    478.066    725.062    478.066    484.270    478.066
 54.270    634.000    663.813    -29.813    478.067    657.502    478.067    484.398    478.067
 54.370    578.821    616.498    -37.676    478.068    610.041    478.068    484.540    478.068
 54.470    574.000    585.650    -11.650    478.071    579.034    478.071    484.698    478.071
 54.570    542.206    566.719    -24.513    478.076    559.930    478.076    484.873    478.076
 54.670    529.124    555.633    -26.509    478.081    548.656    478.081    485.065    478.081
 54.770    559.443    549.400     10.042    478.088    542.220    478.088    485.275    478.088
 54.870    519.399    546.116    -26.717    478.096    538.714    478.096    485.504    478.096
 54.970    538.809    544.702     -5.893    478.105    537.060    478.105    485.753    478.105
 55.070    560.000    544.609     15.391    478.116    536.706    478.116    486.025    478.116
 55.170    520.000    545.589    -25.589    478.128    537.402    478.128    486.319    478.128
 55.270    581.000    547.559     33.441    478.141    539.066    478.141    486.640    478.141
 55.370    552.000    550.544      1.456    478.155    541.717    478.155    486.987    478.155
 55.470    548.000    554.660     -6.660    478.171    545.472    478.171    487.364    478.171
 55.570    558.937    560.160     -1.222    478.187    550.578    478.187    487.774    478.187
 55.670    600.714    567.547     33.167    478.205    557.538    478.205    488.219    478.205
 55.770    595.000    577.832     17.168    478.224    567.358    478.224    488.704    478.224
 55.870    600.000    592.990      7.010    478.244    582.008    478.244    489.232    478.244
 55.970    626.772    616.679     10.093    478.265    605.140    478.265    489.808    478.265
 56.070    653.000    655.110     -2.110    478.288    642.960    478.288    490.439    478.288
 56.170    698.000    717.708    -19.708    478.312    704.886    478.312    491.130    478.312
 56.270    795.000    816.853    -21.853    478.336    803.290    478.336    491.889    478.336
 56.370    894.000    965.832    -71.832    478.362    951.452    478.362    492.726    478.362
 56.470   1115.242   1174.532    -59.290    478.389   1159.252    478.389    493.650    478.389
 56.570   1480.370   1443.330     37.040    478.417   1427.058    478.417    494.674    478.417
 56.670   1695.000   1756.627    -61.627    478.446   1739.267    478.446    495.810    478.446
 56.770   2116.053   2077.854     38.199    478.477   2059.296    478.477    497.075    478.477
 56.870   2346.000   2348.701     -2.701    478.508   2328.824    478.508    498.486    478.508
 56.970   2489.000   2500.627    -11.627    478.540   2479.280    478.540    500.062    478.540
 57.070   2534.574   2486.429     48.146    478.574   2463.422    478.574    501.825    478.574
 57.170   2277.000   2312.047    -35.047    478.608   2287.141    478.608    503.800    478.608
 57.270   1980.000   2031.798    -51.798    478.644   2004.718    478.644    506.011    478.644
 57.370   1724.000   1713.796     10.204    478.680   1684.248    478.680    508.488    478.680
 57.470   1416.000   1412.533      3.467    478.717   1380.207    478.717    511.258    478.717
 57.570   1164.539   1160.513      4.027    478.756   1125.082    478.756    514.352    478.756
 57.670    973.000    970.110      2.890    478.795    931.226    478.795    517.799    478.795
 57.770    807.000    839.066    -32.066    478.836    796.358    478.836    521.628    478.836
 57.870    801.107    757.155     43.952    478.877    710.228    478.877    525.861    478.877
 57.970    749.000    712.213     36.787    478.920    660.655    478.920    530.516    478.920
 58.070    706.000    694.179     11.821    478.963    637.570    478.963    535.597    478.963
 58.170    720.000    696.764     23.236    479.007    634.696    479.007    541.090    479.007
 58.270    708.000    717.222     -9.222    479.052    649.327    479.052    546.954    479.052
 58.370    752.000    754.979     -2.979    479.099    680.968    479.099    553.108    479.099
 58.470    830.679    809.821     20.858    479.146    729.534    479.146    559.424    479.146
 58.570    880.000    880.159     -0.159    479.193    793.624    479.193    565.715    479.193
 58.670    930.292    961.721    -31.429    479.242    869.221    479.242    571.728    479.242
 58.770    965.000   1047.176    -82.176    479.292    949.303    479.292    577.158    479.292
 58.870   1118.118   1127.471     -9.354    479.342   1025.154    479.342    581.664    479.342
 58.970   1259.000   1194.474     64.526    479.394   1088.968    479.394    584.918    479.394
 59.070   1272.000   1242.049     29.951    479.446   1134.873    479.446    586.655    479.446
 59.170   1320.000   1265.035     54.965    479.499   1157.854    479.499    586.727    479.499
 59.270   1361.000   1260.604    100.396    479.553   1155.080    479.553    585.134    479.553
 59.370   1255.000   1232.589     22.411    479.607   1130.229    479.607    582.023    479.607
 59.470   1236.000   1192.393     43.607    479.663   1094.438    479.663    577.659    479.663
 59.570   1105.715   1154.125    -48.410    479.719   1061.489    479.719    572.369    479.719
 59.670   1081.316   1129.977    -48.661    479.776   1043.237    479.776    566.494    479.776
 59.770   1147.000   1129.524     17.476    479.834   1048.952    479.834    560.341    479.834
 59.870   1176.153   1159.846     16.308    479.892   1085.464    479.892    554.162    479.892
 59.970   1243.000   1222.975     20.025    479.951   1154.619    479.951    548.147    479.951
 60.070   1256.142   1312.162    -56.020    480.011   1249.546    480.011    542.424    480.011
 60.170   1432.000   1410.132     21.868    480.072   1352.895    480.072    537.074    480.072
 60.270   1459.000   1490.638    -31.638    480.133   1438.390    480.133    532.138    480.133
 60.370   1559.869   1524.960     34.908    480.195   1477.297    480.195    527.632    480.195
 60.470   1458.626   1494.455    -35.828    480.258   1450.975    480.258    523.552    480.258
 60.570   1488.000   1401.345     86.655    480.321   1361.651    480.321    519.881    480.321
 60.670   1275.000   1266.228      8.772    480.385   1229.931    480.385    516.596    480.385
 60.770   1108.345   1115.804     -7.459    480.450   1082.536    480.450    513.669    480.450
 60.870   1004.000    972.814     31.186    480.515    942.236    480.515    511.070    480.515
 60.970    805.050    852.087    -47.037    480.581    823.889    480.581    508.770    480.581
 61.070    781.000    760.454     20.546    480.648    734.359    480.648    506.740    480.648
 61.170    686.000    698.637    -12.637    480.715    674.399    480.715    504.950    480.715
 61.270    676.000    664.077     11.923    480.783    641.479    480.783    503.373    480.783
 61.370    664.000    653.731     10.269    480.851    632.581    480.851    501.984    480.851
 61.470    642.000    665.944    -23.944    480.920    646.077    480.920    500.759    480.920
 61.570    679.640    700.971    -21.331    480.989    682.243    480.989    499.674    480.989
 61.670    740.000    760.128    -20.128    481.059    742.416    481.059    498.708    481.059
 61.770    766.000    843.936    -77.936    481.130    827.139    481.130    497.842    481.130
 61.870    893.000    949.824    -56.824    481.201    933.858    481.201    497.058    481.201
 61.970   1120.642   1070.091     50.551    481.273   1054.895    481.273    496.342    481.273
 62.070   1184.000   1190.734     -6.734    481.345   1176.262    481.345    495.680    481.345
 62.170   1311.000   1291.746     19.254    481.417   1277.966    481.417    495.063    481.417
 62.270   1377.074   1350.860     26.214    481.490   1337.751    481.490    494.485    481.490
 62.370   1261.000   1352.042    -91.042    481.564   1339.580    481.564    493.942    481.564
 62.470   1259.000   1294.473    -35.473    481.637   1282.629    481.637    493.432    481.637
 62.570   1202.000   1193.092      8.908    481.712   1181.829    481.712    492.954    481.712
 62.670   1106.695   1069.979     36.716    481.787   1059.257    481.787    492.507    481.787
 62.770    952.186    945.424      6.763    481.862    935.204    481.862    492.092    481.862
 62.870    840.000    833.772      6.228    481.937    824.017    481.937    491.707    481.937
 62.970    785.000    742.764     42.236    482.013    733.439    482.013    491.352    482.013
 63.070    685.000    674.449     10.551    482.090    665.523    482.090    491.027    482.090
 63.170    609.000    626.879    -17.879    482.166    618.323    482.166    490.729    482.166
 63.270    556.333    596.053    -39.720    482.243    587.841    482.243    490.458    482.243
 63.370    642.000    577.596     64.404    482.321    569.705    482.321    490.212    482.321
 63.470    594.000    567.873     26.127    482.398    560.280    482.398    489.989    482.398
 63.570    533.840    564.499    -30.659    482.476    557.182    482.476    489.788    482.476
 63.670    574.000    566.423      7.577    482.555    559.362    482.555    489.607    482.555
 63.770    608.000    573.778     34.222    482.633    566.953    482.633    489.445    482.633
 63.870    591.495    587.610      3.885    482.712    581.002    482.712    489.301    482.712
 63.970    652.000    609.510     42.490    482.791    603.100    482.791    489.173    482.791
 64.070    649.000    641.126      7.874    482.871    634.897    482.871    489.061    482.871
 64.170    684.722    683.533      1.189    482.951    677.468    482.951    488.962    482.951
 64.270    810.000    736.514     73.486    483.031    730.599    483.031    488.877    483.031
 64.370    792.000    797.840     -5.840    483.111    792.064    483.111    488.803    483.111
 64.470    828.982    862.671    -33.689    483.191    857.025    483.191    488.741    483.191
 64.570    859.000    923.386    -64.386    483.272    917.865    483.272    488.689    483.272
 64.670    931.777    970.542    -38.765    483.352    965.145    483.352    488.647    483.352
 64.770    965.927    995.628    -29.701    483.433    990.355    483.433    488.615    483.433
 64.870   1044.868    994.518     50.349    483.514    989.369    483.514    488.591    483.514
 64.970   1006.804    968.965     37.839    483.595    963.934    483.595    488.574    483.595
 65.070    913.989    925.316    -11.327    483.677    920.397    483.677    488.566    483.677
 65.170    844.000    871.988    -27.988    483.758    867.172    483.758    488.564    483.758
 65.270    828.674    816.865     11.809    483.840    812.142    483.840    488.570    483.840
 65.370    738.000    765.482    -27.482    483.921    760.841    483.921    488.582    483.921
 65.470    739.676    720.548     19.128    484.003    715.979    484.003    488.599    484.003
 65.570    687.241    682.612      4.629    484.085    678.104    484.085    488.623    484.085
 65.670    636.000    651.213    -15.213    484.167    646.758    484.167    488.653    484.167
 65.770    636.000    625.732     10.268    484.249    621.320    484.249    488.687    484.249
 65.870    583.771    605.577    -21.806    484.331    601.202    484.331    488.727    484.331
 65.970    608.439    590.105     18.334    484.413    585.762    484.413    488.773    484.413
 66.070    581.100    578.638      2.462    484.495    574.323    484.495    488.823    484.495
 66.170    592.691    570.550     22.141    484.577    566.259    484.577    488.877    484.577
 66.270    606.221    565.317     40.904    484.659    561.046    484.659    488.937    484.659
 66.370    576.000    562.533     13.467    484.741    558.278    484.741    489.001    484.741
 66.470    551.000    561.907    -10.907    484.823    557.664    484.823    489.070    484.823
 66.570    557.000    563.289     -6.289    484.905    559.056    484.905    489.143    484.905
 66.670    555.000    566.747    -11.747    484.987    562.518    484.987    489.221    484.987
 66.770    570.000    572.689     -2.689    485.068    568.459    485.068    489.303    485.068
 66.870    623.729    582.062     41.667    485.150    577.827    485.150    489.390    485.150
 66.970    614.000    596.616     17.384    485.232    592.371    485.232    489.482    485.232
 67.070    642.000    619.216     22.784    485.313    614.955    485.313    489.578    485.313
 67.170    617.000    654.118    -37.118    485.395    649.836    485.395    489.679    485.395
 67.270    693.000    707.047    -14.047    485.476    702.738    485.476    489.785    485.476
 67.370    713.000    784.848    -71.848    485.557    780.509    485.557    489.896    485.557
 67.470    873.000    894.516    -21.516    485.638    890.144    485.638    490.011    485.638
 67.570   1033.000   1041.520     -8.520    485.719   1037.116    485.719    490.132    485.719
 67.670   1169.154   1227.579    -58.426    485.799   1223.147    485.799    490.259    485.799
 67.770   1451.000   1448.318      2.682    485.880   1443.862    485.880    490.391    485.880
 67.870   1639.000   1691.280    -52.280    485.960   1686.809    485.960    490.529    485.960
 67.970   1931.000   1934.726     -3.726    486.040   1930.249    486.040    490.674    486.040
 68.070   2275.000   2147.831    127.169    486.120   2143.352    486.120    490.825    486.120
 68.170   2205.345   2294.317    -88.972    486.199   2289.834    486.199    490.983    486.199
 68.270   2396.095   2342.712     53.383    486.279   2338.205    486.279    491.148    486.279
 68.370   2338.000   2281.166     56.834    486.358   2276.601    486.358    491.321    486.358
 68.470   2149.000   2124.571     24.429    486.437   2119.907    486.437    491.502    486.437
 68.570   1950.995   1905.902     45.093    486.515   1901.100    486.515    491.692    486.515
 68.670   1724.000   1661.287     62.713    486.593   1656.318    486.593    491.891    486.593
 68.770   1424.000   1420.542      3.458    486.671   1415.385    486.671    492.101    486.671
 68.870   1227.330   1204.187     23.143    486.749   1198.831    486.749    492.322    486.749
 68.970   1022.000   1023.547     -1.547    486.826   1017.984    486.826    492.555    486.826
 69.070    897.946    882.082     15.864    486.903    876.305    486.903    492.800    486.903
 69.170    772.561    777.442     -4.881    486.979    771.447    486.979    493.060    486.979
 69.270    728.403    703.827     24.575    487.056    697.608    487.056    493.335    487.056
 69.370    634.000    654.160    -20.160    487.131    647.707    487.131    493.627    487.131
 69.470    659.967    621.672     38.295    487.207    614.972    487.207    493.938    487.207
 69.570    582.000    600.789    -18.789    487.282    593.824    487.282    494.269    487.282
 69.670    598.000    587.397     10.603    487.356    580.148    487.356    494.624    487.356
 69.770    586.008    578.724      7.283    487.431    571.165    487.431    495.004    487.431
 69.870    586.000    573.035     12.965    487.504    565.139    487.504    495.413    487.504
 69.970    568.000    569.316     -1.316    487.578    561.049    487.578    495.855    487.578
 70.070    573.426    567.005      6.421    487.651    558.331    487.651    496.334    487.651
 70.170    580.000    565.817     14.183    487.723    556.692    487.723    496.855    487.723
 70.270    618.000    565.633     52.367    487.795    556.009    487.795    497.426    487.795
 70.370    522.000    566.459    -44.459    487.866    556.278    487.866    498.053    487.866
 70.470    530.344    568.419    -38.075    487.937    557.615    487.937    498.745    487.937
 70.570    568.506    571.800     -3.294    488.007    560.297    488.007    499.513    488.007
 70.670    603.356    577.134     26.221    488.077    564.843    488.077    500.370    488.077
 70.770    586.266    585.319      0.947    488.147    572.135    488.147    501.329    488.147
 70.870    570.000    597.770    -27.770    488.215    583.574    488.215    502.408    488.215
 70.970    654.000    616.581     37.419    488.284    601.231    488.284    503.625    488.284
 71.070    650.238    644.614      5.624    488.351    627.949    488.351    505.001    488.351
 71.170    660.000    685.461    -25.461    488.418    667.295    488.418    506.560    488.418
 71.270    712.665    743.157    -30.492    488.485    723.277    488.485    508.327    488.485
 71.370    789.000    821.580    -32.580    488.550    799.748    488.550    510.330    488.550
 71.470    897.000    923.544    -26.544    488.616    899.493    488.616    512.596    488.616
 71.570   1025.000   1049.668    -24.668    488.680   1023.103    488.680    515.155    488.680
 71.670   1195.000   1197.229     -2.229    488.744   1167.832    488.744    518.032    488.744
 71.770   1296.540   1359.192    -62.652    488.808   1326.620    488.808    521.254    488.808
 71.870   1484.000   1523.581    -39.581    488.870   1487.478    488.870    524.838    488.870
 71.970   1615.000   1673.473    -58.473    488.932   1633.472    488.932    528.798    488.932
 72.070   1853.444   1788.464     64.980    488.994   1744.203    488.994    533.133    488.994
 72.170   1820.000   1849.071    -29.071    489.054   1800.203    489.054    537.826    489.054
 72.270   1882.000   1843.868     38.132    489.114   1790.087    489.114    542.835    489.114
 72.370   1752.000   1774.938    -22.938    489.173   1716.004    489.173    548.083    489.173
 72.470   1655.000   1656.683     -1.683    489.232   1592.469    489.232    553.451    489.232
 72.570   1455.000   1509.234    -54.234    489.289   1439.786    489.289    558.765    489.289
 72.670   1306.274   1351.974    -45.700    489.346   1277.565    489.346    563.797    489.346
 72.770   1178.000   1200.137    -22.137    489.403   1121.325    489.403    568.263    489.403
 72.870   1076.000   1063.915     12.085    489.458    981.566    489.458    571.857    489.458
 72.970    948.000    948.723     -0.723    489.513    863.998    489.513    574.286    489.513
 73.070    844.000    856.003    -12.003    489.567    770.282    489.567    575.331    489.567
 73.170    773.403    784.318    -10.916    489.620    699.082    489.620    574.894    489.620
 73.270    760.000    730.545     29.455    489.672    647.227    489.672    573.024    489.672
 73.370    690.000    690.925     -0.925    489.724    610.776    489.724    569.902    489.724
 73.470    615.000    661.850    -46.850    489.774    585.848    489.774    565.802    489.774
 73.570    606.700    640.301    -33.601    489.824    569.118    489.824    561.031    489.824
 73.670    603.000    624.007    -21.007    489.873    558.020    489.873    555.883    489.873
 73.770    605.000    611.408     -6.408    489.921    550.744    489.921    550.607    489.921
 73.870    587.000    601.506    -14.506    489.968    546.100    489.968    545.396    489.968
 73.970    598.703    593.703      5.001    490.015    543.353    490.015    540.388    490.015
 74.070    514.000    587.637    -73.637    490.060    542.051    490.060    535.672    490.060
 74.170    598.000    583.062     14.938    490.105    541.893    490.105    531.302    490.105
 74.270    614.000    579.752     34.248    490.148    542.630    490.148    527.302    490.148
 74.370    597.000    577.449     19.551    490.191    543.998    490.191    523.679    490.191
 74.470    616.061    575.826     40.235    490.233    545.677    490.233    520.424    490.233
 74.570    625.000    574.477     50.523    490.274    547.277    490.274    517.520    490.274
 74.670    560.267    572.943    -12.676    490.314    548.362    490.314    514.944    490.314
 74.770    629.000    570.799     58.201    490.353    548.534    490.353    512.669    490.353
 74.870    609.223    567.792     41.431    490.391    547.567    490.391    510.667    490.391
 74.970    623.000    563.950     59.050    490.428    545.516    490.428    508.909    490.428
 75.070    609.000    559.568     49.432    490.464    542.706    490.464    507.369    490.464
 75.170    521.149    555.096    -33.947    490.499    539.613    490.499    506.020    490.499
 75.270    560.000    551.032      8.968    490.533    536.759    490.533    504.837    490.533
 75.370    559.000    547.864     11.136    490.566    534.655    490.566    503.799    490.566
 75.470    561.000    546.065     14.935    490.598    533.794    490.598    502.886    490.598
 75.570    516.831    546.097    -29.266    490.629    534.655    490.629    502.081    490.629
 75.670    565.027    548.418     16.609    490.659    537.713    490.659    501.368    490.659
 75.770    574.000    553.453     20.547    490.688    543.404    490.688    500.734    490.688
 75.870    598.000    561.547     36.453    490.716    552.084    490.716    500.168    490.716
 75.970    554.406    572.894    -18.488    490.743    563.959    490.743    499.661    490.743
 76.070    591.480    587.447      4.033    490.768    578.987    490.768    499.205    490.768
 76.170    616.000    604.816     11.184    490.793    596.786    490.793    498.792    490.793
 76.270    642.872    624.185     18.686    490.816    616.546    490.816    498.417    490.816
 76.370    677.579    644.252     33.328    490.839    636.970    490.839    498.076    490.839
 76.470    633.000    663.213    -30.213    490.860    656.260    490.860    497.763    490.860
 76.570    635.000    678.851    -43.851    490.880    672.202    490.880    497.476    490.880
 76.670    683.000    688.838     -5.838    490.899    682.472    490.899    497.212    490.899
 76.770    732.798    691.357     41.442    490.917    685.256    490.917    496.968    490.917
 76.870    706.000    685.817     20.183    490.934    679.964    490.934    496.743    490.934
 76.970    667.000    673.134     -6.134    490.950    667.512    490.950    496.533    490.950
 77.070    701.680    655.304     46.376    490.964    649.898    490.964    496.339    490.964
 77.170    627.891    634.659     -6.768    490.977    629.454    490.977    496.157    490.977
 77.270    577.000    613.307    -36.307    490.989    608.290    490.989    495.987    490.989
 77.370    547.000    592.888    -45.888    491.000    588.045    491.000    495.828    491.000
 77.470    613.000    574.521     38.479    491.010    569.841    491.010    495.679    491.010
 77.570    578.000    558.839     19.161    491.019    554.311    491.019    495.539    491.019
 77.670    559.000    546.051     12.949    491.026    541.665    491.026    495.407    491.026
 77.770    527.000    536.046     -9.046    491.032    531.792    491.032    495.283    491.032
 77.870    497.342    528.498    -31.156    491.037    524.368    491.037    495.165    491.037
 77.970    546.663    522.977     23.687    491.041    518.962    491.041    495.054    491.041
 78.070    516.000    519.030     -3.030    491.043    515.124    491.043    494.949    491.043
 78.170    498.062    516.251    -18.189    491.044    512.447    491.044    494.848    491.044
 78.270    478.850    514.303    -35.452    491.044    510.594    491.044    494.753    491.044
 78.370    518.471    512.929      5.542    491.043    509.309    491.043    494.662    491.043
 78.470    513.844    511.948      1.896    491.040    508.413    491.040    494.575    491.040
 78.570    497.000    511.241    -14.241    491.036    507.785    491.036    494.492    491.036
 78.670    508.565    510.733     -2.168    491.031    507.351    491.031    494.413    491.031
 78.770    538.141    510.383     27.758    491.025    507.071    491.025    494.337    491.025
 78.870    458.000    510.173    -52.173    491.017    506.927    491.017    494.263    491.017
 78.970    512.070    510.101      1.969    491.008    506.916    491.008    494.193    491.008
 79.070    530.077    510.176     19.901    490.997    507.048    490.997    494.126    490.997
 79.170    531.000    510.417     20.583    490.986    507.343    490.986    494.060    490.986
 79.270    542.000    510.849     31.151    490.973    507.825    490.973    493.997    490.973
 79.370    482.000    511.505    -29.505    490.958    508.526    490.958    493.937    490.958
 79.470    522.000    512.419      9.581    490.943    509.483    490.943    493.878    490.943
 79.570    541.680    513.621     28.060    490.926    510.725    490.926    493.821    490.926
 79.670    542.000    515.196     26.804    490.907    512.336    490.907    493.765    490.907
 79.770    542.572    517.249     25.324    490.888    514.423    490.888    493.711    490.888
 79.870    508.543    519.877    -11.334    490.866    517.082    490.866    493.659    490.866
 79.970    504.090    523.236    -19.146    490.844    520.469    490.844    493.607    490.844
 80.070    505.096    527.527    -22.430    490.820    524.787    490.820    493.556    490.820
 80.170    504.728    533.004    -28.276    490.795    530.289    490.795    493.506    490.795
 80.270    537.000    539.977     -2.977    490.768    537.286    490.768    493.456    490.768
 80.370    553.000    548.799      4.201    490.740    546.132    490.740    493.406    490.740
 80.470    573.000    559.824     13.176    490.711    557.181    490.711    493.355    490.711
 80.570    590.000    573.324     16.676    490.680    570.705    490.680    493.303    490.680
 80.670    548.780    589.387    -40.607    490.648    586.793    490.648    493.250    490.648
 80.770    578.569    607.827    -29.257    490.614    605.259    490.614    493.195    490.614
 80.870    583.000    628.130    -45.130    490.579    625.590    490.579    493.137    490.579
 80.970    608.131    649.445    -41.314    490.543    646.935    490.543    493.077    490.543
 81.070    648.000    670.643    -22.643    490.505    668.165    490.505    493.015    490.505
 81.170    689.000    690.462     -1.462    490.466    688.016    490.466    492.950    490.466
 81.270    724.000    707.691     16.309    490.425    705.278    490.425    492.882    490.425
 81.370    711.000    721.322    -10.322    490.383    718.943    490.383    492.812    490.383
 81.470    720.144    730.625    -10.480    490.339    728.279    490.339    492.741    490.339
 81.570    691.247    735.188    -43.941    490.294    732.876    490.294    492.668    490.294
 81.670    713.063    734.935    -21.871    490.248    732.655    490.248    492.595    490.248
 81.770    736.910    730.071      6.839    490.200    727.822    490.200    492.520    490.200
 81.870    676.682    721.021    -44.340    490.150    718.800    490.150    492.445    490.150
 81.970    710.000    708.431      1.569    490.099    706.235    490.099    492.369    490.099
 82.070    643.000    693.187    -50.187    490.047    691.015    490.047    492.293    490.047
 82.170    705.968    676.330     29.637    489.993    674.178    489.993    492.217    489.993
 82.270    635.000    658.846    -23.846    489.937    656.711    489.937    492.140    489.937
 82.370    693.000    641.484     51.516    489.881    639.366    489.881    492.064    489.881
 82.470    655.000    624.721     30.279    489.822    622.616    489.822    491.987    489.822
 82.570    628.000    608.837     19.163    489.762    606.744    489.762    491.911    489.762
 82.670    570.479    594.056    -23.578    489.701    591.973    489.701    491.834    489.701
 82.770    561.000    580.615    -19.615    489.638    578.539    489.638    491.757    489.638
 82.870    578.000    568.764      9.236    489.574    566.694    489.574    491.679    489.574
 82.970    528.000    558.732    -30.732    489.508    556.666    489.508    491.602    489.508
 83.070    498.000    550.690    -52.690    489.441    548.627    489.441    491.524    489.441
 83.170    498.000    544.738    -46.738    489.372    542.677    489.372    491.445    489.372
 83.270    523.819    540.898    -17.079    489.301    538.838    489.301    491.366    489.301
 83.370    494.000    539.105    -45.105    489.229    537.044    489.229    491.287    489.229
 83.470    538.000    539.199     -1.199    489.156    537.137    489.156    491.207    489.156
 83.570    492.000    540.919    -48.919    489.081    538.854    489.081    491.127    489.081
 83.670    522.000    543.906    -21.906    489.005    541.838    489.005    491.046    489.005
 83.770    555.970    547.704      8.266    488.927    545.633    488.927    490.964    488.927
 83.870    576.000    551.777     24.223    488.847    549.704    488.847    490.882    488.847
 83.970    517.030    555.537    -38.506    488.766    553.461    488.766    490.798    488.766
 84.070    531.000    558.389    -27.389    488.683    556.312    488.683    490.715    488.683
 84.170    551.000    559.817     -8.817    488.599    557.739    488.599    490.630    488.599
 84.270    509.000    559.487    -50.487    488.514    557.411    488.514    490.545    488.514
 84.370    520.460    557.334    -36.874    488.426    555.259    488.426    490.459    488.426
 84.470    567.008    553.562     13.446    488.337    551.489    488.337    490.372    488.337
 84.570    563.676    548.567     15.109    488.247    546.496    488.247    490.284    488.247
 84.670    576.207    542.825     33.383    488.155    540.755    488.155    490.195    488.155
 84.770    519.000    536.798    -17.798    488.062    534.729    488.062    490.106    488.062
 84.870    535.973    530.884      5.089    487.967    528.815    487.967    490.015    487.967
 84.970    564.784    525.389     39.395    487.870    523.319    487.870    489.924    487.870
 85.070    534.889    520.525     14.364    487.772    518.452    487.772    489.832    487.772
 85.170    491.000    516.408    -25.408    487.673    514.331    487.673    489.739    487.673
 85.270    527.103    513.073     14.030    487.571    510.992    487.571    489.645    487.571
 85.370    559.000    510.497     48.503    487.469    508.408    487.469    489.551    487.469
 85.470    537.000    508.612     28.388    487.364    506.516    487.364    489.455    487.364
 85.570    485.000    507.336    -22.336    487.259    505.231    487.259    489.359    487.259
 85.670    501.000    506.587     -5.587    487.151    504.472    487.151    489.262    487.151
 85.770    517.887    506.299     11.588    487.042    504.172    487.042    489.164    487.042
 85.870    535.236    506.431     28.805    486.932    504.292    486.932    489.065    486.932
 85.970    485.337    506.978    -21.641    486.820    504.825    486.820    488.965    486.820
 86.070    526.000    507.968     18.032    486.706    505.800    486.706    488.865    486.706
 86.170    539.000    509.464     29.536    486.591    507.280    486.591    488.764    486.591
 86.270    583.000    511.564     71.436    486.474    509.363    486.474    488.662    486.474
 86.370    517.106    514.387      2.718    486.356    512.167    486.356    488.559    486.356
 86.470    549.000    518.069     30.931    486.236    515.828    486.236    488.456    486.236
 86.570    533.926    522.741     11.185    486.115    520.476    486.115    488.352    486.115
 86.670    519.257    528.513     -9.256    485.992    526.223    485.992    488.247    485.992
 86.770    570.093    535.448     34.645    485.867    533.132    485.867    488.142    485.867
 86.870    568.000    543.536     24.464    485.741    541.190    485.741    488.036    485.741
 86.970    565.000    552.665     12.335    485.614    550.289    485.614    487.930    485.614
 87.070    519.097    562.600    -43.504    485.484    560.191    485.484    487.823    485.484
 87.170    560.000    572.968    -12.968    485.354    570.525    485.354    487.716    485.354
 87.270    611.000    583.246     27.754    485.221    580.770    485.221    487.608    485.221
 87.370    638.847    592.777     46.070    485.088    590.267    485.088    487.500    485.088
 87.470    592.000    600.806     -8.806    484.952    598.263    484.952    487.391    484.952
 87.570    607.000    606.575      0.425    484.815    604.002    484.815    487.282    484.815
 87.670    660.000    609.493     50.507    484.677    606.892    484.677    487.173    484.677
 87.770    630.000    609.299     20.701    484.537    606.672    484.537    487.064    484.537
 87.870    618.255    606.152     12.104    484.396    603.501    484.396    486.955    484.396
 87.970    615.498    600.573     14.926    484.253    597.899    484.253    486.846    484.253
 88.070    609.248    593.302     15.947    484.108    590.604    484.108    486.737    484.108
 88.170    600.000    585.151     14.849    483.962    582.429    483.962    486.628    483.962
 88.270    585.000    576.911      8.089    483.814    574.163    483.814    486.519    483.814
 88.370    547.000    569.290    -22.290    483.665    566.512    483.665    486.411    483.665
 88.470    632.000    562.872     69.128    483.515    560.062    483.515    486.303    483.515
 88.570    518.688    558.090    -39.401    483.363    555.245    483.363    486.196    483.363
 88.670    583.000    555.204     27.796    483.209    552.321    483.209    486.089    483.209
 88.770    594.716    554.302     40.414    483.054    551.378    483.054    485.984    483.054
 88.870    552.000    555.308     -3.308    482.897    552.340    482.897    485.880    482.897
 88.970    544.000    557.982    -13.982    482.739    554.967    482.739    485.777    482.739
 89.070    564.000    561.950      2.050    482.579    558.884    482.579    485.676    482.579
 89.170    579.000    566.721     12.279    482.418    563.601    482.418    485.576    482.418
 89.270    594.000    571.715     22.285    482.256    568.537    482.256    485.479    482.256
 89.370    573.000    576.294     -3.294    482.091    573.053    482.091    485.384    482.091
 89.470    545.159    579.821    -34.662    481.926    576.512    481.926    485.292    481.926
 89.570    617.372    581.738     35.634    481.759    578.355    481.759    485.203    481.759
 89.670    535.000    581.671    -46.671    481.590    578.207    481.590    485.118    481.590
 89.770    592.000    579.506     12.494    481.420    575.954    481.420    485.037    481.420
 89.870    590.000    575.406     14.594    481.249    571.757    481.249    484.960    481.249
 89.970    560.000    569.748     -9.748    481.076    565.994    481.076    484.889    481.076
 90.070    502.000    563.015    -61.015    480.901    559.148    480.901    484.824    480.901
 90.170    536.000    555.710    -19.710    480.726    551.720    480.726    484.765    480.726
 90.270    540.000    548.288     -8.288    480.548    544.165    480.548    484.714    480.548
 90.370    540.000    541.129     -1.129    480.370    536.864    480.370    484.671    480.370
 90.470    529.000    534.523     -5.523    480.190    530.106    480.190    484.637    480.190
 90.570    518.349    528.671    -10.322    480.008    524.091    480.008    484.613    480.008
 90.670    546.000    523.689     22.311    479.825    518.932    479.825    484.601    479.825
 90.770    508.000    519.616    -11.616    479.641    514.671    479.641    484.601    479.641
 90.870    524.000    516.434      7.566    479.455    511.286    479.455    484.615    479.455
 90.970    486.761    514.087    -27.326    479.268    508.721    479.268    484.643    479.268
 91.070    480.401    512.497    -32.095    479.079    506.895    479.079    484.687    479.079
 91.170    484.000    511.581    -27.581    478.889    505.726    478.889    484.749    478.889
 91.270    529.512    511.272     18.240    478.698    505.144    478.698    484.829    478.698
 91.370    479.611    511.522    -31.911    478.506    505.101    478.506    484.929    478.506
 91.470    519.000    512.316      6.684    478.312    505.578    478.312    485.050    478.312
 91.570    536.000    513.674     22.326    478.116    506.596    478.116    485.193    478.116
 91.670    511.224    515.652     -4.428    477.919    508.209    477.919    485.359    477.919
 91.770    518.000    518.343     -0.343    477.721    510.511    477.721    485.550    477.721
 91.870    519.000    521.875     -2.875    477.522    513.625    477.522    485.765    477.522
 91.970    554.605    526.398     28.207    477.321    517.704    477.321    486.007    477.321
 92.070    515.000    532.079    -17.079    477.119    522.913    477.119    486.274    477.119
 92.170    541.000    539.089      1.911    476.916    529.424    476.916    486.566    476.916
 92.270    527.000    547.583    -20.583    476.711    537.391    476.711    486.883    476.711
 92.370    572.591    557.678     14.913    476.505    546.936    476.505    487.224    476.505
 92.470    582.000    569.443     12.557    476.298    558.128    476.298    487.585    476.298
 92.570    574.000    582.914     -8.914    476.090    571.006    476.090    487.964    476.090
 92.670    566.445    597.993    -31.548    475.880    585.478    475.880    488.355    475.880
 92.770    595.000    614.500    -19.500    475.669    601.371    475.669    488.753    475.669
 92.870    653.000    632.148     20.852    475.457    618.405    475.457    489.149    475.457
 92.970    661.000    650.537     10.463    475.243    636.191    475.243    489.534    475.243
 93.070    702.000    669.169     32.831    475.029    654.241    475.029    489.896    475.029
 93.170    644.818    687.485    -42.667    474.813    672.010    474.813    490.224    474.813
 93.270    675.000    704.943    -29.943    474.596    688.970    474.596    490.503    474.596
 93.370    729.332    721.127      8.205    474.378    704.720    474.378    490.718    474.378
 93.470    727.000    735.830     -8.830    474.158    719.064    474.158    490.858    474.158
 93.570    753.000    749.080      3.920    473.937    732.042    473.937    490.910    473.937
 93.670    807.000    761.083     45.917    473.716    743.870    473.716    490.865    473.716
 93.770    756.000    772.108    -16.108    473.493    754.820    473.493    490.719    473.493
 93.870    834.627    782.390     52.237    473.269    765.128    473.269    490.470    473.269
 93.970    799.000    792.095      6.905    473.043    774.958    473.043    490.122    473.043
 94.070    808.814    801.359      7.455    472.817    784.438    472.817    489.683    472.817
 94.170    819.985    810.348      9.637    472.590    793.722    472.590    489.164    472.590
 94.270    841.371    819.272     22.099    472.361    803.008    472.361    488.576    472.361
 94.370    877.500    828.325     49.175    472.132    812.476    472.132    487.935    472.132
 94.470    814.025    837.556    -23.531    471.901    822.160    471.901    487.255    471.901
 94.570    851.432    846.751      4.681    471.669    831.834    471.669    486.548    471.669
 94.670    884.264    855.370     28.894    471.436    840.945    471.436    485.828    471.436
 94.770    901.000    862.564     38.436    471.203    848.634    471.203    485.105    471.203
 94.870    881.000    867.264     13.736    470.968    853.825    470.968    484.386    470.968
 94.970    890.000    868.350     21.650    470.732    855.387    470.732    483.681    470.732
 95.070    892.000    864.866     27.134    470.495    852.361    470.495    482.994    470.495
 95.170    917.000    856.262     60.738    470.257    844.191    470.257    482.329    470.257
 95.270    838.000    842.534     -4.534    470.019    830.870    470.019    481.690    470.019
 95.370    890.000    824.375     65.625    469.779    813.089    469.779    481.078    469.779
 95.470    770.138    802.956    -32.818    469.538    792.015    469.538    480.496    469.538
 95.570    785.141    779.707      5.433    469.297    769.080    469.297    479.943    469.297
 95.670    760.130    756.230      3.900    469.054    745.883    469.054    479.421    469.054
 95.770    749.000    734.138     14.862    468.811    724.038    468.811    478.929    468.811
 95.870    669.835    714.972    -45.137    468.566    705.088    468.566    478.467    468.566
 95.970    733.090    700.152     32.938    468.321    690.451    468.321    478.034    468.321
 96.070    717.000    690.939     26.061    468.075    681.390    468.075    477.631    468.075
 96.170    732.399    688.415     43.984    467.828    678.989    467.828    477.255    467.828
 96.270    695.000    693.470      1.530    467.581    684.136    467.581    476.908    467.581
 96.370    659.275    706.785    -47.510    467.332    697.516    467.332    476.588    467.332
 96.470    698.000    728.819    -30.819    467.083    719.587    467.083    476.294    467.083
 96.570    754.000    759.781     -5.781    466.833    750.558    466.833    476.027    466.833
 96.670    787.000    799.592    -12.592    466.582    790.353    466.582    475.786    466.582
 96.770    814.136    847.839    -33.703    466.330    838.559    466.330    475.570    466.330
 96.870    861.000    903.720    -42.720    466.078    894.372    466.078    475.381    466.078
 96.970    993.000    965.987     27.013    465.825    956.547    465.825    475.216    465.825
 97.070   1026.000   1032.911     -6.911    465.571   1023.355    465.571    475.079    465.571
 97.170   1109.016   1102.256      6.760    465.317   1092.558    465.317    474.967    465.317
 97.270   1174.000   1171.278      2.722    465.062   1161.413    465.062    474.884    465.062
 97.370   1216.000   1236.775    -20.775    464.806   1226.718    464.806    474.829    464.806
 97.470   1260.525   1295.208    -34.683    464.550   1284.931    464.550    474.804    464.550
 97.570   1306.788   1342.949    -36.161    464.293   1332.423    464.293    474.811    464.293
 97.670   1417.000   1376.708     40.292    464.035   1365.901    464.035    474.851    464.035
 97.770   1316.000   1394.062    -78.062    463.777   1382.939    463.777    474.927    463.777
 97.870   1353.000   1393.945    -40.945    463.519   1382.466    463.519    475.041    463.519
 97.970   1412.285   1376.856     35.429    463.259   1364.979    463.259    475.197    463.259
 98.070   1378.000   1344.703     33.297    463.000   1332.379    463.000    475.397    463.000
 98.170   1305.000   1300.371      4.629    462.739   1287.549    462.739    475.644    462.739
 98.270   1284.000   1247.243     36.757    462.479   1233.867    462.479    475.943    462.479
 98.370   1207.000   1188.807     18.193    462.217   1174.817    462.217    476.298    462.217
 98.470   1144.000   1128.400     15.600    461.956   1113.734    461.956    476.712    461.956
 98.570   1028.000   1069.112    -41.112    461.694   1053.702    461.694    477.190    461.694
 98.670    989.000   1013.660    -24.660    461.431    997.435    461.431    477.737    461.431
 98.770    978.000    964.376     13.624    461.168    947.260    461.168    478.356    461.168
 98.870    946.710    923.223     23.488    460.905    905.138    460.905    479.054    460.905
 98.970    858.973    891.805    -32.832    460.642    872.668    460.642    479.834    460.642
 99.070    905.530    871.378     34.151    460.378    851.102    460.378    480.700    460.378
 99.170    850.000    862.873    -12.873    460.114    841.367    460.114    481.658    460.114
 99.270    861.000    866.910     -5.910    459.849    844.081    459.849    482.710    459.849
 99.370    913.000    883.822     29.178    459.584    859.572    459.584    483.861    459.584
 99.470    902.000    913.663    -11.663    459.319    887.893    459.319    485.112    459.319
 99.570    927.000    956.207    -29.207    459.054    928.816    459.054    486.466    459.054
 99.670   1008.000   1010.928     -2.928    458.789    981.816    458.789    487.924    458.789
 99.770   1043.000   1076.974    -33.974    458.523   1046.040    458.523    489.484    458.523
 99.870   1214.464   1153.120     61.344    458.257   1120.268    458.257    491.144    458.257
 99.970   1298.327   1237.732     60.596    457.991   1202.868    457.991    492.900    457.991
100.070   1310.000   1328.723    -18.723    457.725   1291.764    457.725    494.744    457.725
100.170   1479.329   1423.548     55.782    457.459   1384.418    457.459    496.665    457.459
100.270   1497.000   1519.228    -22.228    457.193   1477.869    457.193    498.650    457.193
100.370   1599.329   1612.476    -13.148    456.927   1568.846    456.927    500.679    456.927
100.470   1732.361   1699.899     32.462    456.660   1653.981    456.660    502.728    456.660
100.570   1720.000   1778.284    -58.284    456.394   1730.088    456.394    504.766    456.394
100.670   1837.207   1844.860     -7.652    456.128   1794.433    456.128    506.759    456.128
100.770   1881.000   1897.437    -16.437    455.862   1844.867    455.862    508.663    455.862
100.870   1855.314   1934.386    -79.071    455.595   1879.804    455.595    510.433    455.595
100.970   2004.000   1954.525     49.475    455.329   1898.114    455.329    512.018    455.329
101.070   1981.000   1957.082     23.918    455.063   1899.075    455.063    513.365    455.063
101.170   1946.000   1941.828      4.172    454.798   1882.507    454.798    514.426    454.798
101.270   1855.447   1909.351    -53.904    454.532   1849.043    454.532    515.155    454.532
101.370   1878.000   1861.322     16.678    454.267   1800.387    454.267    515.516    454.267
101.470   1812.645   1800.521     12.123    454.001   1739.345    454.001    515.488    454.001
101.570   1746.000   1730.584     15.416    453.736   1669.559    453.736    515.061    453.736
101.670   1637.428   1655.523    -18.095    453.472   1595.037    453.472    514.243    453.472
101.770   1635.000   1579.233     55.767    453.207   1519.653    453.207    513.056    453.207
101.870   1540.778   1505.109     35.669    452.943   1446.767    452.943    511.535    452.943
101.970   1426.000   1435.820     -9.820    452.680   1379.006    452.680    509.723    452.680
102.070   1394.000   1373.221     20.779    452.416   1318.178    452.416    507.671    452.416
102.170   1352.000   1318.363     33.637    452.153   1265.280    452.153    505.429    452.153
102.270   1223.578   1271.509    -47.931    451.891   1220.526    451.891    503.050    451.891
102.370   1231.000   1232.214     -1.214    451.628   1183.426    451.628    500.580    451.628
102.470   1214.000   1199.420     14.580    451.367   1152.877    451.367    498.062    451.367
102.570   1143.000   1171.575    -28.575    451.106   1127.293    451.106    495.531    451.106
102.670   1164.000   1146.804     17.196    450.845   1104.767    450.845    493.019    450.845
102.770   1144.000   1123.117     20.883    450.585   1083.285    450.585    490.551    450.585
102.870   1070.000   1098.694    -28.694    450.326   1061.006    450.326    488.144    450.326
102.970   1060.000   1072.120    -12.120    450.067   1036.499    450.067    485.815    450.067
103.070   1089.000   1042.522     46.478    449.809   1008.882    449.809    483.575    449.809
103.170   1060.000   1009.658     50.342    449.551    977.902    449.551    481.430    449.551
103.270    957.000    973.824    -16.824    449.294    943.850    449.294    479.386    449.294
103.370    967.795    935.692     32.103    449.038    907.398    449.038    477.445    449.038
103.470    877.000    896.141    -19.141    448.783    869.422    448.783    475.608    448.783
103.570    911.000    856.115     54.885    448.528    830.867    448.528    473.875    448.528
103.670    829.000    816.525     12.475    448.275    792.647    448.275    472.244    448.275
103.770    792.000    778.197     13.803    448.022    755.590    448.022    470.712    448.022
103.870    802.000    741.831     60.169    447.770    720.399    447.770    469.276    447.770
103.970    741.854    707.983     33.871    447.519    687.635    447.519    467.932    447.519
104.070    644.615    677.057    -32.442    447.269    657.707    447.269    466.677    447.269
104.170    671.000    649.302     21.698    447.020    630.868    447.020    465.504    447.020
104.270    648.904    624.823     24.081    446.771    607.227    446.771    464.411    446.771
104.370    616.000    603.597     12.403    446.524    586.767    446.524    463.391    446.524
104.470    626.000    585.494     40.506    446.278    569.361    446.278    462.442    446.278
104.570    621.000    570.305     50.695    446.033    554.807    446.033    461.557    446.033
104.670    575.000    557.771     17.229    445.789    542.850    445.789    460.732    445.789
104.770    532.403    547.605    -15.202    445.547    533.206    445.547    459.964    445.547
104.870    515.000    539.519    -24.519    445.305    525.592    445.305    459.247    445.305
104.970    586.000    533.239     52.761    445.065    519.737    445.065    458.578    445.065
105.070    539.000    528.517     10.483    444.826    515.399    444.826    457.953    444.826
105.170    581.000    525.146     55.854    444.588    512.372    444.588    457.369    444.588
105.270    555.000    522.957     32.043    444.352    510.491    444.352    456.822    444.352
105.370    511.000    521.826    -10.826    444.117    509.635    444.117    456.310    444.117
105.470    552.000    521.667     30.333    443.883    509.720    443.883    455.830    443.883
105.570    540.583    522.432     18.150    443.651    510.703    443.651    455.379    443.651
105.670    532.000    524.107      7.893    443.420    512.568    443.420    454.956    443.420
105.770    560.850    526.700     34.150    443.191    515.329    443.191    454.557    443.191
105.870    570.000    530.241     39.759    442.963    519.015    442.963    454.182    442.963
105.970    534.000    534.770     -0.770    442.737    523.669    442.737    453.829    442.737
106.070    555.000    540.329     14.671    442.513    529.333    442.513    453.496    442.513
106.170    564.000    546.947     17.053    442.290    536.040    442.290    453.182    442.290
106.270    570.943    554.638     16.305    442.069    543.801    442.069    452.887    442.069
106.370    503.000    563.378    -60.378    441.849    552.597    441.849    452.609    441.849
106.470    615.000    573.107     41.893    441.631    562.368    441.631    452.347    441.631
106.570    595.333    583.718     11.615    441.415    573.005    441.415    452.102    441.415
106.670    606.000    595.053     10.947    441.201    584.354    441.201    451.871    441.201
106.770    577.275    606.905    -29.630    440.989    596.207    440.989    451.656    440.989
106.870    592.000    619.018    -27.018    440.778    608.308    440.778    451.455    440.778
106.970    623.178    631.091     -7.913    440.570    620.358    440.570    451.268    440.570
107.070    606.000    642.788    -36.788    440.363    632.021    440.363    451.094    440.363
107.170    606.000    653.751    -47.751    440.158    642.939    440.158    450.935    440.158
107.270    601.000    663.625    -62.625    439.956    652.756    439.956    450.789    439.956
107.370    670.000    672.086     -2.086    439.755    661.151    439.755    450.657    439.755
107.470    641.000    678.888    -37.888    439.557    667.874    439.557    450.539    439.557
107.570    606.000    683.900    -77.900    439.361    672.798    439.361    450.434    439.361
107.670    642.492    687.137    -44.645    439.167    675.935    439.167    450.344    439.167
107.770    673.000    688.763    -15.763    438.975    677.450    438.975    450.267    438.975
107.870    697.000    689.066      7.934    438.786    677.629    438.786    450.205    438.786
107.970    726.000    688.412     37.588    438.598    676.839    438.598    450.157    438.598
108.070    634.000    687.191    -53.191    438.413    675.471    438.413    450.125    438.413
108.170    672.095    685.775    -13.679    438.231    673.893    438.231    450.107    438.231
108.270    659.210    684.482    -25.272    438.051    672.426    438.051    450.106    438.051
108.370    668.000    683.543    -15.543    437.873    671.298    437.873    450.121    437.873
108.470    681.000    683.094     -2.094    437.698    670.646    437.698    450.153    437.698
108.570    663.000    683.172    -20.172    437.526    670.505    437.526    450.203    437.526
108.670    706.000    683.705     22.295    437.356    670.804    437.356    450.272    437.356
108.770    711.246    684.525     26.721    437.189    671.372    437.189    450.359    437.189
108.870    634.000    685.371    -51.371    437.024    671.948    437.024    450.468    437.024
108.970    707.641    685.911     21.730    436.862    672.200    436.862    450.597    436.862
109.070    728.736    685.776     42.961    436.703    671.756    436.703    450.750    436.703
109.170    673.000    684.597    -11.597    436.547    670.247    436.547    450.926    436.547
109.270    638.445    682.058    -43.613    436.393    667.355    436.393    451.128    436.393
109.370    636.000    677.952    -41.952    436.243    662.871    436.243    451.357    436.243
109.470    678.000    672.211      5.789    436.095    656.725    436.095    451.615    436.095
109.570    662.000    664.894     -2.894    435.950    648.976    435.950    451.904    435.950
109.670    666.000    656.189      9.811    435.809    639.807    435.809    452.226    435.809
109.770    627.000    646.370    -19.370    435.670    629.493    435.670    452.583    435.670
109.870    651.599    635.760     15.839    435.535    618.351    435.535    452.977    435.535
109.970    626.000    624.692      1.308    435.402    606.714    435.402    453.412    435.402
110.070    624.980    613.488     11.492    435.273    594.900    435.273    453.891    435.273
110.170    586.000    602.442    -16.442    435.147    583.201    435.147    454.416    435.147
110.270    618.593    591.812     26.781    435.025    571.870    435.025    454.992    435.025
110.370    599.000    581.815     17.185    434.906    561.123    434.906    455.621    434.906
110.470    615.000    572.626     42.374    434.790    551.128    434.790    456.308    434.790
110.570    583.010    564.376     18.634    434.677    542.015    434.677    457.057    434.677
110.670    573.000    557.155     15.845    434.568    533.866    434.568    457.872    434.568
110.770    569.000    551.011     17.989    434.463    526.729    434.463    458.759    434.463
110.870    514.873    545.961    -31.088    434.361    520.612    434.361    459.721    434.361
110.970    552.000    541.987     10.013    434.263    515.495    434.263    460.765    434.263
111.070    579.000    539.050     39.950    434.168    511.330    434.168    461.895    434.168
111.170    567.000    537.088     29.912    434.077    508.055    434.077    463.117    434.077
111.270    493.371    536.032    -42.661    433.990    505.590    433.990    464.437    433.990
111.370    500.000    535.801    -35.801    433.906    503.851    433.906    465.861    433.906
111.470    503.000    536.314    -33.314    433.827    502.750    433.827    467.394    433.827
111.570    519.000    537.491    -18.491    433.751    502.201    433.751    469.042    433.751
111.670    555.000    539.255     15.745    433.680    502.123    433.680    470.812    433.680
111.770    581.314    541.540     39.774    433.612    502.442    433.612    472.710    433.612
111.870    567.000    544.285     22.715    433.548    503.093    433.548    474.740    433.548
111.970    552.000    547.440      4.560    433.489    504.020    433.489    476.908    433.489
112.070    591.004    550.963     40.041    433.434    505.176    433.434    479.220    433.434
112.170    550.456    554.827     -4.371    433.382    506.528    433.382    481.681    433.382
112.270    539.558    559.013    -19.454    433.336    508.054    433.336    484.293    433.336
112.370    525.990    563.515    -37.526    433.293    509.746    433.293    487.062    433.293
112.470    559.625    568.340     -8.715    433.255    511.606    433.255    489.988    433.255
112.570    558.277    573.504    -15.227    433.221    513.649    433.221    493.076    433.221
112.670    553.000    579.035    -26.035    433.191    515.902    433.191    496.323    433.191
112.770    605.166    584.971     20.195    433.166    518.407    433.166    499.731    433.166
112.870    564.000    591.365    -27.365    433.146    521.216    433.146    503.295    433.146
112.970    614.347    598.283     16.064    433.130    524.401    433.130    507.012    433.130
113.070    641.950    605.810     36.139    433.119    528.055    433.119    510.875    433.119
113.170    610.210    614.057     -3.847    433.113    532.296    433.113    514.873    433.113
113.270    594.000    623.165    -29.165    433.111    537.281    433.111    518.995    433.111
113.370    557.000    633.318    -76.318    433.115    543.207    433.115    523.224    433.115
113.470    614.000    644.751    -30.751    433.123    550.333    433.123    527.539    433.123
113.570    577.000    657.769    -80.769    433.136    558.987    433.136    531.915    433.136
113.670    638.000    672.756    -34.756    433.154    569.583    433.154    536.322    433.154
113.770    727.719    690.200     37.519    433.177    582.644    433.177    540.725    433.177
113.870    725.000    710.706     14.294    433.205    598.818    433.205    545.082    433.205
113.970    729.000    735.021     -6.021    433.238    618.898    433.238    549.346    433.238
114.070    679.000    764.053    -85.053    433.277    643.843    433.277    553.466    433.277
114.170    764.000    798.886    -34.886    433.321    674.794    433.321    557.384    433.321
114.270    869.524    840.794     28.730    433.370    713.087    433.370    561.039    433.370
114.370    936.536    891.250     45.286    433.424    760.257    433.424    564.369    433.424
114.470    950.000    951.917     -1.917    433.484    818.026    433.484    567.313    433.484
114.570   1052.573   1024.610     27.963    433.550    888.272    433.550    569.811    433.550
114.670   1158.000   1111.423     46.577    433.620    973.139    433.620    571.809    433.620
114.770   1221.000   1214.425      6.575    433.697   1074.742    433.697    573.264    433.697
114.870   1296.114   1335.759    -39.646    433.779   1195.257    433.779    574.141    433.779
114.970   1465.557   1477.531    -11.974    433.867   1336.810    433.867    574.422    433.867
115.070   1646.000   1641.692      4.308    433.961   1501.358    433.961    574.102    433.961
115.170   1877.000   1829.921     47.079    434.060   1690.569    434.060    573.189    434.060
115.270   2071.000   2043.483     27.517    434.166   1905.685    434.166    571.710    434.166
115.370   2319.000   2283.092     35.908    434.277   2147.383    434.277    569.701    434.277
115.470   2583.000   2548.764     34.236    434.394   2415.633    434.394    567.211    434.394
115.570   2861.262   2839.685     21.576    434.518   2709.567    434.518    564.295    434.518
115.670   3240.432   3154.100     86.332    434.648   3027.369    434.648    561.014    434.648
115.770   3559.000   3489.219     69.781    434.783   3366.189    434.783    557.430    434.783
115.870   3941.967   3841.170    100.797    434.925   3722.095    434.925    553.605    434.925
115.970   4217.000   4204.980     12.020    435.074   4090.055    435.074    549.599    435.074
116.070   4478.064   4574.608    -96.544    435.228   4463.973    435.228    545.468    435.228
116.170   4967.405   4943.014     24.391    435.389   4836.762    435.389    541.263    435.389
116.270   5338.596   5302.284     36.312    435.557   5200.463    435.557    537.027    435.557
116.370   5552.762   5643.801    -91.039    435.731   5546.419    435.731    532.802    435.731
116.470   6004.000   5958.489     45.511    435.912   5865.522    435.912    528.620    435.912
116.570   6292.798   6237.137     55.661    436.100   6148.533    436.100    524.510    436.100
116.670   6428.932   6470.830    -41.897    436.294   6386.510    436.294    520.496    436.294
116.770   6721.000   6651.473     69.527    436.495   6571.340    436.495    516.596    436.495
116.870   6865.000   6772.400     92.600    436.703   6696.338    436.703    512.827    436.703
116.970   6831.000   6828.962      2.038    436.918   6756.839    436.918    509.200    436.918
117.070   6820.000   6819.000      1.000    437.140   6750.672    437.140    505.723    437.140
117.170   6622.162   6743.074   -120.912    437.368   6678.388    437.368    502.402    437.368
117.270   6643.000   6604.398     38.602    437.604   6543.191    437.604    499.243    437.604
117.370   6434.961   6408.483     26.477    437.848   6350.588    437.848    496.247    437.848
117.470   6198.340   6162.600     35.740    438.098   6107.847    438.098    493.414    438.098
117.570   5764.000   5875.168   -111.168    438.356   5823.387    438.356    490.743    438.356
117.670   5481.237   5555.178    -73.942    438.621   5506.201    438.621    488.234    438.621
117.770   5115.039   5211.709    -96.670    438.894   5165.371    438.894    485.882    438.894
117.870   4839.881   4853.544    -13.663    439.174   4809.683    439.174    483.685    439.174
117.970   4511.336   4488.888     22.448    439.462   4447.350    439.462    481.638    439.462
118.070   4145.000   4125.158     19.842    439.757   4085.794    439.757    479.736    439.757
118.170   3818.000   3768.839     49.161    440.061   3731.508    440.061    477.974    440.061
118.270   3316.042   3425.393   -109.351    440.372   3389.960    440.372    476.348    440.372
118.370   3005.906   3099.216    -93.309    440.690   3065.555    440.690    474.850    440.690
118.470   2731.955   2793.643    -61.689    441.017   2761.636    441.017    473.477    441.017
118.570   2456.012   2510.998    -54.986    441.352   2480.533    441.352    472.221    441.352
118.670   2333.000   2252.666     80.334    441.695   2223.639    441.695    471.076    441.695
118.770   1938.000   2019.201    -81.201    442.046   1991.517    442.046    470.039    442.046
118.870   1777.000   1810.444    -33.444    442.405   1784.011    442.405    469.101    442.405
118.970   1694.575   1625.642     68.933    442.772   1600.377    442.772    468.259    442.772
119.070   1462.453   1463.576     -1.122    443.148   1439.402    443.148    467.507    443.148
119.170   1299.000   1322.684    -23.684    443.532   1299.529    443.532    466.839    443.532
119.270   1138.037   1201.177    -63.140    443.925   1178.974    443.925    466.250    443.925
119.370   1082.000   1097.139    -15.139    444.326   1075.826    444.326    465.737    444.326
119.470   1004.000   1008.622     -4.622    444.736    988.141    444.736    465.294    444.736
119.570    903.755    933.719    -29.964    445.154    914.017    445.154    464.917    445.154
119.670    970.000    870.622     99.378    445.582    851.647    445.582    464.603    445.582
119.770    805.000    817.659    -12.659    446.018    799.365    446.018    464.347    446.018
119.870    741.072    773.322    -32.249    446.463    755.666    446.463    464.146    446.463
119.970    754.591    736.276     18.315    446.917    719.217    446.917    463.998    446.917
120.070    702.000    705.362     -3.362    447.380    688.862    447.380    463.898    447.380
120.170    711.000    679.589     31.411    447.853    663.611    447.853    463.844    447.853
120.270    652.713    658.117     -5.405    448.334    642.630    448.334    463.833    448.334
120.370    604.327    640.250    -35.923    448.825    625.221    448.825    463.864    448.825
120.470    642.000    625.411     16.589    449.325    610.812    449.325    463.934    449.325
120.570    624.000    613.129     10.871    449.834    598.932    449.834    464.041    449.834
120.670    614.000    603.021     10.979    450.353    589.200    450.353    464.184    450.353
120.770    605.000    594.776     10.224    450.882    581.308    450.882    464.360    450.882
120.870    600.000    588.144     11.856    451.420    575.006    451.420    464.568    451.420
120.970    557.000    582.922    -25.922    451.968    570.095    451.968    464.807    451.968
121.070    526.000    578.948    -52.948    452.526    566.410    452.526    465.075    452.526
121.170    577.233    576.085      1.148    453.094    563.819    453.094    465.372    453.094
121.270    595.000    574.223     20.777    453.672    562.211    453.672    465.696    453.672
121.370    593.000    573.267     19.733    454.259    561.494    454.259    466.046    454.259
121.470    597.000    573.134     23.866    454.857    561.585    454.857    466.422    454.857
121.570    581.000    573.752      7.248    455.465    562.412    455.465    466.822    455.465
121.670    534.066    575.049    -40.983    456.083    563.906    456.083    467.245    456.083
121.770    555.000    576.959    -21.959    456.712    566.000    456.712    467.692    456.712
121.870    538.000    579.413    -41.413    457.351    568.626    457.351    468.160    457.351
121.970    532.000    582.338    -50.338    458.001    571.714    458.001    468.650    458.001
122.070    626.659    585.639     41.020    458.661    575.167    458.661    469.160    458.661
122.170    615.000    589.272     25.728    459.332    578.943    459.332    469.690    459.332
122.270    631.035    593.157     37.878    460.013    582.963    460.013    470.239    460.013
122.370    583.000    597.192    -14.192    460.706    587.126    460.706    470.807    460.706
122.470    611.000    601.281      9.719    461.409    591.337    461.409    471.391    461.409
122.570    605.000    605.326     -0.326    462.124    595.498    462.124    471.992    462.124
122.670    591.000    609.224    -18.224    462.849    599.507    462.849    472.609    462.849
122.770    628.000    612.872     15.128    463.586    603.264    463.586    473.241    463.586
122.870    592.624    616.170    -23.546    464.333    606.667    464.333    473.886    464.333
122.970    634.870    619.023     15.848    465.092    609.622    465.092    474.544    465.092
123.070    664.000    621.344     42.656    465.863    612.045    465.863    475.215    465.863
123.170    633.000    623.064      9.936    466.645    613.868    466.645    475.896    466.645
123.270    661.000    624.133     36.867    467.439    615.040    467.439    476.588    467.439
123.370    666.000    624.523     41.477    468.244    615.534    468.244    477.289    468.244
123.470    638.676    624.227     14.449    469.061    615.345    469.061    477.999    469.061
123.570    686.000    623.263     62.737    469.890    614.492    469.890    478.717    469.890
123.670    649.000    621.668     27.332    470.730    613.010    470.730    479.444    470.730
123.770    609.000    619.493    -10.493    471.583    610.953    471.583    480.177    471.583
123.870    590.000    616.800    -26.800    472.448    608.381    472.448    480.918    472.448
123.970    647.012    613.657     33.355    473.325    605.365    473.325    481.666    473.325
124.070    609.000    610.138     -1.138    474.214    601.977    474.214    482.422    474.214
124.170    599.840    606.315     -6.475    475.115    598.289    475.115    483.186    475.115
124.270    557.287    602.261    -44.974    476.029    594.374    476.029    483.958    476.029
124.370    603.000    598.044      4.956    476.956    590.300    476.956    484.739    476.956
124.470    585.000    593.729     -8.729    477.895    586.130    477.895    485.529    477.895
124.570    629.872    589.375     40.497    478.846    581.924    478.846    486.330    478.846
124.670    585.000    585.035     -0.035    479.811    577.735    479.811    487.141    479.811
124.770    558.699    580.756    -22.057    480.788    573.607    480.788    487.964    480.788
124.870    595.000    576.576     18.424    481.778    569.579    481.778    488.799    481.778
124.970    609.000    572.528     36.472    482.782    565.684    482.782    489.647    482.782
