neutron_powder_diffraction_0216
R_wp: 4.026
Temperature (K): 1074.100
Counts: 84220.00
Wavelength (Ã…): 2.52098
COMMENTS
Test file for demonstrating the .xyy file format in Reel1.0
END OF HEADER
   tth       Y_obs     Y_calc      Y_res    Background    Phase_1_Nuc    Phase_1_Mag    Phase_2_Nuc    Phase_2_Mag
  9.970    592.000    567.436     24.564    566.748    567.407    566.748    566.776    566.748
 10.070    604.408    567.662     36.746    566.914    567.634    566.914    566.942    566.914
 10.170    539.754    567.889    -28.135    567.073    567.859    567.073    567.103    567.073
 10.270    575.000    568.118      6.882    567.226    568.087    567.226    567.257    567.226
 10.370    531.096    568.353    -37.257    567.373    568.322    567.373    567.403    567.373
 10.470    559.765    568.597     -8.832    567.513    568.565    567.513    567.544    567.513
 10.570    580.000    568.853     11.147    567.647    568.820    567.647    567.679    567.647
 10.670    533.585    569.126    -35.541    567.774    569.093    567.774    567.806    567.774
 10.770    616.000    569.423     46.577    567.895    569.390    567.895    567.928    567.895
 10.870    618.173    569.755     48.419    568.010    569.720    568.010    568.044    568.010
 10.970    604.000    570.141     33.859    568.120    570.095    568.120    568.164    568.120
 11.070    585.000    570.581     14.419    568.223    570.534    568.223    568.269    568.223
 11.170    608.765    571.109     37.656    568.320    571.061    568.320    568.366    568.320
 11.270    539.921    571.766    -31.845    568.411    571.717    568.411    568.457    568.411
 11.370    584.730    572.621     12.108    568.496    572.573    568.496    568.543    568.496
 11.470    596.000    573.829     22.171    568.576    573.779    568.576    568.622    568.576
 11.570    561.182    575.808    -14.627    568.649    575.757    568.649    568.696    568.649
 11.670    622.000    579.730     42.270    568.717    579.676    568.717    568.765    568.717
 11.770    607.825    588.241     19.584    568.780    588.182    568.780    568.828    568.780
 11.870    656.000    605.505     50.495    568.836    605.430    568.836    568.890    568.836
 11.970    660.000    634.614     25.386    568.888    634.522    568.888    568.942    568.888
 12.070    641.000    671.744    -30.744    568.933    671.631    568.933    568.988    568.933
 12.170    647.000    700.833    -53.833    568.974    700.703    568.974    569.029    568.974
 12.270    713.000    701.810     11.190    569.009    701.680    569.009    569.064    569.009
 12.370    721.539    673.832     47.707    569.038    673.718    569.038    569.094    569.038
 12.470    580.000    636.620    -56.620    569.063    636.526    569.063    569.119    569.063
 12.570    618.000    606.943     11.057    569.082    606.866    569.082    569.138    569.082
 12.670    573.000    589.183    -16.183    569.096    589.115    569.096    569.152    569.096
 12.770    618.688    580.413     38.274    569.105    580.350    569.105    569.162    569.105
 12.870    595.765    576.419     19.346    569.109    576.358    569.109    569.166    569.109
 12.970    515.000    574.458    -59.458    569.107    574.397    569.107    569.165    569.107
 13.070    559.717    573.302    -13.585    569.101    573.242    569.101    569.159    569.101
 13.170    533.048    572.510    -39.462    569.090    572.450    569.090    569.148    569.090
 13.270    564.000    571.923     -7.923    569.074    571.863    569.074    569.133    569.074
 13.370    567.355    571.468     -4.113    569.054    571.408    569.054    569.112    569.054
 13.470    526.000    571.106    -45.106    569.028    571.046    569.028    569.087    569.028
 13.570    565.000    570.808     -5.808    568.998    570.748    568.998    569.057    568.998
 13.670    575.878    570.559      5.319    568.963    570.498    568.963    569.023    568.963
 13.770    537.100    570.345    -33.245    568.924    570.284    568.924    568.984    568.924
 13.870    565.508    570.159     -4.652    568.880    570.095    568.880    568.943    568.880
 13.970    563.000    569.991     -6.991    568.831    569.925    568.831    568.896    568.831
 14.070    561.000    569.837     -8.837    568.778    569.770    568.778    568.844    568.778
 14.170    579.000    569.693      9.307    568.721    569.626    568.721    568.787    568.721
 14.270    537.000    569.557    -32.557    568.659    569.491    568.659    568.726    568.659
 14.370    596.161    569.428     26.733    568.593    569.360    568.593    568.660    568.593
 14.470    559.000    569.303    -10.303    568.523    569.235    568.523    568.590    568.523
 14.570    606.194    569.183     37.011    568.448    569.115    568.448    568.516    568.448
 14.670    579.000    569.064      9.936    568.369    568.995    568.369    568.438    568.369
 14.770    584.000    568.944     15.056    568.287    568.875    568.287    568.356    568.287
 14.870    570.000    568.825      1.175    568.200    568.755    568.200    568.269    568.200
 14.970    533.000    568.705    -35.705    568.109    568.635    568.109    568.178    568.109
 15.070    500.000    568.584    -68.584    568.014    568.514    568.014    568.084    568.014
 15.170    553.000    568.463    -15.463    567.915    568.392    567.915    567.986    567.915
 15.270    613.175    568.339     44.836    567.812    568.268    567.812    567.883    567.812
 15.370    557.000    568.214    -11.214    567.706    568.143    567.706    567.777    567.706
 15.470    568.006    568.088     -0.082    567.595    568.016    567.595    567.667    567.595
 15.570    584.000    567.959     16.041    567.481    567.887    567.481    567.553    567.481
 15.670    588.583    567.829     20.754    567.364    567.756    567.364    567.436    567.364
 15.770    568.000    567.697      0.303    567.242    567.624    567.242    567.315    567.242
 15.870    595.665    567.562     28.103    567.117    567.488    567.117    567.190    567.117
 15.970    600.407    567.423     32.984    566.988    567.350    566.988    567.062    566.988
 16.070    510.000    567.283    -57.283    566.856    567.208    566.856    566.930    566.856
 16.170    554.187    567.139    -12.952    566.720    567.065    566.720    566.795    566.720
 16.270    520.260    566.994    -46.734    566.581    566.918    566.581    566.657    566.581
 16.370    567.000    566.846      0.154    566.439    566.769    566.439    566.516    566.439
 16.470    574.000    566.695      7.305    566.293    566.617    566.293    566.371    566.293
 16.570    544.000    566.541    -22.541    566.144    566.463    566.144    566.222    566.144
 16.670    539.000    566.385    -27.385    565.991    566.306    565.991    566.070    565.991
 16.770    558.000    566.225     -8.225    565.836    566.146    565.836    565.915    565.836
 16.870    564.445    566.063     -1.618    565.677    565.983    565.677    565.757    565.677
 16.970    563.000    565.899     -2.899    565.515    565.818    565.515    565.595    565.515
 17.070    561.379    565.731     -4.352    565.350    565.650    565.350    565.431    565.350
 17.170    557.300    565.562     -8.262    565.182    565.480    565.182    565.263    565.182
 17.270    589.000    565.391     23.609    565.010    565.309    565.010    565.092    565.010
 17.370    593.000    565.217     27.783    564.836    565.134    564.836    564.919    564.836
 17.470    550.503    565.039    -14.537    564.659    564.956    564.659    564.742    564.659
 17.570    568.446    564.859      3.587    564.479    564.775    564.479    564.563    564.479
 17.670    579.000    564.676     14.324    564.296    564.592    564.296    564.381    564.296
 17.770    556.000    564.491     -8.491    564.111    564.406    564.111    564.196    564.111
 17.870    566.000    564.303      1.697    563.922    564.218    563.922    564.008    563.922
 17.970    559.000    564.113     -5.113    563.731    564.027    563.731    563.817    563.731
 18.070    610.000    563.920     46.080    563.537    563.834    563.537    563.624    563.537
 18.170    521.756    563.725    -41.970    563.341    563.638    563.341    563.428    563.341
 18.270    576.000    563.528     12.472    563.142    563.440    563.142    563.230    563.142
 18.370    549.301    563.329    -14.028    562.940    563.240    562.940    563.029    562.940
 18.470    556.173    563.127     -6.955    562.736    563.038    562.736    562.826    562.736
 18.570    571.432    562.928      8.504    562.529    562.833    562.529    562.624    562.529
 18.670    521.000    562.724    -41.724    562.320    562.626    562.320    562.418    562.320
 18.770    592.000    562.517     29.483    562.109    562.418    562.109    562.207    562.109
 18.870    555.000    562.307     -7.307    561.895    562.208    561.895    561.994    561.895
 18.970    610.705    562.095     48.610    561.678    561.995    561.678    561.778    561.678
 19.070    504.000    561.881    -57.881    561.460    561.780    561.460    561.560    561.460
 19.170    554.000    561.665     -7.665    561.239    561.564    561.239    561.340    561.239
 19.270    587.000    561.447     25.553    561.016    561.345    561.016    561.118    561.016
 19.370    591.033    561.227     29.806    560.791    561.124    560.791    560.894    560.791
 19.470    550.000    561.005    -11.005    560.563    560.901    560.563    560.667    560.563
 19.570    525.000    560.781    -35.781    560.334    560.676    560.334    560.438    560.334
 19.670    520.000    560.556    -40.556    560.102    560.450    560.102    560.208    560.102
 19.770    553.000    560.330     -7.330    559.868    560.223    559.868    559.975    559.868
 19.870    542.566    560.115    -17.548    559.633    560.007    559.633    559.740    559.633
 19.970    590.313    559.894     30.419    559.395    559.786    559.395    559.503    559.395
 20.070    558.000    559.664     -1.664    559.155    559.554    559.155    559.265    559.155
 20.170    547.013    559.430    -12.418    558.914    559.320    558.914    559.024    558.914
 20.270    553.000    559.196     -6.196    558.671    559.085    558.671    558.782    558.671
 20.370    544.000    558.960    -14.960    558.425    558.848    558.425    558.538    558.425
 20.470    540.000    558.723    -18.723    558.178    558.610    558.178    558.292    558.178
 20.570    570.000    558.485     11.515    557.930    558.371    557.930    558.044    557.930
 20.670    588.000    558.246     29.754    557.679    558.130    557.679    557.795    557.679
 20.770    509.198    558.005    -48.808    557.427    557.889    557.427    557.544    557.427
 20.870    569.571    557.764     11.807    557.173    557.646    557.173    557.291    557.173
 20.970    571.000    557.522     13.478    556.917    557.403    556.917    557.037    556.917
 21.070    565.000    557.279      7.721    556.660    557.159    556.660    556.781    556.660
 21.170    562.712    557.036      5.677    556.402    556.914    556.402    556.523    556.402
 21.270    541.000    556.792    -15.792    556.142    556.669    556.142    556.265    556.142
 21.370    522.547    556.548    -34.001    555.880    556.423    555.880    556.004    555.880
 21.470    507.669    556.303    -48.634    555.617    556.178    555.617    555.742    555.617
 21.570    549.843    556.059     -6.216    555.352    555.932    555.352    555.479    555.352
 21.670    552.000    555.814     -3.814    555.086    555.686    555.086    555.215    555.086
 21.770    544.076    555.570    -11.493    554.819    555.440    554.819    554.949    554.819
 21.870    589.000    555.326     33.674    554.550    555.195    554.550    554.682    554.550
 21.970    582.557    555.084     27.473    554.280    554.950    554.280    554.413    554.280
 22.070    508.016    554.850    -46.834    554.009    554.715    554.009    554.144    554.009
 22.170    543.000    554.691    -11.691    553.736    554.554    553.736    553.873    553.736
 22.270    564.423    554.474      9.949    553.463    554.335    553.463    553.601    553.463
 22.370    535.164    554.243    -19.079    553.188    554.103    553.188    553.328    553.188
 22.470    582.922    554.035     28.887    552.912    553.893    552.912    553.054    552.912
 22.570    549.000    553.840     -4.840    552.634    553.694    552.634    552.781    552.634
 22.670    530.000    553.664    -23.664    552.356    553.515    552.356    552.506    552.356
 22.770    539.610    553.464    -13.854    552.077    553.313    552.077    552.228    552.077
 22.870    565.000    553.255     11.745    551.797    553.101    551.797    551.950    551.797
 22.970    586.000    553.053     32.947    551.515    552.897    551.515    551.671    551.515
 23.070    576.000    552.861     23.139    551.233    552.703    551.233    551.391    551.233
 23.170    547.000    552.684     -5.684    550.950    552.523    550.950    551.111    550.950
 23.270    543.000    552.524     -9.524    550.665    552.361    550.665    550.829    550.665
 23.370    534.000    552.389    -18.389    550.380    552.223    550.380    550.547    550.380
 23.470    533.000    552.280    -19.280    550.095    552.112    550.095    550.263    550.095
 23.570    545.000    552.209     -7.209    549.808    552.038    549.808    549.980    549.808
 23.670    561.000    552.190      8.810    549.520    552.016    549.520    549.695    549.520
 23.770    589.000    552.242     36.758    549.232    552.066    549.232    549.410    549.232
 23.870    551.000    552.397     -1.397    548.943    552.217    548.943    549.124    548.943
 23.970    564.000    552.711     11.289    548.653    552.528    548.653    548.838    548.653
 24.070    589.000    553.320     35.680    548.363    553.134    548.363    548.551    548.363
 24.170    535.586    554.602    -19.016    548.072    554.414    548.072    548.264    548.072
 24.270    602.000    557.536     44.464    547.780    557.345    547.780    547.976    547.780
 24.370    570.779    564.105      6.674    547.488    563.916    547.488    547.688    547.488
 24.470    615.000    576.970     38.030    547.195    576.785    547.195    547.399    547.195
 24.570    647.358    597.343     50.015    546.901    597.168    546.901    547.111    546.901
 24.670    562.000    621.215    -59.215    546.607    621.053    546.607    546.821    546.607
 24.770    672.000    636.950     35.050    546.313    636.794    546.313    546.532    546.313
 24.870    637.000    633.087      3.913    546.018    632.923    546.018    546.243    546.018
 24.970    571.000    612.750    -41.750    545.722    612.566    545.722    545.953    545.722
 25.070    567.944    588.805    -20.861    545.426    588.598    545.426    545.663    545.426
 25.170    576.000    570.340      5.660    545.130    570.114    545.130    545.374    545.130
 25.270    589.000    559.285     29.715    544.834    559.044    544.834    545.084    544.834
 25.370    595.000    553.650     41.350    544.537    553.398    544.537    544.794    544.537
 25.470    535.000    550.895    -15.895    544.239    550.632    544.239    544.505    544.239
 25.570    539.000    549.404    -10.404    543.942    549.132    543.942    544.216    543.942
 25.670    562.000    548.440     13.560    543.644    548.158    543.644    543.927    543.644
 25.770    575.000    547.722     27.278    543.346    547.431    543.346    543.639    543.346
 25.870    521.000    547.152    -26.152    543.047    546.850    543.047    543.351    543.047
 25.970    511.000    546.682    -35.682    542.749    546.368    542.749    543.064    542.749
 26.070    550.000    546.290      3.710    542.450    545.964    542.450    542.777    542.450
 26.170    553.000    545.963      7.037    542.151    545.623    542.151    542.491    542.151
 26.270    575.000    545.691     29.309    541.852    545.337    541.852    542.207    541.852
 26.370    589.921    545.468     44.453    541.553    545.099    541.553    541.923    541.553
 26.470    569.000    545.318     23.682    541.254    544.932    541.254    541.641    541.254
 26.570    501.000    545.214    -44.214    540.955    544.809    540.955    541.360    540.955
 26.670    591.924    545.144     46.780    540.656    544.718    540.656    541.081    540.656
 26.770    570.000    545.136     24.864    540.356    544.688    540.356    540.804    540.356
 26.870    540.000    545.211     -5.211    540.057    544.738    540.057    540.529    540.057
 26.970    530.000    545.378    -15.378    539.758    544.878    539.758    540.257    539.758
 27.070    569.000    545.645     23.355    539.459    545.115    539.459    539.988    539.459
 27.170    543.000    546.061     -3.061    539.160    545.496    539.160    539.723    539.160
 27.270    531.279    546.688    -15.409    538.860    546.085    538.860    539.462    538.860
 27.370    499.324    547.609    -48.285    538.562    546.963    538.562    539.206    538.562
 27.470    544.000    548.935     -4.935    538.263    548.240    538.263    538.956    538.263
 27.570    557.000    551.057      5.943    537.964    550.306    537.964    538.713    537.964
 27.670    571.826    555.315     16.511    537.666    554.500    537.666    538.478    537.666
 27.770    571.000    566.339      4.661    537.368    565.447    537.368    538.252    537.368
 27.870    602.000    596.082      5.918    537.070    595.096    537.070    538.039    537.070
 27.970    689.000    663.497     25.503    536.772    662.390    536.772    537.841    536.772
 28.070    795.000    777.385     17.615    536.474    776.128    536.474    537.660    536.474
 28.170    842.000    905.429    -63.429    536.177    904.005    536.177    537.503    536.177
 28.270    992.000    968.628     23.372    535.880    967.039    535.880    537.374    535.880
 28.370    936.657    914.822     21.834    535.583    913.064    535.583    537.282    535.583
 28.470    826.804    799.323     27.482    535.287    797.347    535.287    537.240    535.287
 28.570    700.000    710.386    -10.386    534.991    708.101    534.991    537.267    534.991
 28.670    692.000    692.981     -0.981    534.696    690.269    534.696    537.395    534.696
 28.770    704.118    741.466    -37.348    534.401    738.165    534.401    537.684    534.401
 28.870    759.000    813.869    -54.869    534.106    809.724    534.106    538.239    534.106
 28.970    805.000    848.215    -43.215    533.812    842.797    533.812    539.233    533.812
 29.070    771.000    808.045    -37.045    533.518    800.657    533.518    540.919    533.518
 29.170    687.000    725.702    -38.702    533.225    715.342    533.225    543.599    533.225
 29.270    649.000    650.878     -1.878    532.932    636.282    532.932    547.536    532.932
 29.370    635.000    605.766     29.234    532.639    585.630    532.639    552.778    532.639
 29.470    611.000    587.043     23.957    532.348    560.549    532.348    558.841    532.348
 29.570    589.000    582.058      6.942    532.056    549.863    532.056    564.250    532.056
 29.670    599.000    580.025     18.975    531.766    545.185    531.766    566.603    531.766
 29.770    532.457    575.602    -43.145    531.475    542.675    531.475    564.399    531.475
 29.870    598.816    568.638     30.178    531.186    541.037    531.186    558.784    531.186
 29.970    572.839    561.133     11.706    530.897    539.883    530.897    552.145    530.897
 30.070    518.610    554.612    -36.001    530.609    539.085    530.609    546.133    530.609
 30.170    567.596    549.680     17.915    530.321    538.619    530.321    541.381    530.321
 30.270    527.000    546.471    -19.471    530.034    538.591    530.034    537.912    530.034
 30.370    573.524    545.176     28.348    529.748    539.431    529.748    535.489    529.748
 30.470    584.419    546.648     37.772    529.462    542.294    529.462    533.809    529.462
 30.570    590.371    552.803     37.568    529.177    549.359    529.177    532.609    529.177
 30.670    548.000    565.877    -17.877    528.893    563.046    528.893    531.702    528.893
 30.770    596.000    585.740     10.260    528.610    583.341    528.610    530.972    528.610
 30.870    584.785    606.434    -21.649    528.327    604.358    528.327    530.352    528.327
 30.970    611.633    615.883     -4.250    528.045    614.065    528.045    529.807    528.045
 31.070    591.000    606.094    -15.094    527.764    604.498    527.764    529.315    527.764
 31.170    576.920    584.484     -7.564    527.484    583.077    527.484    528.862    527.484
 31.270    613.179    563.124     50.055    527.204    561.873    527.204    528.440    527.204
 31.370    586.000    548.216     37.784    526.926    547.092    526.926    528.042    526.926
 31.470    518.093    539.988    -21.895    526.648    538.969    526.648    527.663    526.648
 31.570    549.000    536.065     12.935    526.371    535.133    526.371    527.301    526.371
 31.670    580.301    534.214     46.087    526.095    533.356    526.095    526.951    526.095
 31.770    566.000    533.208     32.792    525.820    532.414    525.820    526.613    525.820
 31.870    521.000    532.557    -11.557    525.546    531.818    525.546    526.284    525.546
 31.970    529.000    532.096     -3.096    525.273    531.405    525.273    525.962    525.273
 32.070    579.000    531.769     47.231    525.000    531.121    525.000    525.648    525.000
 32.170    538.000    531.556      6.444    524.729    530.945    524.729    525.339    524.729
 32.270    565.000    531.449     33.551    524.458    530.871    524.458    525.036    524.458
 32.370    547.301    531.448     15.853    524.189    530.899    524.189    524.737    524.189
 32.470    559.000    531.564     27.436    523.920    531.041    523.920    524.442    523.920
 32.570    539.314    531.810      7.505    523.653    531.310    523.653    524.151    523.653
 32.670    570.000    532.209     37.791    523.386    531.731    523.386    523.864    523.386
 32.770    562.678    532.802     29.876    523.121    532.342    523.121    523.580    523.121
 32.870    567.000    533.643     33.357    522.857    533.200    522.857    523.298    522.857
 32.970    546.000    534.811     11.189    522.593    534.384    522.593    523.019    522.593
 33.070    571.000    536.434     34.566    522.331    536.020    522.331    522.743    522.331
 33.170    596.000    538.736     57.264    522.070    538.334    522.070    522.469    522.070
 33.270    540.000    542.238     -2.238    521.810    541.848    521.810    522.197    521.810
 33.370    601.000    548.371     52.629    521.551    547.990    521.551    521.928    521.551
 33.470    561.000    560.923      0.077    521.293    560.550    521.293    521.660    521.293
 33.570    598.000    588.190      9.810    521.036    587.820    521.036    521.395    521.036
 33.670    678.000    643.405     34.595    520.780    643.033    520.780    521.131    520.780
 33.770    770.000    738.687     31.313    520.526    738.307    520.526    520.869    520.526
 33.870    919.000    870.404     48.596    520.273    870.014    520.273    520.609    520.273
 33.970   1105.000   1002.677    102.323    520.020   1002.283    520.020    520.351    520.020
 34.070   1040.000   1067.503    -27.503    519.769   1067.123    519.769    520.094    519.769
 34.170    990.278   1018.743    -28.466    519.520   1018.396    519.520    519.839    519.520
 34.270    823.000    892.576    -69.576    519.271    892.258    519.271    519.586    519.271
 34.370    784.000    757.437     26.563    519.024    757.134    519.024    519.334    519.024
 34.470    663.278    654.913      8.366    518.777    654.615    518.777    519.084    518.777
 34.570    591.000    593.053     -2.053    518.533    592.755    518.533    518.836    518.533
 34.670    537.520    561.368    -23.848    518.289    561.071    518.289    518.589    518.289
 34.770    534.000    546.339    -12.339    518.046    546.043    518.046    518.343    518.046
 34.870    499.372    538.832    -39.459    517.805    538.537    517.805    518.099    517.805
 34.970    536.000    534.430      1.570    517.565    534.138    517.565    517.857    517.565
 35.070    529.000    531.404     -2.404    517.327    531.114    517.327    517.616    517.327
 35.170    567.000    529.120     37.880    517.089    528.832    517.089    517.377    517.089
 35.270    476.000    527.314    -51.314    516.853    527.028    516.853    517.139    516.853
 35.370    498.000    525.847    -27.847    516.619    525.562    516.619    516.903    516.619
 35.470    520.000    524.629     -4.629    516.385    524.346    516.385    516.668    516.385
 35.570    496.124    523.601    -27.477    516.153    523.319    516.153    516.435    516.153
 35.670    527.704    522.719      4.985    515.922    522.438    515.922    516.203    515.922
 35.770    549.614    521.951     27.662    515.693    521.671    515.693    515.973    515.693
 35.870    512.000    521.276     -9.276    515.465    520.997    515.465    515.744    515.465
 35.970    504.000    520.675    -16.675    515.238    520.396    515.238    515.516    515.238
 36.070    557.000    520.136     36.864    515.013    519.858    515.013    515.291    515.013
 36.170    509.000    519.650    -10.650    514.789    519.372    514.789    515.066    514.789
 36.270    482.000    519.209    -37.209    514.566    518.932    514.566    514.844    514.566
 36.370    525.000    518.809      6.191    514.345    518.532    514.345    514.622    514.345
 36.470    551.544    518.446     33.097    514.125    518.169    514.125    514.403    514.125
 36.570    495.000    518.120    -23.120    513.907    517.842    513.907    514.184    513.907
 36.670    531.000    517.831     13.169    513.690    517.553    513.690    513.968    513.690
 36.770    560.569    517.586     42.983    513.474    517.308    513.474    513.753    513.474
 36.870    565.000    517.404     47.596    513.260    517.125    513.260    513.539    513.260
 36.970    543.000    517.337     25.663    513.047    517.058    513.047    513.327    513.047
 37.070    516.000    517.507     -1.507    512.836    517.227    512.836    513.116    512.836
 37.170    481.952    518.144    -36.191    512.626    517.863    512.626    512.907    512.626
 37.270    497.000    519.570    -22.570    512.418    519.289    512.418    512.700    512.418
 37.370    494.000    522.049    -28.049    512.211    521.767    512.211    512.494    512.211
 37.470    516.000    525.484     -9.484    512.006    525.202    512.006    512.289    512.006
 37.570    523.000    529.088     -6.088    511.802    528.806    511.802    512.087    511.802
 37.670    501.857    531.350    -29.493    511.599    531.068    511.599    511.885    511.599
 37.770    529.000    531.007     -2.007    511.398    530.725    511.398    511.686    511.398
 37.870    569.945    528.379     41.566    511.199    528.099    511.199    511.488    511.199
 37.970    536.000    524.841     11.159    511.001    524.561    511.001    511.291    511.001
 38.070    558.559    521.459     37.100    510.804    521.178    510.804    511.096    510.804
 38.170    496.000    518.667    -22.667    510.609    518.382    510.609    510.903    510.609
 38.270    533.000    516.575     16.425    510.415    516.286    510.415    510.711    510.415
 38.370    470.000    515.121    -45.121    510.223    514.829    510.223    510.521    510.223
 38.470    477.796    514.153    -36.356    510.033    513.856    510.033    510.332    510.033
 38.570    487.000    513.509    -26.509    509.844    513.209    509.844    510.145    509.844
 38.670    478.000    513.062    -35.062    509.657    512.760    509.657    509.960    509.657
 38.770    491.000    512.727    -21.727    509.471    512.422    509.471    509.776    509.471
 38.870    499.482    512.450    -12.969    509.286    512.143    509.286    509.594    509.286
 38.970    520.000    512.206      7.794    509.104    511.897    509.104    509.414    509.104
 39.070    477.760    511.984    -34.224    508.922    511.671    508.922    509.235    508.922
 39.170    504.000    511.777     -7.777    508.743    511.462    508.743    509.058    508.743
 39.270    519.000    511.582      7.418    508.564    511.264    508.564    508.882    508.564
 39.370    553.431    511.397     42.034    508.388    511.077    508.388    508.708    508.388
 39.470    495.000    511.223    -16.223    508.213    510.899    508.213    508.536    508.213
 39.570    521.000    511.056      9.944    508.039    510.730    508.039    508.366    508.039
 39.670    483.000    510.898    -27.898    507.867    510.569    507.867    508.197    507.867
 39.770    528.000    510.748     17.252    507.697    510.416    507.697    508.030    507.697
 39.870    503.000    510.606     -7.606    507.528    510.270    507.528    507.864    507.528
 39.970    476.688    510.471    -33.783    507.361    510.132    507.361    507.700    507.361
 40.070    498.000    510.345    -12.345    507.195    510.002    507.195    507.538    507.195
 40.170    503.345    510.227     -6.882    507.031    509.881    507.031    507.378    507.031
 40.270    497.000    510.119    -13.119    506.869    509.769    506.869    507.219    506.869
 40.370    441.000    510.020    -69.020    506.708    509.666    506.708    507.062    506.708
 40.470    497.416    509.932    -12.516    506.549    509.574    506.549    506.907    506.549
 40.570    489.000    509.856    -20.856    506.391    509.495    506.391    506.753    506.391
 40.670    503.000    509.794     -6.794    506.235    509.429    506.235    506.601    506.235
 40.770    519.000    509.749      9.251    506.081    509.379    506.081    506.451    506.081
 40.870    485.000    509.722    -24.722    505.928    509.347    505.928    506.303    505.928
 40.970    467.203    509.717    -42.513    505.777    509.338    505.777    506.156    505.777
 41.070    505.000    509.739     -4.739    505.627    509.355    505.627    506.011    505.627
 41.170    472.000    509.793    -37.793    505.479    509.405    505.479    505.868    505.479
 41.270    515.000    509.889      5.111    505.333    509.495    505.333    505.727    505.333
 41.370    526.000    510.036     15.964    505.188    509.638    505.188    505.588    505.188
 41.470    518.000    510.252      7.748    505.045    509.848    505.045    505.450    505.045
 41.570    487.000    510.559    -23.559    504.903    510.150    504.903    505.314    504.903
 41.670    510.472    511.003     -0.531    504.763    510.589    504.763    505.180    504.763
 41.770    536.537    511.684     24.853    504.625    511.263    504.625    505.047    504.625
 41.870    479.000    512.840    -33.840    504.488    512.414    504.488    504.917    504.488
 41.970    489.216    515.026    -25.810    504.353    514.594    504.353    504.788    504.353
 42.070    475.000    519.344    -44.344    504.220    518.907    504.220    504.662    504.220
 42.170    531.000    527.555      3.445    504.088    527.115    504.088    504.537    504.088
 42.270    521.000    541.676    -20.676    503.958    541.236    503.958    504.413    503.958
 42.370    524.537    562.752    -38.216    503.829    562.315    503.829    504.292    503.829
 42.470    555.000    589.035    -34.035    503.702    588.603    503.702    504.173    503.702
 42.570    619.000    614.397      4.603    503.577    613.971    503.577    504.056    503.577
 42.670    637.545    628.891      8.654    503.453    628.467    503.453    503.940    503.453
 42.770    576.000    624.931    -48.931    503.331    624.500    503.331    503.827    503.331
 42.870    576.797    604.830    -28.033    503.210    604.382    503.210    503.715    503.210
 42.970    571.000    578.060     -7.060    503.091    577.589    503.091    503.605    503.091
 43.070    558.198    553.277      4.921    502.974    552.782    502.974    503.498    502.974
 43.170    495.000    534.770    -39.770    502.859    534.254    502.859    503.392    502.859
 43.270    568.882    522.989     45.893    502.745    522.456    502.745    503.289    502.745
 43.370    499.876    516.341    -16.465    502.632    515.792    502.632    503.187    502.632
 43.470    496.000    512.836    -16.836    502.521    512.273    502.521    503.088    502.521
 43.570    514.000    510.968      3.032    502.412    510.393    502.412    502.990    502.412
 43.670    554.743    509.876     44.867    502.305    509.288    502.305    502.895    502.305
 43.770    510.000    509.149      0.851    502.199    508.547    502.199    502.802    502.199
 43.870    529.000    508.614     20.386    502.095    507.999    502.095    502.711    502.095
 43.970    510.000    508.198      1.802    501.992    507.568    501.992    502.623    501.992
 44.070    475.612    507.866    -32.254    501.891    507.221    501.891    502.537    501.891
 44.170    485.000    507.597    -22.597    501.791    506.937    501.791    502.453    501.791
 44.270    534.210    507.379     26.831    501.694    506.702    501.694    502.371    501.694
 44.370    536.000    507.201     28.799    501.597    506.506    501.597    502.292    501.597
 44.470    473.148    507.056    -33.908    501.503    506.344    501.503    502.216    501.503
 44.570    503.577    506.940     -3.363    501.410    506.209    501.410    502.142    501.410
 44.670    503.000    506.849     -3.849    501.319    506.097    501.319    502.070    501.319
 44.770    498.559    506.780     -8.221    501.229    506.007    501.229    502.002    501.229
 44.870    550.237    506.730     43.507    501.141    505.935    501.141    501.936    501.141
 44.970    464.273    506.699    -42.427    501.054    505.881    501.054    501.873    501.054
 45.070    472.846    506.686    -33.840    500.969    505.842    500.969    501.813    500.969
 45.170    533.000    506.690     26.310    500.886    505.819    500.886    501.756    500.886
 45.270    513.000    506.710      6.290    500.804    505.812    500.804    501.702    500.804
 45.370    486.939    506.747    -19.808    500.724    505.819    500.724    501.652    500.724
 45.470    550.997    506.802     44.195    500.645    505.841    500.645    501.606    500.645
 45.570    498.000    506.874     -8.874    500.568    505.880    500.568    501.563    500.568
 45.670    505.864    506.966     -1.102    500.493    505.934    500.493    501.524    500.493
 45.770    483.000    507.078    -24.078    500.419    506.007    500.419    501.489    500.419
 45.870    505.000    507.211     -2.211    500.347    506.099    500.347    501.459    500.347
 45.970    492.601    507.369    -14.768    500.276    506.211    500.276    501.434    500.276
 46.070    523.000    507.554     15.446    500.207    506.347    500.207    501.414    500.207
 46.170    482.222    507.770    -25.548    500.139    506.510    500.139    501.399    500.139
 46.270    488.040    508.021    -19.981    500.073    506.704    500.073    501.390    500.073
 46.370    509.000    508.313      0.687    500.009    506.934    500.009    501.388    500.009
 46.470    527.000    508.654     18.346    499.946    507.207    499.946    501.393    499.946
 46.570    484.000    509.054    -25.054    499.885    507.532    499.885    501.406    499.885
 46.670    540.000    509.528     30.472    499.825    507.925    499.825    501.427    499.825
 46.770    518.000    510.104      7.896    499.767    508.412    499.767    501.458    499.767
 46.870    509.000    510.837     -1.837    499.710    509.046    499.710    501.500    499.710
 46.970    500.199    511.850    -11.650    499.655    509.948    499.655    501.554    499.655
 47.070    514.000    513.409      0.591    499.602    511.385    499.602    501.622    499.602
 47.170    512.000    516.028     -4.028    499.550    513.867    499.550    501.706    499.550
 47.270    548.000    520.537     27.463    499.499    518.221    499.499    501.807    499.499
 47.370    494.000    527.981    -33.981    499.450    525.488    499.450    501.930    499.450
 47.470    521.876    539.195    -17.319    499.403    536.499    499.403    502.077    499.403
 47.570    564.000    554.078      9.922    499.357    551.150    499.357    502.252    499.357
 47.670    595.000    570.849     24.151    499.313    567.656    499.313    502.462    499.313
 47.770    650.000    585.565     64.435    499.270    582.069    499.270    502.712    499.270
 47.870    599.000    592.968      6.032    499.228    589.128    499.228    503.012    499.228
 47.970    608.598    589.950     18.649    499.189    585.714    499.189    503.372    499.189
 48.070    601.675    578.633     23.042    499.150    573.931    499.150    503.809    499.150
 48.170    596.000    564.151     31.849    499.113    558.886    499.113    504.347    499.113
 48.270    550.000    550.943     -0.943    499.078    544.978    499.078    505.023    499.078
 48.370    512.545    541.414    -28.869    499.044    534.545    499.044    505.900    499.044
 48.470    562.774    536.166     26.608    499.012    528.082    499.012    507.088    499.012
 48.570    535.611    534.761      0.850    498.981    524.966    498.981    508.770    498.981
 48.670    518.000    536.519    -18.519    498.951    524.228    498.951    511.237    498.951
 48.770    540.000    541.051     -1.051    498.923    525.055    498.923    514.915    498.923
 48.870    508.000    548.426    -40.426    498.897    526.971    498.897    520.347    498.897
 48.970    590.816    559.082     31.734    498.871    529.823    498.871    528.126    498.871
 49.070    604.000    573.640     30.360    498.848    533.757    498.848    538.725    498.848
 49.170    575.805    592.810    -17.004    498.826    539.373    498.826    552.255    498.826
 49.270    631.000    617.684     13.316    498.805    548.351    498.805    568.128    498.805
 49.370    666.748    650.867     15.882    498.785    564.997    498.785    584.639    498.785
 49.470    654.931    698.947    -44.016    498.767    599.055    498.767    598.633    498.767
 49.570    815.823    776.411     39.412    498.751    669.071    498.751    606.044    498.751
 49.670    888.977    908.625    -19.648    498.736    803.142    498.736    604.140    498.736
 49.770   1125.194   1126.707     -1.513    498.722   1031.605    498.722    593.704    498.722
 49.870   1444.000   1447.930     -3.930    498.710   1368.168    498.710    578.312    498.710
 49.970   1851.000   1847.961      3.039    498.699   1784.697    498.699    561.789    498.699
 50.070   2201.904   2243.169    -41.265    498.689   2195.018    498.689    546.705    498.689
 50.170   2522.000   2504.261     17.739    498.681   2468.621    498.681    534.284    498.681
 50.270   2525.000   2519.062      5.938    498.674   2493.018    498.674    524.804    498.674
 50.370   2372.000   2276.406     95.594    498.669   2257.268    498.669    517.985    498.669
 50.470   1954.000   1877.167     76.833    498.665   1862.755    498.665    513.284    498.665
 50.570   1450.000   1455.516     -5.516    498.662   1444.248    498.662    510.117    498.662
 50.670   1099.000   1107.355     -8.355    498.661   1098.176    498.661    507.981    498.661
 50.770    824.299    869.505    -45.206    498.661    861.756    498.661    506.506    498.661
 50.870    720.000    732.151    -12.151    498.663    725.432    498.663    505.445    498.663
 50.970    653.000    663.679    -10.679    498.665    657.744    498.665    504.648    498.665
 51.070    635.000    631.634      3.366    498.669    626.318    498.669    504.024    498.669
 51.170    658.000    613.271     44.729    498.675    608.457    498.675    503.522    498.675
 51.270    658.000    597.565     60.435    498.681    593.164    498.681    503.111    498.681
 51.370    545.000    581.966    -36.966    498.689    577.907    498.689    502.771    498.689
 51.470    516.800    567.490    -50.691    498.699    563.719    498.699    502.487    498.699
 51.570    556.040    555.500      0.540    498.709    551.972    498.709    502.249    498.709
 51.670    535.000    546.622    -11.622    498.721    543.302    498.721    502.050    498.721
 51.770    574.000    540.719     33.281    498.734    537.576    498.734    501.883    498.734
 51.870    577.233    537.212     40.020    498.748    534.221    498.748    501.743    498.748
 51.970    514.834    535.438    -20.604    498.764    532.577    498.764    501.627    498.764
 52.070    486.703    534.881    -48.178    498.781    532.132    498.781    501.532    498.781
 52.170    533.000    535.259     -2.259    498.799    532.605    498.799    501.455    498.799
 52.270    553.000    536.522     16.478    498.819    533.949    498.819    501.393    498.819
 52.370    499.779    538.888    -39.109    498.839    536.383    498.839    501.345    498.839
 52.470    549.000    542.999      6.001    498.861    540.552    498.861    501.310    498.861
 52.570    583.113    550.274     32.839    498.884    547.873    498.884    501.286    498.884
 52.670    553.000    563.440    -10.440    498.908    561.075    498.908    501.272    498.908
 52.770    580.000    587.037     -7.037    498.934    584.701    498.934    501.268    498.934
 52.870    663.000    627.367     35.633    498.961    625.051    498.961    501.273    498.961
 52.970    655.149    691.167    -36.018    498.989    688.864    498.989    501.287    498.989
 53.070    852.000    782.606     69.394    499.018    780.310    499.018    501.308    499.018
 53.170    945.000    899.092     45.908    499.048    896.797    499.048    501.336    499.048
 53.270    967.720   1027.282    -59.562    499.079   1024.987    499.079    501.372    499.079
 53.370   1132.000   1141.253     -9.253    499.112   1138.955    499.112    501.415    499.112
 53.470   1140.488   1207.147    -66.659    499.145   1204.846    499.145    501.465    499.145
 53.570   1167.000   1200.147    -33.147    499.180   1197.836    499.180    501.521    499.180
 53.670   1055.000   1123.403    -68.403    499.216   1121.073    499.216    501.584    499.216
 53.770   1015.000   1005.089      9.911    499.253   1002.727    499.253    501.654    499.253
 53.870    881.000    878.238      2.762    499.291    875.832    499.291    501.730    499.291
 53.970    712.267    766.439    -54.172    499.331    763.982    499.331    501.813    499.331
 54.070    674.955    680.811     -5.856    499.371    678.297    499.371    501.903    499.371
 54.170    641.000    622.381     18.619    499.413    619.805    499.413    502.000    499.413
 54.270    550.344    586.236    -35.892    499.455    583.593    499.455    502.105    499.455
 54.370    575.509    565.573      9.936    499.499    562.859    499.499    502.217    499.499
 54.470    584.000    554.384     29.616    499.544    551.593    499.544    502.338    499.544
 54.570    570.000    548.488     21.512    499.589    545.613    499.589    502.466    499.589
 54.670    552.000    545.436      6.564    499.636    542.470    499.636    502.604    499.636
 54.770    567.000    543.976     23.024    499.684    540.909    499.684    502.751    499.684
 54.870    580.000    543.526     36.474    499.733    540.352    499.733    502.909    499.733
 54.970    566.951    543.844     23.107    499.783    540.551    499.783    503.077    499.783
 55.070    584.890    544.838     40.052    499.834    541.416    499.834    503.257    499.834
 55.170    531.062    546.496    -15.434    499.886    542.933    499.886    503.450    499.886
 55.270    516.484    548.856    -32.373    499.939    545.139    499.939    503.656    499.939
 55.370    577.316    552.006     25.310    499.993    548.121    499.993    503.878    499.993
 55.470    625.000    556.109     68.891    500.047    552.041    500.047    504.116    500.047
 55.570    581.000    561.476     19.524    500.103    557.207    500.103    504.373    500.103
 55.670    542.000    568.756    -26.756    500.160    564.267    500.160    504.650    500.160
 55.770    530.189    579.362    -49.174    500.218    574.631    500.218    504.949    500.218
 55.870    576.000    596.300    -20.300    500.276    591.301    500.276    505.273    500.276
 55.970    605.681    625.489    -19.808    500.336    620.194    500.336    505.626    500.336
 56.070    660.000    677.324    -17.324    500.397    671.699    500.397    506.010    500.397
 56.170    714.000    767.506    -53.506    500.458    761.512    500.458    506.430    500.458
 56.270    889.000    915.456    -26.456    500.520    909.050    500.520    506.891    500.520
 56.370   1140.000   1138.620      1.380    500.584   1131.755    500.584    507.399    500.584
 56.470   1374.506   1442.575    -68.069    500.648   1435.202    500.648    507.960    500.648
 56.570   1772.718   1809.650    -36.932    500.713   1801.723    500.713    508.583    500.713
 56.670   2047.000   2190.693   -143.693    500.779   2182.165    500.779    509.277    500.779
 56.770   2467.000   2505.390    -38.390    500.845   2496.206    500.845    510.056    500.845
 56.870   2659.000   2661.899     -2.899    500.913   2651.988    500.913    510.935    500.913
 56.970   2637.390   2605.128     32.262    500.981   2594.374    500.981    511.930    500.981
 57.070   2413.000   2357.612     55.388    501.051   2345.844    501.051    513.068    501.051
 57.170   2036.000   2000.620     35.380    501.121   1987.621    501.121    514.378    501.121
 57.270   1634.000   1623.186     10.814    501.192   1608.703    501.192    515.904    501.192
 57.370   1225.517   1289.829    -64.312    501.263   1273.562    501.263    517.712    501.263
 57.470    996.000   1032.567    -36.567    501.336   1014.130    501.336    519.903    501.336
 57.570    893.240    855.821     37.419    501.409    834.668    501.409    522.647    501.409
 57.670    768.688    747.033     21.655    501.483    722.346    501.483    526.220    501.483
 57.770    762.000    687.912     74.088    501.558    658.423    501.558    531.074    501.558
 57.870    699.000    662.489     36.511    501.633    626.235    501.633    537.899    501.633
 57.970    647.000    660.772    -13.772    501.710    614.797    501.710    547.685    501.710
 58.070    672.000    678.976     -6.976    501.787    619.029    501.787    561.724    501.787
 58.170    660.000    717.863    -57.863    501.864    638.196    501.864    581.511    501.864
 58.270    732.968    780.304    -47.336    501.943    673.712    501.943    608.502    501.943
 58.370    874.058    868.712      5.347    502.022    726.966    502.022    643.723    502.022
 58.470    973.000    982.504     -9.504    502.102    797.296    502.102    687.255    502.102
 58.570   1066.683   1116.164    -49.482    502.182    880.645    502.182    737.642    502.182
 58.670   1284.000   1258.245     25.755    502.263    969.259    502.263    791.192    502.263
 58.770   1436.621   1392.402     44.219    502.345   1053.431    502.345    841.269    502.345
 58.870   1435.000   1500.488    -65.488    502.428   1124.542    502.428    878.343    502.428
 58.970   1553.000   1565.820    -12.820    502.511   1175.653    502.511    892.668    502.511
 59.070   1619.000   1577.011     41.989    502.594   1199.846    502.594    879.772    502.594
 59.170   1649.000   1533.573    115.427    502.679   1192.505    502.679    843.777    502.679
 59.270   1485.000   1448.738     36.262    502.764   1157.238    502.764    794.299    502.764
 59.370   1426.000   1344.701     81.299    502.849   1106.632    502.849    740.942    502.849
 59.470   1295.000   1244.064     50.936    502.935   1056.511    502.935    690.488    502.935
 59.570   1168.341   1165.574      2.766    503.022   1021.801    503.022    646.759    503.022
 59.670   1181.276   1124.693     56.583    503.109   1016.414    503.109    611.307    503.109
 59.770   1073.477   1132.835    -59.357    503.197   1051.787    503.197    584.113    503.197
 59.870   1180.000   1192.772    -12.772    503.286   1131.684    503.286    564.185    503.286
 59.970   1255.270   1294.069    -38.799    503.375   1247.121    503.375    550.080    503.375
 60.070   1441.000   1411.810     29.190    503.464   1374.692    503.464    540.301    503.464
 60.170   1567.000   1509.468     57.532    503.554   1479.186    503.554    533.543    503.554
 60.270   1561.000   1548.551     12.449    503.645   1523.123    503.645    528.803    503.645
 60.370   1615.000   1506.706    108.294    503.736   1484.848    503.736    525.377    503.736
 60.470   1397.000   1391.240      5.760    503.827   1372.107    503.827    522.810    503.827
 60.570   1284.000   1231.949     52.051    503.919   1214.958    503.919    520.819    503.919
 60.670   1092.096   1063.148     28.948    504.011   1047.873    504.011    519.240    504.011
 60.770    875.000    911.442    -36.442    504.104    897.550    504.104    517.977    504.104
 60.870    765.000    791.600    -26.600    504.198    778.813    504.198    516.978    504.198
 60.970    655.000    707.463    -52.463    504.291    695.537    504.291    516.214    504.291
 61.070    650.000    655.695     -5.695    504.385    644.405    504.385    515.670    504.385
 61.170    634.990    630.420      4.570    504.480    619.553    504.480    515.336    504.480
 61.270    626.000    627.051     -1.051    504.575    616.404    504.575    515.203    504.575
 61.370    638.000    644.354     -6.354    504.670    633.742    504.670    515.251    504.670
 61.470    665.338    684.593    -19.255    504.766    673.863    504.766    515.447    504.766
 61.570    749.000    751.938     -2.938    504.862    740.993    504.862    515.734    504.862
 61.670    846.000    849.485     -3.485    504.959    838.316    504.959    516.026    504.959
 61.770    942.374    975.583    -33.209    505.055    964.299    505.055    516.207    505.055
 61.870   1071.000   1120.563    -49.563    505.153   1109.394    505.153    516.159    505.153
 61.970   1217.000   1265.108    -48.108    505.250   1254.358    505.250    515.820    505.250
 62.070   1354.000   1381.524    -27.524    505.348   1371.477    505.348    515.217    505.348
 62.170   1367.450   1440.366    -72.916    505.446   1431.214    505.446    514.444    505.446
 62.270   1348.000   1423.779    -75.779    505.544   1415.600    505.544    513.612    505.544
 62.370   1246.000   1336.682    -90.682    505.643   1329.451    505.643    512.808    505.643
 62.470   1160.000   1203.250    -43.250    505.742   1196.878    505.742    512.086    505.742
 62.570   1012.465   1053.317    -40.852    505.841   1047.682    505.841    511.474    505.841
 62.670    924.000    911.586     12.414    505.941    906.560    505.941    510.978    505.941
 62.770    743.708    793.351    -49.643    506.040    788.813    506.040    510.593    506.040
 62.870    720.651    704.428     16.222    506.140    700.278    506.140    510.303    506.140
 62.970    697.000    643.396     53.604    506.240    639.553    506.240    510.091    506.240
 63.070    592.000    604.811    -12.811    506.341    601.214    506.341    509.940    506.341
 63.170    586.067    582.181      3.887    506.441    578.787    506.441    509.835    506.441
 63.270    525.344    569.922    -44.578    506.542    566.698    506.542    509.762    506.542
 63.370    570.000    564.187      5.813    506.643    561.110    506.643    509.715    506.643
 63.470    596.000    562.938     33.062    506.744    559.989    506.744    509.685    506.744
 63.570    616.000    565.694     50.306    506.845    562.859    506.845    509.670    506.845
 63.670    588.425    573.249     15.176    506.947    570.516    506.947    509.667    506.947
 63.770    606.000    587.402     18.598    507.048    584.757    507.048    509.673    507.048
 63.870    597.000    610.592    -13.592    507.150    608.025    507.150    509.687    507.150
 63.970    644.748    645.295     -0.547    507.251    642.794    507.251    509.708    507.251
 64.070    661.759    693.107    -31.348    507.353    690.663    507.353    509.737    507.353
 64.170    785.000    753.635     31.365    507.455    751.238    507.455    509.770    507.455
 64.270    861.061    823.446     37.615    507.557    821.091    507.557    509.810    507.557
 64.370    889.795    895.394     -5.599    507.659    893.080    507.659    509.854    507.659
 64.470   1020.000    958.862     61.138    507.761    956.591    507.761    509.903    507.761
 64.570    984.000   1001.998    -17.998    507.864    999.779    507.864    509.956    507.864
 64.670   1031.000   1016.350     14.650    507.966   1014.190    507.966    510.012    507.966
 64.770   1065.939   1000.651     65.288    508.068    998.557    508.068    510.072    508.068
 64.870    956.000    960.356     -4.356    508.170    958.329    508.170    510.136    508.170
 64.970    889.695    904.684    -14.989    508.273    902.720    508.273    510.202    508.273
 65.070    835.554    843.590     -8.036    508.375    841.683    508.375    510.272    508.375
 65.170    802.696    785.083     17.613    508.477    783.223    508.477    510.344    508.477
 65.270    736.000    733.726      2.274    508.579    731.906    508.579    510.419    508.579
 65.370    667.000    690.897    -23.897    508.681    689.107    508.681    510.496    508.681
 65.470    617.476    656.166    -38.691    508.783    654.399    508.783    510.576    508.783
 65.570    607.000    628.583    -21.583    508.885    626.833    508.885    510.658    508.885
 65.670    591.609    607.165    -15.556    508.987    605.428    508.987    510.742    508.987
 65.770    561.000    590.954    -29.954    509.089    589.227    509.089    510.828    509.089
 65.870    593.350    579.059     14.290    509.191    577.342    509.191    510.916    509.191
 65.970    540.000    570.708    -30.708    509.293    568.999    509.293    511.006    509.293
 66.070    542.000    565.244    -23.244    509.394    563.544    509.394    511.096    509.394
 66.170    520.000    562.120    -42.120    509.496    560.426    509.496    511.190    509.496
 66.270    544.000    560.884    -16.884    509.597    559.195    509.597    511.285    509.597
 66.370    540.317    561.201    -20.883    509.698    559.516    509.698    511.382    509.698
 66.470    538.876    562.890    -24.014    509.799    561.207    509.799    511.482    509.799
 66.570    560.275    565.983     -5.709    509.900    564.301    509.900    511.582    509.900
 66.670    596.000    570.840     25.160    510.001    569.156    510.001    511.685    510.001
 66.770    603.000    578.345     24.655    510.101    576.658    510.101    511.789    510.101
 66.870    565.858    590.250    -24.392    510.202    588.556    510.202    511.896    510.202
 66.970    601.786    609.645     -7.859    510.302    607.941    510.302    512.004    510.302
 67.070    619.000    641.472    -22.472    510.401    639.755    510.401    512.113    510.401
 67.170    654.000    692.850    -38.850    510.501    691.118    510.501    512.225    510.501
 67.270    801.000    772.816     28.184    510.600    771.064    510.600    512.339    510.600
 67.370    862.517    891.051    -28.534    510.699    889.278    510.699    512.455    510.699
 67.470   1054.000   1055.356     -1.356    510.798   1053.562    510.798    512.573    510.798
 67.570   1262.000   1268.089     -6.089    510.897   1266.280    510.897    512.693    510.897
 67.670   1479.000   1522.377    -43.377    510.995   1520.560    510.995    512.815    510.995
 67.770   1750.000   1799.218    -49.218    511.093   1797.405    511.093    512.940    511.093
 67.870   2134.000   2066.582     67.418    511.191   2064.788    511.191    513.067    511.191
 67.970   2266.510   2281.966    -15.456    511.288   2280.203    511.288    513.198    511.288
 68.070   2414.000   2401.366     12.634    511.385   2399.639    511.385    513.331    511.385
 68.170   2348.000   2395.954    -47.954    511.482   2394.251    511.482    513.467    511.482
 68.270   2175.840   2267.222    -91.382    511.578   2265.514    511.578    513.607    511.578
 68.370   2120.180   2046.046     74.134    511.674   2044.297    511.674    513.750    511.674
 68.470   1883.000   1776.798    106.202    511.770   1774.974    511.770    513.897    511.770
 68.570   1530.000   1501.273     28.727    511.865   1499.351    511.865    514.049    511.865
 68.670   1236.000   1250.412    -14.412    511.960   1248.377    511.960    514.205    511.960
 68.770   1018.000   1042.109    -24.109    512.054   1039.956    512.054    514.366    512.054
 68.870    879.000    882.320     -3.320    512.148    880.050    512.148    514.532    512.148
 68.970    753.000    768.075    -15.075    512.242    765.689    512.242    514.705    512.242
 69.070    637.570    691.293    -53.723    512.335    688.795    512.335    514.884    512.335
 69.170    705.000    642.273     62.727    512.428    639.663    512.428    515.071    512.428
 69.270    652.000    612.111     39.889    512.520    609.386    512.520    515.266    512.520
 69.370    614.587    593.865     20.722    512.612    591.021    512.612    515.470    512.612
 69.470    576.000    582.749     -6.749    512.703    579.778    512.703    515.684    512.703
 69.570    599.000    575.773     23.227    512.794    572.665    512.794    515.909    512.794
 69.670    609.206    571.218     37.988    512.885    567.961    512.885    516.147    512.885
 69.770    595.000    568.158     26.842    512.975    564.737    512.975    516.399    512.975
 69.870    588.000    566.120     21.880    513.064    562.520    513.064    516.667    513.064
 69.970    570.000    564.870      5.130    513.153    561.071    513.153    516.953    513.153
 70.070    597.000    564.300     32.700    513.241    560.282    513.241    517.260    513.241
 70.170    569.000    564.378      4.622    513.329    560.117    513.329    517.590    513.329
 70.270    501.000    565.134    -64.134    513.416    560.601    513.416    517.948    513.416
 70.370    518.661    566.678    -48.017    513.503    561.843    513.503    518.336    513.503
 70.470    600.000    569.260     30.740    513.589    564.085    513.589    518.761    513.589
 70.570    574.548    573.366      1.183    513.674    567.808    513.674    519.227    513.674
 70.670    540.786    579.881    -39.095    513.759    573.889    513.759    519.744    513.759
 70.770    586.000    590.324     -4.324    513.844    583.836    513.844    520.320    513.844
 70.870    564.657    607.104    -42.447    513.927    600.044    513.927    520.969    513.927
 70.970    577.000    633.757    -56.757    514.010    626.027    514.010    521.713    514.010
 71.070    608.000    674.967    -66.967    514.093    666.437    514.093    522.581    514.093
 71.170    720.265    736.230    -15.965    514.175    726.721    514.175    523.624    514.175
 71.270    814.000    822.979     -8.979    514.256    812.229    514.256    524.922    514.256
 71.370    915.000    939.128    -24.128    514.336    926.747    514.336    526.604    514.336
 71.470   1061.000   1085.230    -24.230    514.416   1070.634    514.416    528.867    514.416
 71.570   1291.000   1256.668     34.332    514.495   1238.981    514.495    532.007    514.495
 71.670   1424.865   1442.365    -17.500    514.574   1420.304    514.574    536.437    514.574
 71.770   1617.000   1624.467     -7.467    514.652   1596.213    514.652    542.695    514.652
 71.870   1811.628   1779.569     32.059    514.729   1742.664    514.729    551.426    514.729
 71.970   1917.486   1882.767     34.719    514.805   1834.062    514.805    563.323    514.805
 72.070   1960.000   1915.499     44.501    514.881   1851.214    514.881    579.014    514.881
 72.170   1915.000   1874.147     40.853    514.956   1790.085    514.956    598.906    514.956
 72.270   1832.000   1772.113     59.887    515.030   1664.064    515.030    623.004    515.030
 72.370   1764.000   1632.913    131.087    515.103   1497.254    515.103    650.717    515.103
 72.470   1551.420   1480.753     70.668    515.176   1315.207    515.176    680.696    515.176
 72.570   1330.000   1334.511     -4.511    515.248   1139.050    515.248    710.694    515.248
 72.670   1273.766   1205.474     68.292    515.319    983.249    515.319    737.535    515.319
 72.770   1082.000   1097.404    -15.404    515.389    855.399    515.389    757.387    515.389
 72.870   1033.543   1008.398     25.145    515.459    757.183    515.459    766.666    515.459
 72.970    934.034    933.984      0.050    515.527    686.045    515.527    763.458    515.527
 73.070    807.000    869.999    -62.999    515.595    637.102    515.595    748.485    515.595
 73.170    784.300    813.869    -29.569    515.662    604.821    515.662    724.703    515.662
 73.270    766.920    764.400      2.520    515.728    584.165    515.728    695.958    515.728
 73.370    692.000    721.164    -29.164    515.794    571.160    515.794    665.793    515.794
 73.470    710.562    684.062     26.500    515.858    563.008    515.858    636.910    515.858
 73.570    660.292    653.081      7.210    515.922    557.921    515.922    611.082    515.922
 73.670    625.000    628.123     -3.123    515.985    554.861    515.985    589.250    515.985
 73.770    595.000    608.898    -13.898    516.047    553.273    516.047    571.677    516.047
 73.870    607.000    594.890     12.110    516.108    552.876    516.108    558.130    516.108
 73.970    540.359    585.391    -45.031    516.168    553.504    516.168    548.068    516.168
 74.070    572.000    579.565     -7.565    516.227    554.997    516.227    540.814    516.227
 74.170    553.832    576.518    -22.685    516.285    557.135    516.285    535.692    516.285
 74.270    563.000    575.337    -12.337    516.343    559.603    516.343    532.107    516.343
 74.370    548.037    575.130    -27.093    516.399    561.981    516.399    529.585    516.399
 74.470    612.089    575.059     37.030    516.455    563.778    516.455    527.776    516.455
 74.570    598.065    574.410     23.656    516.509    564.525    516.509    526.438    516.509
 74.670    521.934    572.730    -50.796    516.563    563.926    516.563    525.411    516.563
 74.770    649.000    569.930     79.070    516.616    561.994    516.616    524.594    516.616
 74.870    566.382    566.267      0.115    516.667    559.050    516.667    523.923    516.667
 74.970    570.459    562.205      8.254    516.718    555.597    516.718    523.358    516.718
 75.070    667.000    558.267    108.733    516.768    552.185    516.768    522.876    516.768
 75.170    583.000    554.963     28.037    516.817    549.339    516.817    522.460    516.817
 75.270    546.554    552.773     -6.219    516.864    547.554    516.864    522.097    516.864
 75.370    570.000    552.170     17.830    516.911    547.310    516.911    521.779    516.911
 75.470    527.450    553.642    -26.193    516.957    549.101    516.957    521.500    516.957
 75.570    552.000    557.706     -5.706    517.002    553.450    517.002    521.253    517.002
 75.670    553.000    564.876    -11.876    517.045    560.877    517.045    521.035    517.045
 75.770    591.000    575.591     15.409    517.088    571.821    517.088    520.841    517.088
 75.870    603.000    590.071     12.929    517.129    586.507    517.129    520.669    517.129
 75.970    656.056    608.155     47.900    517.170    604.777    517.170    520.515    517.170
 76.070    632.000    629.142      2.858    517.209    625.932    517.209    520.378    517.209
 76.170    646.000    651.676     -5.676    517.248    648.619    517.248    520.255    517.248
 76.270    632.000    673.727    -41.727    517.285    670.810    517.285    520.144    517.285
 76.370    708.000    692.686     15.314    517.321    689.899    517.321    520.045    517.321
 76.470    701.000    705.701     -4.701    517.356    703.037    517.356    519.956    517.356
 76.570    726.000    710.381     15.619    517.391    707.834    517.391    519.875    517.391
 76.670    725.000    705.730     19.270    517.423    703.295    517.423    519.802    517.423
 76.770    680.000    692.626    -12.626    517.455    690.297    517.455    519.736    517.455
 76.870    680.000    673.388      6.612    517.486    671.159    517.486    519.676    517.486
 76.970    598.000    650.848    -52.848    517.515    648.712    517.515    519.622    517.515
 77.070    625.047    627.619     -2.572    517.544    625.569    517.544    519.572    517.544
 77.170    573.000    605.744    -32.744    517.571    603.773    517.571    519.527    517.571
 77.270    569.000    586.575    -17.575    517.597    584.677    517.597    519.485    517.597
 77.370    548.546    570.792    -22.246    517.622    568.960    517.622    519.447    517.622
 77.470    512.609    558.499    -45.890    517.646    556.729    517.646    519.412    517.646
 77.570    513.000    549.394    -36.394    517.669    547.680    517.669    519.380    517.669
 77.670    545.082    542.941      2.141    517.690    541.280    517.690    519.350    517.690
 77.770    574.000    538.533     35.467    517.711    536.920    517.711    519.322    517.711
 77.870    528.000    535.599     -7.599    517.730    534.032    517.730    519.296    517.730
 77.970    500.059    533.655    -33.595    517.748    532.130    517.748    519.271    517.748
 78.070    579.708    532.365     47.344    517.764    530.879    517.764    519.249    517.764
 78.170    522.000    531.519     -9.519    517.780    530.071    517.780    519.227    517.780
 78.270    508.000    530.942    -22.942    517.794    529.529    517.794    519.207    517.794
 78.370    520.000    530.542    -10.542    517.807    529.161    517.807    519.187    517.807
 78.470    516.000    530.268    -14.268    517.819    528.917    517.819    519.169    517.819
 78.570    549.790    530.097     19.693    517.830    528.774    517.830    519.152    517.830
 78.670    545.000    530.027     14.973    517.839    528.730    517.839    519.135    517.839
 78.770    535.000    530.066      4.934    517.847    528.793    517.847    519.120    517.847
 78.870    482.000    530.231    -48.231    517.854    528.979    517.854    519.105    517.854
 78.970    571.557    530.545     41.012    517.860    529.312    517.860    519.092    517.860
 79.070    556.241    531.039     25.202    517.864    529.821    517.864    519.081    517.864
 79.170    537.301    531.742      5.559    517.867    530.535    517.867    519.072    517.867
 79.270    517.000    532.685    -15.685    517.869    531.485    517.869    519.067    517.869
 79.370    507.020    533.894    -26.874    517.870    532.696    517.870    519.065    517.870
 79.470    510.170    535.397    -25.227    517.869    534.194    517.869    519.069    517.869
 79.570    568.000    537.227     30.773    517.867    536.012    517.867    519.079    517.867
 79.670    584.202    539.437     44.766    517.864    538.200    517.864    519.096    517.864
 79.770    570.000    542.113     27.887    517.859    540.846    517.859    519.121    517.859
 79.870    528.733    545.402    -16.669    517.853    544.095    517.853    519.156    517.853
 79.970    581.327    549.535     31.792    517.846    548.178    517.846    519.198    517.846
 80.070    565.796    554.851     10.945    517.838    553.436    517.838    519.248    517.838
 80.170    557.744    561.796     -4.052    517.828    560.318    517.828    519.303    517.828
 80.270    562.000    570.873     -8.873    517.817    569.330    517.817    519.359    517.817
 80.370    583.653    582.542      1.111    517.804    580.936    517.804    519.412    517.804
 80.470    594.000    597.096     -3.096    517.791    595.437    517.791    519.455    517.791
 80.570    634.000    614.549     19.451    517.775    612.854    517.775    519.481    517.775
 80.670    664.498    634.551     29.948    517.759    632.842    517.759    519.482    517.759
 80.770    657.000    656.337      0.663    517.741    654.644    517.741    519.455    517.741
 80.870    644.000    678.762    -34.762    517.722    677.111    517.722    519.399    517.722
 80.970    736.542    700.416     36.127    517.702    698.832    517.702    519.319    517.702
 81.070    738.205    719.834     18.372    517.680    718.333    517.680    519.221    517.680
 81.170    732.000    735.693     -3.693    517.657    734.284    517.657    519.113    517.657
 81.270    710.000    746.937    -36.937    517.632    745.622    517.632    519.001    517.632
 81.370    771.011    752.860     18.151    517.606    751.635    517.606    518.890    517.606
 81.470    748.614    753.189     -4.575    517.579    752.048    517.579    518.783    517.579
 81.570    731.915    748.096    -16.181    517.550    747.029    517.550    518.684    517.550
 81.670    762.000    738.136     23.864    517.520    737.133    517.520    518.592    517.520
 81.770    715.000    724.205     -9.205    517.489    723.255    517.489    518.509    517.489
 81.870    726.000    707.502     18.498    517.456    706.593    517.456    518.433    517.456
 81.970    697.000    689.358      7.642    517.422    688.482    517.422    518.364    517.422
 82.070    710.562    670.967     39.594    517.386    670.116    517.386    518.300    517.386
 82.170    669.000    653.172     15.828    517.349    652.339    517.349    518.241    517.349
 82.270    688.000    636.422     51.578    517.311    635.602    517.311    518.185    517.311
 82.370    610.000    620.887    -10.887    517.271    620.076    517.271    518.132    517.271
 82.470    604.000    606.638     -2.638    517.230    605.833    517.230    518.079    517.230
 82.570    578.744    593.776    -15.032    517.187    592.975    517.187    518.028    517.187
 82.670    568.000    582.460    -14.460    517.143    581.659    517.143    517.976    517.143
 82.770    582.000    572.866      9.134    517.098    572.065    517.098    517.925    517.098
 82.870    542.000    565.156    -23.156    517.051    564.353    517.051    517.873    517.051
 82.970    563.000    559.451      3.549    517.003    558.646    517.003    517.820    517.003
 83.070    557.131    555.823      1.308    516.953    555.014    516.953    517.766    516.953
 83.170    544.231    554.270    -10.039    516.902    553.457    516.902    517.712    516.902
 83.270    551.000    554.698     -3.698    516.849    553.880    516.849    517.657    516.849
 83.370    598.899    556.898     42.002    516.795    556.075    516.795    517.600    516.795
 83.470    536.736    560.536    -23.799    516.740    559.708    516.740    517.543    516.740
 83.570    549.004    565.155    -16.151    516.683    564.322    516.683    517.485    516.683
 83.670    549.000    570.185    -21.185    516.625    569.348    516.625    517.425    516.625
 83.770    551.000    574.971    -23.971    516.565    574.129    516.565    517.365    516.565
 83.870    525.000    578.824    -53.824    516.504    577.981    516.504    517.303    516.504
 83.970    571.000    581.119    -10.119    516.442    580.274    516.442    517.240    516.442
 84.070    559.000    581.412    -22.412    516.378    580.568    516.378    517.177    516.378
 84.170    569.821    579.574     -9.753    516.313    578.732    516.313    517.112    516.313
 84.270    557.000    575.812    -18.812    516.246    574.974    516.246    517.046    516.246
 84.370    550.000    570.592    -20.592    516.177    569.757    516.177    516.978    516.177
 84.470    515.829    564.490    -48.661    516.108    563.659    516.108    516.910    516.108
 84.570    541.303    558.073    -16.770    516.037    557.246    516.037    516.840    516.037
 84.670    548.000    551.826     -3.826    515.964    551.002    515.964    516.770    515.964
 84.770    528.000    546.112    -18.112    515.890    545.290    515.890    516.698    515.890
 84.870    541.297    541.164      0.133    515.814    540.342    515.814    516.625    515.814
 84.970    530.709    537.090     -6.381    515.737    536.268    515.737    516.551    515.737
 85.070    517.000    533.896    -16.896    515.659    533.072    515.659    516.475    515.659
 85.170    502.000    531.511    -29.511    515.579    530.686    515.579    516.399    515.579
 85.270    491.727    529.828    -38.101    515.498    529.000    515.498    516.321    515.498
 85.370    533.000    528.725      4.275    515.415    527.893    515.415    516.243    515.415
 85.470    514.572    528.092    -13.520    515.331    527.256    515.331    516.163    515.331
 85.570    525.210    527.847     -2.638    515.245    527.006    515.245    516.082    515.245
 85.670    581.000    527.944     53.056    515.158    527.097    515.158    516.000    515.158
 85.770    525.288    528.376     -3.088    515.070    527.523    515.070    515.916    515.070
 85.870    547.000    529.182     17.818    514.980    528.322    514.980    515.832    514.980
 85.970    517.000    530.444    -13.444    514.888    529.576    514.888    515.747    514.888
 86.070    577.465    532.285     45.180    514.796    531.409    514.796    515.660    514.796
 86.170    534.000    534.865     -0.865    514.701    533.979    514.701    515.572    514.701
 86.270    554.000    538.368     15.632    514.606    537.470    514.606    515.484    514.606
 86.370    536.000    542.981     -6.981    514.508    542.069    514.508    515.394    514.508
 86.470    501.485    548.868    -47.384    514.410    547.942    514.410    515.303    514.410
 86.570    539.071    556.136    -17.065    514.310    555.192    514.310    515.211    514.310
 86.670    562.000    564.788     -2.788    514.208    563.825    514.208    515.118    514.208
 86.770    615.203    574.687     40.516    514.105    573.704    514.105    515.024    514.105
 86.870    615.000    585.526     29.474    514.001    584.522    514.001    514.929    514.001
 86.970    589.380    596.808     -7.428    513.895    595.782    513.895    514.833    513.895
 87.070    608.000    607.850      0.150    513.788    606.803    513.788    514.737    513.788
 87.170    637.923    617.806     20.117    513.679    616.739    513.679    514.639    513.679
 87.270    643.000    625.779     17.221    513.569    624.695    513.569    514.540    513.569
 87.370    647.967    630.925     17.042    513.457    629.827    513.457    514.441    513.457
 87.470    606.000    632.650    -26.650    513.344    631.542    513.344    514.341    513.344
 87.570    648.000    630.802     17.198    513.230    629.687    513.230    514.240    513.230
 87.670    650.000    625.710     24.290    513.114    624.591    513.114    514.138    513.114
 87.770    667.000    618.081     48.919    512.997    616.960    512.997    514.035    512.997
 87.870    636.000    608.826     27.174    512.878    607.702    512.878    513.932    512.878
 87.970    641.219    598.906     42.314    512.758    597.779    512.758    513.828    512.758
 88.070    620.066    589.230     30.836    512.637    588.100    512.637    513.724    512.637
 88.170    607.000    580.586     26.414    512.514    579.450    512.514    513.619    512.514
 88.270    593.000    573.597     19.403    512.389    572.453    512.389    513.514    512.389
 88.370    547.000    568.692    -21.692    512.264    567.537    512.264    513.408    512.264
 88.470    541.674    566.102    -24.428    512.137    564.935    512.137    513.302    512.137
 88.570    593.000    565.860     27.140    512.008    564.679    512.008    513.195    512.008
 88.670    588.000    567.816     20.184    511.878    566.619    511.878    513.089    511.878
 88.770    551.000    571.651    -20.651    511.747    570.436    511.747    512.982    511.747
 88.870    598.000    576.898     21.102    511.614    575.665    511.614    512.876    511.614
 88.970    620.000    582.969     37.031    511.480    581.716    511.480    512.769    511.480
 89.070    557.439    589.179    -31.740    511.345    587.906    511.345    512.662    511.345
 89.170    631.000    594.795     36.205    511.208    593.498    511.208    512.556    511.208
 89.270    645.000    599.088     45.912    511.070    597.764    511.070    512.451    511.070
 89.370    590.892    601.435    -10.543    510.930    600.080    510.930    512.346    510.930
 89.470    604.000    601.437      2.563    510.789    600.047    510.789    512.243    510.789
 89.570    593.000    599.011     -6.011    510.647    597.581    510.647    512.141    510.647
 89.670    577.000    594.398    -17.398    510.503    592.923    510.503    512.040    510.503
 89.770    601.000    588.080     12.920    510.358    586.556    510.358    511.940    510.358
 89.870    570.000    580.652    -10.652    510.212    579.073    510.212    511.843    510.212
 89.970    571.000    572.713     -1.713    510.064    571.075    510.064    511.748    510.064
 90.070    583.000    564.794     18.206    509.915    563.093    509.915    511.656    509.915
 90.170    540.173    557.324    -17.150    509.765    555.554    509.765    511.566    509.765
 90.270    520.000    550.608    -30.608    509.613    548.766    509.613    511.481    509.613
 90.370    517.000    544.834    -27.834    509.460    542.914    509.460    511.400    509.460
 90.470    510.868    540.076    -29.208    509.306    538.072    509.306    511.325    509.306
 90.570    541.322    536.321      5.002    509.150    534.226    509.150    511.256    509.150
 90.670    523.681    533.491     -9.810    508.993    531.297    508.993    511.195    508.993
 90.770    551.000    531.476     19.524    508.835    529.172    508.835    511.144    508.835
 90.870    563.050    530.151     32.899    508.676    527.723    508.676    511.107    508.676
 90.970    498.000    529.406    -31.406    508.515    526.836    508.515    511.087    508.515
 91.070    485.000    529.148    -44.148    508.353    526.412    508.353    511.089    508.353
 91.170    515.000    529.290    -14.290    508.189    526.357    508.189    511.122    508.189
 91.270    477.000    529.888    -52.888    508.025    526.715    508.025    511.196    508.025
 91.370    563.000    530.966     32.034    507.859    527.499    507.859    511.324    507.859
 91.470    565.000    532.598     32.402    507.692    528.764    507.692    511.522    507.692
 91.570    517.000    534.911    -17.911    507.524    530.616    507.524    511.813    507.524
 91.670    524.961    538.082    -13.121    507.354    533.206    507.354    512.223    507.354
 91.770    514.000    542.329    -28.329    507.183    536.721    507.183    512.781    507.183
 91.870    556.466    547.899      8.568    507.011    541.376    507.011    513.521    507.011
 91.970    565.000    555.053      9.947    506.838    547.396    506.838    514.478    506.838
 92.070    573.000    564.045      8.955    506.663    554.998    506.663    515.690    506.663
 92.170    624.442    575.090     49.352    506.488    564.363    506.488    517.187    506.488
 92.270    543.153    588.333    -45.179    506.311    575.613    506.311    518.997    506.311
 92.370    585.000    603.820    -18.820    506.133    588.779    506.133    521.134    506.133
 92.470    617.917    621.468     -3.552    505.954    603.777    505.954    523.598    505.954
 92.570    657.419    641.040     16.379    505.773    620.390    505.773    526.370    505.773
 92.670    685.000    662.126     22.874    505.592    638.252    505.592    529.405    505.592
 92.770    692.000    684.151      7.849    505.409    656.859    505.409    532.633    505.409
 92.870    741.000    706.389     34.611    505.225    675.588    505.225    535.953    505.225
 92.970    674.144    728.002    -53.857    505.040    693.735    505.040    539.231    505.040
 93.070    796.000    748.155     47.845    504.854    710.634    504.854    542.296    504.854
 93.170    813.000    766.150     46.850    504.667    725.785    504.667    544.951    504.667
 93.270    831.950    781.542     50.409    504.479    738.955    504.479    546.986    504.479
 93.370    820.000    794.187     25.813    504.289    750.195    504.289    548.203    504.289
 93.470    820.000    804.210     15.790    504.099    759.768    504.099    548.464    504.099
 93.570    860.365    811.926     48.439    503.907    768.037    503.907    547.722    503.907
 93.670    799.000    817.792    -18.792    503.715    775.395    503.715    546.040    503.715
 93.770    862.000    822.372     39.628    503.521    782.257    503.521    543.567    503.521
 93.870    808.629    826.342    -17.713    503.326    789.098    503.326    540.503    503.326
 93.970    843.037    830.461     12.576    503.130    796.467    503.130    537.060    503.130
 94.070    848.000    835.465     12.535    502.934    804.904    502.934    533.432    502.934
 94.170    876.000    841.893     34.107    502.736    814.786    502.736    529.784    502.736
 94.270    852.000    849.914      2.086    502.537    826.149    502.537    526.245    502.537
 94.370    803.842    859.208    -55.367    502.337    838.579    502.337    522.912    502.337
 94.470    906.000    868.953     37.047    502.136    851.186    502.136    519.852    502.136
 94.570    918.000    877.883     40.117    501.935    862.667    501.935    517.104    501.935
 94.670    918.000    884.441     33.559    501.732    871.446    501.732    514.686    501.732
 94.770    945.000    886.999     58.001    501.528    875.899    501.528    512.596    501.528
 94.870    870.000    884.172    -14.172    501.324    874.655    501.324    510.816    501.324
 94.970    875.823    875.134      0.689    501.118    866.917    501.118    509.319    501.118
 95.070    928.000    859.845     68.155    500.912    852.677    500.912    508.073    500.912
 95.170    883.000    839.070     43.930    500.704    832.733    500.704    507.041    500.704
 95.270    825.000    814.202     10.798    500.496    808.515    500.496    506.188    500.496
 95.370    838.727    787.004     51.723    500.287    781.819    500.287    505.481    500.287
 95.470    812.000    759.429     52.571    500.077    754.626    500.077    504.891    500.077
 95.570    776.000    733.380     42.620    499.866    728.865    499.866    504.393    499.866
 95.670    766.000    710.640     55.360    499.654    706.337    499.654    503.966    499.654
 95.770    681.116    692.815    -11.699    499.442    688.668    499.442    503.593    499.442
 95.870    637.000    681.307    -44.307    499.228    677.272    499.228    503.263    499.228
 95.970    687.000    677.308      9.692    499.014    673.349    499.014    502.966    499.014
 96.070    734.185    681.802     52.383    498.799    677.892    498.799    502.694    498.799
 96.170    715.000    695.579     19.421    498.584    691.695    498.584    502.443    498.584
 96.270    724.000    719.215      4.785    498.367    715.338    498.367    502.209    498.367
 96.370    746.000    753.036     -7.036    498.150    749.150    498.150    501.990    498.150
 96.470    784.000    797.046    -13.046    497.932    793.136    497.932    501.784    497.932
 96.570    869.000    850.831     18.169    497.713    846.885    497.713    501.590    497.713
 96.670    889.000    913.453    -24.453    497.494    909.460    497.494    501.407    497.494
 96.770    994.821    983.366     11.455    497.274    979.315    497.274    501.235    497.274
 96.870    994.053   1058.351    -64.299    497.053   1054.233    497.053    501.074    497.053
 96.970   1114.000   1135.492    -21.492    496.832   1131.298    496.832    500.925    496.832
 97.070   1151.364   1211.224    -59.860    496.610   1206.946    496.610    500.786    496.610
 97.170   1277.000   1281.450     -4.450    496.387   1277.080    496.387    500.659    496.387
 97.270   1313.000   1341.784    -28.784    496.164   1337.315    496.164    500.544    496.164
 97.370   1376.318   1387.974    -11.656    495.940   1383.397    495.940    500.442    495.940
 97.470   1487.066   1416.489     70.577    495.715   1411.794    495.715    500.354    495.715
 97.570   1435.000   1425.167      9.833    495.490   1420.340    495.490    500.280    495.490
 97.670   1396.000   1413.648    -17.648    495.264   1408.673    495.264    500.224    495.264
 97.770   1396.011   1383.395     12.617    495.038   1378.253    495.038    500.186    495.038
 97.870   1338.000   1337.310      0.690    494.812   1331.976    494.812    500.169    494.812
 97.970   1271.180   1279.159     -7.979    494.584   1273.604    494.584    500.177    494.584
 98.070   1213.585   1213.054      0.531    494.357   1207.244    494.357    500.215    494.357
 98.170   1170.191   1143.071     27.120    494.128   1136.965    494.128    500.288    494.128
 98.270   1102.000   1073.011     28.989    493.900   1066.562    493.900    500.406    493.900
 98.370   1071.452   1006.257     65.195    493.671    999.403    493.671    500.579    493.671
 98.470    919.000    945.690    -26.690    493.441    938.357    493.441    500.825    493.441
 98.570    889.000    893.677     -4.677    493.211    885.769    493.211    501.162    493.211
 98.670    845.000    852.088     -7.088    492.981    843.484    492.981    501.620    492.981
 98.770    791.000    822.350    -31.350    492.750    812.894    492.750    502.232    492.750
 98.870    807.000    805.516      1.484    492.519    795.008    492.519    503.043    492.519
 98.970    812.511    802.345     10.167    492.288    790.529    492.288    504.110    492.288
 99.070    767.000    813.347    -46.347    492.056    799.904    492.056    505.497    492.056
 99.170    823.930    838.871    -14.941    491.824    823.401    491.824    507.283    491.824
 99.270    869.000    879.035    -10.035    491.592    861.051    491.592    509.558    491.592
 99.370    912.780    933.704    -20.924    491.360    912.621    491.360    512.419    491.360
 99.470    984.632   1002.425    -17.793    491.127    977.555    491.127    515.970    491.127
 99.570   1128.000   1084.327     43.673    490.894   1054.881    490.894    520.314    490.894
 99.670   1104.000   1178.025    -74.025    490.661   1143.115    490.661    525.547    490.661
 99.770   1231.701   1281.524    -49.822    490.427   1240.183    490.427    531.751    490.427
 99.870   1383.410   1392.156     -8.746    490.194   1343.362    490.194    538.981    490.194
 99.970   1499.755   1506.572     -6.816    489.960   1449.281    489.960    547.259    489.960
100.070   1650.000   1620.806     29.194    489.726   1553.998    489.726    556.561    489.726
100.170   1700.595   1730.477    -29.881    489.492   1653.212    489.492    566.806    489.492
100.270   1822.000   1831.110     -9.110    489.258   1742.590    489.258    577.853    489.258
100.370   1916.161   1918.542     -2.381    489.024   1818.179    489.024    589.488    489.024
100.470   1896.159   1989.257    -93.098    488.790   1876.753    488.790    601.420    488.790
100.570   2124.000   2040.551     83.449    488.556   1915.976    488.556    613.281    488.556
100.670   2036.397   2070.512    -34.115    488.321   1934.384    488.321    624.621    488.321
100.770   1986.538   2077.979    -91.441    488.087   1931.337    488.087    634.918    488.087
100.870   2006.168   2062.633    -56.465    487.853   1907.083    487.853    643.606    487.853
100.970   2014.503   2025.257    -10.754    487.619   1862.968    487.619    650.119    487.619
101.070   1883.481   1967.981    -84.501    487.385   1801.609    487.385    653.970    487.385
101.170   1936.000   1894.313     41.687    487.151   1726.837    487.151    654.837    487.151
101.270   1771.000   1808.826    -37.826    486.917   1643.318    486.917    652.629    486.917
101.370   1719.000   1716.620      2.380    486.683   1555.989    486.683    647.507    486.683
101.470   1603.880   1622.728    -18.848    486.450   1469.505    486.450    639.852    486.450
101.570   1501.000   1531.630    -30.630    486.217   1387.827    486.217    630.182    486.217
101.670   1375.748   1446.935    -71.187    485.984   1313.995    485.984    619.070    485.984
101.770   1449.000   1371.217     77.783    485.751   1250.024    485.751    607.074    485.751
101.870   1295.000   1305.966    -10.966    485.518   1196.903    485.518    594.697    485.518
101.970   1306.848   1251.617     55.231    485.286   1154.640    485.286    582.367    485.286
102.070   1169.000   1207.645    -38.645    485.054   1122.365    485.054    570.428    485.054
102.170   1121.000   1172.700    -51.700    484.822   1098.461    484.822    559.148    484.822
102.270   1163.000   1144.785     18.215    484.591   1080.738    484.591    548.719    484.591
102.370   1110.746   1121.478    -10.732    484.360   1066.653    484.360    539.264    484.360
102.470   1102.000   1100.207      1.793    484.129   1053.569    484.129    530.846    484.129
102.570   1028.321   1078.563    -50.242    483.899   1039.067    483.899    523.474    483.899
102.670   1012.382   1054.611    -42.230    483.669   1021.245    483.669    517.117    483.669
102.770   1084.000   1027.126     56.874    483.440    998.939    483.440    511.710    483.440
102.870    988.600    995.667     -7.067    483.211    971.795    483.211    507.165    483.211
102.970    901.000    960.494    -59.494    482.983    940.174    482.983    503.385    482.983
103.070    927.000    922.376      4.624    482.755    904.947    482.755    500.264    482.755
103.170    873.482    882.375     -8.893    482.528    867.278    482.528    497.701    482.528
103.270    809.940    841.656    -31.716    482.301    828.429    482.301    495.599    482.301
103.370    797.000    801.363     -4.363    482.075    789.629    482.075    493.874    482.075
103.470    738.601    762.526    -23.925    481.850    751.985    481.850    492.450    481.850
103.570    716.099    726.010     -9.912    481.626    716.424    481.626    491.264    481.626
103.670    721.000    692.477     28.523    481.402    683.660    481.402    490.263    481.402
103.770    700.000    662.371     37.629    481.178    654.180    481.178    489.408    481.178
103.870    642.000    635.924      6.076    480.956    628.248    480.956    488.664    480.956
103.970    647.000    613.176     33.824    480.734    605.930    480.734    488.006    480.734
104.070    579.611    594.005    -14.394    480.513    587.124    480.513    487.416    480.513
104.170    546.011    578.162    -32.151    480.293    571.593    480.293    486.879    480.293
104.270    587.000    565.310     21.690    480.074    559.013    480.074    486.384    480.074
104.370    577.000    555.090     21.910    479.856    549.032    479.856    485.923    479.856
104.470    567.000    547.116     19.884    479.638    541.270    479.638    485.492    479.638
104.570    554.000    541.023     12.977    479.422    535.365    479.422    485.084    479.422
104.670    518.000    536.482    -18.482    479.207    530.993    479.207    484.698    479.207
104.770    513.000    533.213    -20.213    478.992    527.876    478.992    484.330    478.992
104.870    526.000    530.992     -4.992    478.779    525.792    478.779    483.978    478.779
104.970    558.000    529.648     28.352    478.566    524.570    478.566    483.642    478.566
105.070    533.000    529.066      3.934    478.355    524.098    478.355    483.319    478.355
105.170    568.000    529.179     38.821    478.145    524.309    478.145    483.009    478.145
105.270    557.000    529.966     27.034    477.936    525.184    477.936    482.711    477.936
105.370    559.000    531.447     27.553    477.728    526.743    477.728    482.424    477.728
105.470    547.000    533.676     13.324    477.521    529.040    477.521    482.147    477.521
105.570    570.000    536.733     33.267    477.316    532.156    477.316    481.880    477.316
105.670    540.000    540.716     -0.716    477.111    536.191    477.111    481.623    477.111
105.770    505.614    545.727    -40.113    476.908    541.245    476.908    481.374    476.908
105.870    542.025    551.859     -9.834    476.707    547.413    476.707    481.134    476.707
105.970    549.000    559.181    -10.181    476.507    554.763    476.507    480.902    476.507
106.070    595.329    567.718     27.611    476.308    563.324    476.308    480.677    476.308
106.170    549.000    577.446    -28.446    476.110    573.072    476.110    480.456    476.110
106.270    552.000    588.289    -36.289    475.914    583.925    475.914    480.246    475.914
106.370    627.000    600.090     26.910    475.720    595.730    475.720    480.044    475.720
106.470    597.687    612.627    -14.940    475.527    608.265    475.527    479.850    475.527
106.570    633.000    625.609      7.391    475.335    621.240    475.335    479.662    475.335
106.670    605.000    638.684    -33.684    475.145    634.304    475.145    479.482    475.145
106.770    695.582    651.452     44.130    474.957    647.056    474.957    479.308    474.957
106.870    680.549    663.482     17.067    474.770    659.065    474.770    479.142    474.770
106.970    646.000    674.336    -28.336    474.585    669.895    474.585    478.981    474.585
107.070    700.966    683.605     17.360    474.402    679.145    474.402    478.817    474.402
107.170    662.698    690.992    -28.295    474.220    686.500    474.220    478.670    474.220
107.270    645.000    696.309    -51.309    474.040    691.778    474.040    478.531    474.040
107.370    688.000    699.549    -11.549    473.862    694.975    473.862    478.399    473.862
107.470    641.000    700.893    -59.893    473.686    696.272    473.686    478.275    473.686
107.570    734.020    700.678     33.342    473.512    696.004    473.512    478.157    473.512
107.670    684.000    699.341    -15.341    473.339    694.609    473.339    478.047    473.339
107.770    669.146    697.353    -28.206    473.169    692.557    473.169    477.945    473.169
107.870    679.853    695.159    -15.306    473.000    690.293    473.000    477.851    473.000
107.970    658.000    693.132    -35.132    472.834    688.190    472.834    477.764    472.834
108.070    721.902    691.544     30.358    472.669    686.520    472.669    477.686    472.669
108.170    656.000    690.546    -34.546    472.507    685.434    472.507    477.616    472.507
108.270    683.000    690.161     -7.161    472.347    684.953    472.347    477.555    472.347
108.370    646.077    690.282    -44.205    472.188    684.971    472.188    477.503    472.188
108.470    675.000    690.683    -15.683    472.032    685.262    472.032    477.461    472.032
108.570    688.354    691.037     -2.683    471.879    685.498    471.879    477.428    471.879
108.670    687.000    690.949     -3.949    471.727    685.284    471.727    477.405    471.727
108.770    686.000    690.001     -4.001    471.578    684.201    471.578    477.394    471.578
108.870    687.497    687.805     -0.307    471.431    681.861    471.431    477.393    471.431
108.970    686.000    684.066      1.934    471.286    677.969    471.286    477.404    471.286
109.070    673.000    678.627     -5.627    471.144    672.366    471.144    477.428    471.144
109.170    653.229    671.486    -18.257    471.005    665.050    471.005    477.464    471.005
109.270    680.086    662.790     17.297    470.867    656.166    470.867    477.514    470.867
109.370    645.282    652.795     -7.514    470.733    645.972    470.733    477.579    470.733
109.470    688.000    641.833     46.167    470.600    634.797    470.600    477.659    470.600
109.570    642.293    630.259     12.034    470.471    622.997    470.471    477.755    470.471
109.670    577.911    618.432    -40.520    470.344    610.927    470.344    477.869    470.344
109.770    583.000    606.662    -23.662    470.220    598.899    470.220    478.001    470.220
109.870    605.329    595.279     10.050    470.098    587.240    470.098    478.153    470.098
109.970    556.000    584.554    -28.554    469.979    576.220    469.979    478.327    469.979
110.070    530.000    574.668    -44.668    469.863    566.019    469.863    478.525    469.863
110.170    567.000    565.769      1.231    469.750    556.781    469.750    478.748    469.750
110.270    556.000    557.953     -1.953    469.639    548.599    469.639    479.001    469.639
110.370    571.000    551.265     19.735    469.532    541.516    469.532    479.286    469.532
110.470    589.000    545.708     43.292    469.427    535.531    469.427    479.609    469.427
110.570    578.455    541.251     37.205    469.326    530.606    469.326    479.973    469.326
110.670    528.961    537.832     -8.871    469.227    526.673    469.227    480.387    469.227
110.770    565.000    535.374     29.626    469.132    523.646    469.132    480.859    469.132
110.870    550.000    533.789     16.211    469.039    521.426    469.039    481.400    469.039
110.970    605.000    532.989     72.011    468.950    519.911    468.950    482.025    468.950
111.070    593.000    532.888     60.112    468.864    518.997    468.864    482.751    468.864
111.170    517.000    533.411    -16.411    468.781    518.587    468.781    483.600    468.781
111.270    568.730    534.495     34.235    468.701    518.592    468.701    484.599    468.701
111.370    535.000    536.094     -1.094    468.625    518.931    468.625    485.782    468.625
111.470    514.223    538.180    -23.957    468.552    519.536    468.552    487.189    468.552
111.570    584.000    540.742     43.258    468.483    520.348    468.483    488.869    468.483
111.670    536.000    543.793     -7.793    468.416    521.321    468.416    490.880    468.416
111.770    531.688    547.361    -15.673    468.354    522.418    468.354    493.288    468.354
111.870    557.127    551.499      5.628    468.295    523.615    468.295    496.170    468.295
111.970    563.839    556.279      7.560    468.239    524.895    468.239    499.613    468.239
112.070    549.000    561.793    -12.793    468.187    526.257    468.187    503.713    468.187
112.170    565.000    568.150     -3.150    468.139    527.704    468.139    508.574    468.139
112.270    551.000    575.474    -24.474    468.094    529.252    468.094    514.306    468.094
112.370    555.000    583.902    -28.902    468.053    530.924    468.053    521.020    468.053
112.470    592.000    593.576     -1.576    468.016    532.751    468.016    528.830    468.016
112.570    624.304    604.641     19.663    467.983    534.770    467.983    537.842    467.983
112.670    601.363    617.241    -15.878    467.954    537.031    467.954    548.152    467.954
112.770    610.000    631.517    -21.517    467.928    539.594    467.928    559.838    467.928
112.870    644.000    647.601     -3.601    467.907    542.537    467.907    572.956    467.907
112.970    692.000    665.619     26.381    467.889    545.963    467.889    587.530    467.889
113.070    672.293    685.693    -13.400    467.876    550.003    467.876    603.549    467.876
113.170    741.000    707.940     33.060    467.867    554.832    467.867    620.956    467.867
113.270    707.000    732.487    -25.487    467.861    560.682    467.861    639.646    467.861
113.370    768.000    759.477      8.523    467.860    567.856    467.860    659.459    467.860
113.470    829.000    789.088     39.912    467.864    576.750    467.864    680.177    467.864
113.570    841.000    821.551     19.449    467.871    587.877    467.871    701.517    467.871
113.670    863.000    857.173      5.827    467.883    601.889    467.883    723.134    467.883
113.770    885.000    896.367    -11.367    467.899    619.613    467.899    744.614    467.899
113.870    943.000    939.677      3.323    467.920    642.071    467.920    765.481    467.920
113.970    963.523    987.813    -24.291    467.945    670.509    467.945    785.195    467.945
114.070   1058.000   1041.687     16.313    467.975    706.424    467.975    803.172    467.975
114.170   1087.000   1102.443    -15.443    468.009    751.572    468.009    818.801    468.009
114.270   1113.000   1171.504    -58.504    468.048    807.973    468.048    831.483    468.048
114.370   1247.566   1250.600     -3.034    468.092    877.898    468.092    840.678    468.092
114.470   1314.245   1341.792    -27.547    468.140    963.828    468.140    845.964    468.140
114.570   1479.000   1447.460     31.540    468.193   1068.403    468.193    847.081    468.193
114.670   1585.000   1570.254     14.746    468.251   1194.325    468.251    843.978    468.251
114.770   1739.000   1712.979     26.021    468.314   1344.243    468.314    836.811    468.314
114.870   1887.000   1878.429      8.571    468.381   1520.605    468.381    825.925    468.381
114.970   2039.543   2069.172    -29.629    468.454   1725.491    468.454    811.809    468.454
115.070   2343.858   2287.296     56.562    468.532   1960.415    468.532    795.038    468.532
115.170   2485.000   2534.164    -49.164    468.614   2226.127    468.614    776.225    468.614
115.270   2811.000   2810.168      0.832    468.702   2522.423    468.702    755.970    468.702
115.370   3146.279   3114.525     31.755    468.795   2847.953    468.795    734.838    468.795
115.470   3410.000   3445.107    -35.107    468.893   3200.085    468.893    713.338    468.893
115.570   3782.000   3798.333    -16.333    468.997   3574.794    468.997    691.917    468.997
115.670   4077.000   4169.119    -92.119    469.106   3966.616    469.106    670.953    469.106
115.770   4478.000   4550.889    -72.889    469.220   4368.666    469.220    650.762    469.220
115.870   4907.464   4935.669    -28.206    469.340   4772.722    469.340    631.593    469.340
115.970   5291.000   5314.245    -23.245    469.465   5169.381    469.465    613.636    469.465
116.070   5567.000   5676.399   -109.399    469.596   5548.296    469.596    597.021    469.596
116.170   5832.000   6011.239   -179.239    469.732   5898.495    469.732    581.831    469.732
116.270   6224.000   6307.629    -83.629    469.874   6208.811    469.874    568.098    469.874
116.370   6464.000   6554.753    -90.753    470.022   6468.433    470.022    555.815    470.022
116.470   6781.000   6742.801     38.199    470.175   6667.592    470.175    544.942    470.175
116.570   6802.776   6863.754    -60.977    470.334   6798.331    470.334    535.410    470.334
116.670   6947.000   6912.140     34.860    470.499   6855.265    470.499    527.133    470.499
116.770   7057.733   6885.623    172.111    470.670   6836.155    470.670    520.008    470.670
116.870   6821.000   6785.274     35.726    470.847   6742.176    470.847    513.925    470.847
116.970   6583.000   6615.453    -32.453    471.030   6577.796    471.030    508.771    471.030
117.070   6317.490   6383.217    -65.727    471.219   6350.180    471.219    504.435    471.219
117.170   6139.000   6097.658     41.342    471.415   6068.523    471.415    500.810    471.415
117.270   5605.000   5769.117   -164.117    471.616   5743.264    471.616    497.795    471.616
117.370   5517.545   5408.464    109.081    471.824   5385.365    471.824    495.300    471.824
117.470   4990.974   5026.514    -35.540    472.038   5005.720    472.038    493.242    472.038
117.570   4564.000   4633.566    -69.566    472.258   4614.704    472.258    491.551    472.258
117.670   4434.000   4239.063    194.937    472.485   4221.821    472.485    490.163    472.485
117.770   3893.000   3851.334     41.666    472.718   3835.456    472.718    489.025    472.718
117.870   3727.000   3477.428    249.572    472.958   3462.704    472.958    488.094    472.958
117.970   3310.000   3123.023    186.977    473.204   3109.280    473.204    487.333    473.204
118.070   2851.851   2792.401     59.451    473.457   2779.501    473.457    486.711    473.457
118.170   2646.000   2488.498    157.502    473.717   2476.330    473.717    486.204    473.717
118.270   2210.982   2213.003     -2.021    473.983   2201.475    473.983    485.792    473.983
118.370   1983.068   1966.498     16.570    474.257   1955.537    474.257    485.460    474.257
118.470   1733.000   1748.625    -15.625    474.537   1738.172    474.537    485.196    474.537
118.570   1593.210   1558.265     34.944    474.824   1548.271    474.824    484.989    474.824
118.670   1318.000   1393.721    -75.721    475.118   1384.145    475.118    484.833    475.118
118.770   1173.000   1252.891    -79.891    475.420   1243.701    475.420    484.720    475.420
118.870   1112.000   1133.437    -21.437    475.728   1124.604    475.728    484.647    475.728
118.970   1083.727   1032.919     50.808    476.043   1024.419    476.043    484.609    476.043
119.070    896.000    948.916    -52.916    476.366    940.727    476.366    484.604    476.366
119.170    863.359    879.117    -15.758    476.696    871.220    476.696    484.629    476.696
119.270    818.000    821.386     -3.386    477.034    813.761    477.034    484.683    477.034
119.370    679.000    773.796    -94.796    477.379    766.427    477.379    484.764    477.379
119.470    730.000    734.655     -4.655    477.731    727.526    477.731    484.871    477.731
119.570    674.965    702.503    -27.538    478.091    695.598    478.091    485.003    478.091
119.670    630.000    676.105    -46.105    478.459    669.408    478.459    485.160    478.459
119.770    658.684    654.431      4.253    478.834    647.925    478.834    485.342    478.834
119.870    640.428    636.634      3.794    479.217    630.304    479.217    485.548    479.217
119.970    627.000    622.026      4.974    479.608    615.857    479.608    485.778    479.608
120.070    569.000    610.055    -41.055    480.006    604.030    480.006    486.033    480.006
120.170    555.074    600.280    -45.206    480.413    594.381    480.413    486.313    480.413
120.270    584.976    592.351     -7.375    480.827    586.562    480.827    486.618    480.827
120.370    559.000    585.995    -26.995    481.250    580.298    481.250    486.949    481.250
120.470    569.000    580.997    -11.997    481.681    575.373    481.681    487.308    481.681
120.570    572.912    577.189     -4.277    482.120    571.618    482.120    487.694    482.120
120.670    616.880    574.441     42.439    482.567    568.903    482.567    488.109    482.567
120.770    571.000    572.651     -1.651    483.023    567.125    483.023    488.553    483.023
120.870    588.000    571.739     16.261    483.486    566.203    483.486    489.029    483.486
120.970    598.734    571.641     27.093    483.959    566.071    483.959    489.535    483.959
121.070    610.327    572.303     38.023    484.440    566.676    484.440    490.074    484.440
121.170    593.267    573.678     19.590    484.929    567.970    484.929    490.646    484.929
121.270    569.000    575.719     -6.719    485.427    569.906    485.427    491.251    485.427
121.370    585.404    578.382      7.022    485.934    572.439    485.934    491.889    485.934
121.470    584.000    581.615      2.385    486.450    575.519    486.450    492.559    486.450
121.570    611.000    585.365     25.635    486.974    579.092    486.974    493.262    486.974
121.670    590.611    589.567      1.044    487.507    583.096    487.507    493.996    487.507
121.770    575.724    594.150    -18.426    488.050    587.460    488.050    494.760    488.050
121.870    589.000    599.032    -10.032    488.601    592.105    488.601    495.551    488.601
121.970    625.000    604.123     20.877    489.162    596.943    489.162    496.367    489.162
122.070    634.000    609.323     24.677    489.731    601.879    489.731    497.204    489.731
122.170    625.000    614.526     10.474    490.310    606.809    490.310    498.059    490.310
122.270    627.142    619.617      7.524    490.899    611.623    490.899    498.926    490.899
122.370    600.000    624.479    -24.479    491.496    616.210    491.496    499.802    491.496
122.470    616.000    628.993    -12.993    492.103    620.456    492.103    500.680    492.103
122.570    585.348    633.047    -47.698    492.720    624.254    492.720    501.554    492.720
122.670    675.455    636.534     38.921    493.346    627.505    493.346    502.418    493.346
122.770    651.000    639.365     11.635    493.982    630.129    493.982    503.264    493.982
122.870    644.000    641.474      2.526    494.628    632.063    494.628    504.086    494.628
122.970    634.000    642.817     -8.817    495.283    633.272    495.283    504.876    495.283
123.070    659.765    643.381     16.384    495.949    633.748    495.949    505.629    495.949
123.170    614.000    643.179    -29.179    496.624    633.509    496.624    506.341    496.624
123.270    714.000    642.247     71.753    497.310    632.598    497.310    507.006    497.310
123.370    649.000    640.649      8.351    498.005    631.074    498.005    507.626    498.005
123.470    652.000    638.458     13.542    498.711    629.012    498.711    508.201    498.711
123.570    643.465    635.760      7.705    499.427    626.494    499.427    508.735    499.427
123.670    629.000    632.643     -3.643    500.153    623.605    500.153    509.230    500.153
123.770    613.000    629.198    -16.198    500.890    620.430    500.890    509.694    500.890
123.870    652.196    625.515     26.682    501.637    617.053    501.637    510.132    501.637
123.970    604.000    621.674    -17.674    502.394    613.547    502.394    510.552    502.394
124.070    649.000    617.752     31.248    503.163    609.982    503.163    510.960    503.163
124.170    616.000    613.813      2.187    503.942    606.416    503.942    511.363    503.942
124.270    623.000    609.910     13.090    504.731    602.895    504.731    511.768    504.731
124.370    637.220    606.086     31.135    505.532    599.457    505.532    512.179    505.532
124.470    618.625    602.370     16.254    506.344    596.127    506.344    512.603    506.344
124.570    613.000    598.783     14.217    507.166    592.919    507.166    513.044    507.166
124.670    602.643    595.335      7.308    508.000    589.841    508.000    513.506    508.000
124.770    665.000    592.029     72.971    508.844    586.892    508.844    513.991    508.844
124.870    544.646    588.862    -44.216    509.700    584.067    509.700    514.503    509.700
124.970    571.000    585.827    -14.827    510.568    581.357    510.568    515.044    510.568
