neutron_powder_diffraction_0226
R_wp: 3.916
Temperature (K): 1074.100
Counts: 83799.00
Wavelength (Ã…): 2.52098
COMMENTS
Test file for demonstrating the .xyy file format in Reel1.0
END OF HEADER
   tth       Y_obs     Y_calc      Y_res    Background    Phase_1_Nuc    Phase_1_Mag    Phase_2_Nuc    Phase_2_Mag
  9.970    626.000    571.860     54.140    571.199    571.831    571.199    571.228    571.199
 10.070    574.000    571.979      2.021    571.260    571.950    571.260    571.289    571.260
 10.170    605.000    572.099     32.901    571.316    572.068    571.316    571.347    571.316
 10.270    586.000    572.223     13.777    571.366    572.191    571.366    571.398    571.366
 10.370    646.000    572.353     73.647    571.412    572.320    571.412    571.444    571.412
 10.470    601.272    572.492     28.780    571.452    572.459    571.452    571.484    571.452
 10.570    594.000    572.644     21.356    571.487    572.610    571.487    571.520    571.487
 10.670    607.000    572.814     34.186    571.517    572.779    571.517    571.551    571.517
 10.770    556.000    573.007    -17.007    571.542    572.972    571.542    571.576    571.542
 10.870    581.000    573.233      7.767    571.562    573.197    571.562    571.597    571.562
 10.970    614.000    573.514     40.486    571.578    573.467    571.578    571.624    571.578
 11.070    525.971    573.846    -47.875    571.588    573.797    571.588    571.636    571.588
 11.170    567.000    574.263     -7.263    571.593    574.214    571.593    571.641    571.593
 11.270    592.000    574.805     17.195    571.594    574.755    571.594    571.642    571.594
 11.370    584.964    575.537      9.428    571.590    575.486    571.590    571.638    571.590
 11.470    603.591    576.602     26.989    571.582    576.551    571.582    571.630    571.582
 11.570    580.000    578.402      1.598    571.568    578.350    571.568    571.617    571.568
 11.670    551.723    582.084    -30.361    571.550    582.029    571.550    571.599    571.550
 11.770    593.952    590.343      3.609    571.528    590.282    571.528    571.578    571.528
 11.870    635.188    607.570     27.618    571.501    607.494    571.501    571.556    571.501
 11.970    652.000    637.208     14.792    571.470    637.114    571.470    571.526    571.470
 12.070    723.072    675.480     47.592    571.434    675.364    571.434    571.491    571.434
 12.170    672.000    705.628    -33.628    571.394    705.495    571.394    571.451    571.394
 12.270    717.535    706.565     10.970    571.349    706.431    571.349    571.406    571.349
 12.370    706.596    677.404     29.192    571.300    677.286    571.300    571.358    571.300
 12.470    615.000    638.867    -23.867    571.247    638.770    571.247    571.305    571.247
 12.570    619.000    608.464     10.536    571.190    608.384    571.190    571.248    571.190
 12.670    582.000    590.561     -8.561    571.129    590.492    571.129    571.187    571.129
 12.770    605.000    581.883     23.117    571.064    581.818    571.064    571.122    571.064
 12.870    557.000    577.974    -20.974    570.994    577.911    570.994    571.053    570.994
 12.970    598.764    576.036     22.728    570.921    575.974    570.921    570.980    570.921
 13.070    537.000    574.864    -37.864    570.843    574.803    570.843    570.903    570.843
 13.170    624.000    574.037     49.963    570.762    573.976    570.762    570.822    570.762
 13.270    609.040    573.406     35.634    570.677    573.344    570.677    570.737    570.677
 13.370    543.000    572.902    -29.902    570.588    572.840    570.588    570.648    570.588
 13.470    586.000    572.487     13.513    570.495    572.425    570.495    570.556    570.495
 13.570    543.000    572.135    -29.135    570.398    572.073    570.398    570.459    570.398
 13.670    568.000    571.830     -3.830    570.298    571.768    570.298    570.359    570.298
 13.770    557.000    571.560    -14.560    570.194    571.496    570.194    570.256    570.194
 13.870    583.265    571.317     11.948    570.086    571.251    570.086    570.152    570.086
 13.970    553.000    571.092    -18.092    569.975    571.024    569.975    570.042    569.975
 14.070    587.696    570.880     16.816    569.860    570.812    569.860    569.928    569.860
 14.170    528.598    570.680    -42.082    569.742    570.611    569.742    569.810    569.742
 14.270    600.103    570.488     29.615    569.620    570.419    569.620    569.689    569.620
 14.370    552.701    570.302    -17.601    569.495    570.232    569.495    569.564    569.495
 14.470    572.000    570.121      1.879    569.366    570.051    569.366    569.436    569.366
 14.570    612.907    569.943     42.963    569.234    569.873    569.234    569.305    569.234
 14.670    579.000    569.768      9.232    569.099    569.697    569.099    569.170    569.099
 14.770    533.000    569.597    -36.597    568.961    569.526    568.961    569.032    568.961
 14.870    578.000    569.426      8.574    568.819    569.355    568.819    568.890    568.819
 14.970    525.615    569.254    -43.639    568.674    569.182    568.674    568.746    568.674
 15.070    570.000    569.081      0.919    568.526    569.009    568.526    568.598    568.526
 15.170    549.000    568.908    -19.908    568.375    568.836    568.375    568.447    568.375
 15.270    527.708    568.735    -41.027    568.221    568.662    568.221    568.294    568.221
 15.370    568.474    568.560     -0.086    568.063    568.487    568.063    568.137    568.063
 15.470    569.000    568.384      0.616    567.903    568.310    567.903    567.977    567.903
 15.570    557.000    568.207    -11.207    567.740    568.133    567.740    567.814    567.740
 15.670    547.000    568.029    -21.029    567.574    567.954    567.574    567.648    567.574
 15.770    575.000    567.848      7.152    567.404    567.773    567.404    567.480    567.404
 15.870    575.043    567.666      7.377    567.233    567.591    567.233    567.308    567.233
 15.970    601.331    567.483     33.849    567.058    567.406    567.058    567.134    567.058
 16.070    577.000    567.297      9.703    566.880    567.221    566.880    566.957    566.880
 16.170    607.000    567.110     39.890    566.700    567.033    566.700    566.777    566.700
 16.270    578.852    566.921     11.931    566.517    566.843    566.517    566.595    566.517
 16.370    581.000    566.732     14.268    566.332    566.652    566.332    566.411    566.332
 16.470    560.000    566.541     -6.541    566.143    566.460    566.143    566.224    566.143
 16.570    585.461    566.345     19.115    565.953    566.265    565.953    566.033    565.953
 16.670    535.000    566.148    -31.148    565.759    566.067    565.759    565.841    565.759
 16.770    516.000    565.949    -49.949    565.563    565.867    565.563    565.645    565.563
 16.870    562.000    565.748     -3.748    565.365    565.665    565.365    565.447    565.365
 16.970    548.000    565.545    -17.545    565.164    565.462    565.164    565.247    565.164
 17.070    566.000    565.340      0.660    564.961    565.256    564.961    565.045    564.961
 17.170    611.000    565.132     45.868    564.756    565.048    564.756    564.840    564.756
 17.270    611.807    564.923     46.884    564.548    564.839    564.548    564.632    564.548
 17.370    520.846    564.712    -43.867    564.337    564.627    564.337    564.423    564.337
 17.470    579.000    564.502     14.498    564.125    564.416    564.125    564.211    564.125
 17.570    566.185    564.287      1.897    563.910    564.201    563.910    563.996    563.910
 17.670    523.000    564.071    -41.071    563.693    563.984    563.693    563.780    563.693
 17.770    585.791    563.852     21.939    563.474    563.765    563.474    563.562    563.474
 17.870    520.000    563.632    -43.632    563.253    563.544    563.253    563.341    563.253
 17.970    561.514    563.410     -1.896    563.030    563.321    563.030    563.118    563.030
 18.070    535.000    563.186    -28.186    562.804    563.096    562.804    562.893    562.804
 18.170    552.000    562.960    -10.960    562.577    562.870    562.577    562.667    562.577
 18.270    579.139    562.733     16.406    562.347    562.642    562.347    562.438    562.347
 18.370    602.828    562.504     40.324    562.116    562.412    562.116    562.208    562.116
 18.470    569.025    562.278      6.748    561.882    562.180    561.882    561.979    561.882
 18.570    587.000    562.047     24.953    561.647    561.947    561.647    561.747    561.647
 18.670    531.000    561.813    -30.813    561.410    561.712    561.410    561.511    561.410
 18.770    564.000    561.578      2.422    561.171    561.476    561.171    561.272    561.171
 18.870    551.000    561.340    -10.340    560.930    561.238    560.930    561.032    560.930
 18.970    573.000    561.102     11.898    560.687    560.999    560.687    560.790    560.687
 19.070    603.157    560.862     42.296    560.443    560.758    560.443    560.547    560.443
 19.170    534.000    560.620    -26.620    560.197    560.516    560.197    560.302    560.197
 19.270    571.837    560.378     11.460    559.949    560.272    559.949    560.055    559.949
 19.370    595.000    560.134     34.866    559.700    560.028    559.700    559.806    559.700
 19.470    555.000    559.890     -4.890    559.449    559.783    559.449    559.556    559.449
 19.570    570.000    559.644     10.356    559.196    559.536    559.196    559.304    559.196
 19.670    541.617    559.396    -17.779    558.942    559.287    558.942    559.051    558.942
 19.770    539.000    559.147    -20.147    558.686    559.037    558.686    558.796    558.686
 19.870    512.000    558.897    -46.897    558.429    558.786    558.429    558.540    558.429
 19.970    554.000    558.645     -4.645    558.170    558.533    558.170    558.282    558.170
 20.070    602.276    558.394     43.882    557.910    558.281    557.910    558.023    557.910
 20.170    576.339    558.154     18.185    557.649    558.040    557.649    557.763    557.649
 20.270    529.578    557.910    -28.332    557.386    557.795    557.386    557.501    557.386
 20.370    537.428    557.656    -20.228    557.121    557.540    557.121    557.237    557.121
 20.470    527.000    557.400    -30.400    556.856    557.283    556.856    556.973    556.856
 20.570    552.000    557.144     -5.144    556.589    557.026    556.589    556.707    556.589
 20.670    543.000    556.887    -13.887    556.321    556.768    556.321    556.440    556.321
 20.770    582.012    556.629     25.382    556.051    556.509    556.051    556.172    556.051
 20.870    584.895    556.371     28.524    555.781    556.249    555.781    555.902    555.781
 20.970    558.000    556.113      1.887    555.509    555.990    555.509    555.632    555.509
 21.070    532.069    555.854    -23.785    555.236    555.730    555.236    555.360    555.236
 21.170    533.000    555.595    -22.595    554.962    555.469    554.962    555.087    554.962
 21.270    520.398    555.336    -34.937    554.686    555.209    554.686    554.813    554.686
 21.370    535.000    555.076    -20.076    554.410    554.948    554.410    554.539    554.410
 21.470    564.000    554.817      9.183    554.133    554.688    554.133    554.263    554.133
 21.570    554.000    554.559     -0.559    553.854    554.428    553.854    553.986    553.854
 21.670    547.000    554.301     -7.301    553.575    554.168    553.575    553.708    553.575
 21.770    558.000    554.043      3.957    553.295    553.909    553.295    553.429    553.295
 21.870    585.468    553.786     31.681    553.014    553.651    553.014    553.149    553.014
 21.970    567.000    553.531     13.469    552.731    553.394    552.731    552.869    552.731
 22.070    560.000    553.277      6.723    552.448    553.138    552.448    552.588    552.448
 22.170    578.000    553.025     24.975    552.164    552.884    552.164    552.306    552.164
 22.270    552.000    552.776     -0.776    551.880    552.634    551.880    552.023    551.880
 22.370    556.512    552.558      3.954    551.594    552.413    551.594    551.739    551.594
 22.470    536.000    552.423    -16.423    551.308    552.276    551.308    551.455    551.308
 22.570    564.346    552.209     12.137    551.021    552.058    551.021    551.172    551.021
 22.670    564.000    551.983     12.017    550.733    551.829    550.733    550.887    550.733
 22.770    507.000    551.802    -44.802    550.444    551.645    550.444    550.601    550.444
 22.870    537.858    551.598    -13.740    550.155    551.440    550.155    550.314    550.155
 22.970    580.279    551.386     28.893    549.865    551.225    549.865    550.026    549.865
 23.070    536.000    551.184    -15.184    549.575    551.021    549.575    549.738    549.575
 23.170    544.000    550.995     -6.995    549.284    550.829    549.284    549.450    549.284
 23.270    587.000    550.822     36.178    548.992    550.654    548.992    549.161    548.992
 23.370    526.826    550.672    -23.846    548.700    550.501    548.700    548.871    548.700
 23.470    593.575    550.549     43.026    548.407    550.376    548.407    548.581    548.407
 23.570    569.000    550.464     18.536    548.114    550.287    548.114    548.291    548.114
 23.670    564.416    550.428     13.988    547.820    550.248    547.820    548.000    547.820
 23.770    547.000    550.461     -3.461    547.525    550.279    547.525    547.709    547.525
 23.870    571.000    550.595     20.405    547.231    550.409    547.231    547.418    547.231
 23.970    581.819    550.878     30.941    546.936    550.689    546.936    547.126    546.936
 24.070    580.000    551.439     28.561    546.640    551.247    546.640    546.835    546.640
 24.170    557.000    552.641      4.359    546.344    552.446    546.344    546.543    546.344
 24.270    591.000    555.453     35.547    546.048    555.256    546.048    546.250    546.048
 24.370    571.000    561.920      9.080    545.751    561.724    545.751    545.958    545.751
 24.470    589.874    574.892     14.982    545.454    574.700    545.454    545.666    545.454
 24.570    567.460    595.798    -28.338    545.157    595.617    545.157    545.373    545.157
 24.670    647.000    620.559     26.441    544.860    620.391    544.860    545.081    544.860
 24.770    635.000    636.970     -1.970    544.562    636.808    544.562    544.789    544.562
 24.870    592.933    632.943    -40.009    544.264    632.772    544.264    544.497    544.264
 24.970    581.352    611.771    -30.419    543.966    611.580    543.966    544.204    543.966
 25.070    593.000    587.020      5.980    543.668    586.806    543.668    543.913    543.668
 25.170    547.000    568.181    -21.181    543.370    567.946    543.370    543.621    543.370
 25.270    561.000    557.093      3.907    543.071    556.843    543.071    543.329    543.071
 25.370    604.000    551.570     52.430    542.772    551.308    542.772    543.038    542.772
 25.470    559.000    548.937     10.063    542.474    548.665    542.474    542.748    542.474
 25.570    505.133    547.520    -42.387    542.175    547.239    542.175    542.458    542.175
 25.670    503.094    546.591    -43.497    541.876    546.300    541.876    542.168    541.876
 25.770    576.000    545.901     30.099    541.577    545.599    541.577    541.879    541.577
 25.870    555.000    545.349      9.651    541.278    545.037    541.278    541.591    541.278
 25.970    553.236    544.898      8.338    540.979    544.574    540.979    541.304    540.979
 26.070    542.066    544.523     -2.457    540.680    544.187    540.680    541.017    540.680
 26.170    529.000    544.210    -15.210    540.381    543.860    540.381    540.732    540.381
 26.270    560.960    543.952     17.008    540.083    543.586    540.083    540.448    540.083
 26.370    598.000    543.740     54.260    539.784    543.358    539.784    540.165    539.784
 26.470    573.000    543.576     29.424    539.485    543.177    539.485    539.884    539.485
 26.570    514.339    543.466    -29.127    539.187    543.047    539.187    539.605    539.187
 26.670    573.000    543.436     29.564    538.889    542.997    538.889    539.328    538.889
 26.770    559.953    543.466     16.487    538.590    543.004    538.590    539.052    538.590
 26.870    570.437    543.550     26.886    538.292    543.063    538.292    538.780    538.292
 26.970    526.000    543.726    -17.726    537.995    543.210    537.995    538.510    537.995
 27.070    564.960    544.021     20.939    537.697    543.473    537.697    538.244    537.697
 27.170    538.000    544.473     -6.473    537.400    543.890    537.400    537.982    537.400
 27.270    603.000    545.139     57.861    537.103    544.516    537.103    537.724    537.103
 27.370    564.000    546.098     17.902    536.806    545.431    536.806    537.472    536.806
 27.470    542.000    547.520     -5.520    536.510    546.802    536.510    537.225    536.510
 27.570    536.000    549.774    -13.774    536.213    548.999    536.213    536.986    536.213
 27.670    580.563    554.203     26.359    535.918    553.361    535.918    536.756    535.918
 27.770    574.000    565.457      8.543    535.622    564.536    535.622    536.536    535.622
 27.870    544.453    595.296    -50.844    535.327    594.277    535.327    536.328    535.327
 27.970    682.977    662.075     20.902    535.032    660.931    535.032    536.136    535.032
 28.070    739.000    774.039    -35.039    534.738    772.740    534.738    535.962    534.738
 28.170    958.205    899.595     58.611    534.444    898.122    534.444    535.812    534.444
 28.270    918.483    961.641    -43.158    534.150    959.996    534.150    535.692    534.150
 28.370    916.055    909.046      7.009    533.857    907.227    533.857    535.611    533.857
 28.470    773.000    796.100    -23.100    533.565    794.056    533.565    535.581    533.565
 28.570    717.000    709.058      7.942    533.272    706.695    533.272    535.621    533.272
 28.670    690.000    691.938     -1.938    532.981    689.135    532.981    535.767    532.981
 28.770    710.000    739.550    -29.550    532.690    736.138    532.690    536.079    532.690
 28.870    763.000    810.881    -47.881    532.399    806.597    532.399    536.666    532.399
 28.970    851.000    844.743      6.257    532.109    839.145    532.109    537.706    532.109
 29.070    824.000    804.943     19.057    531.819    797.312    531.819    539.460    531.819
 29.170    686.687    723.546    -36.859    531.530    712.847    531.530    542.239    531.530
 29.270    666.766    649.650     17.116    531.242    634.582    531.242    546.315    531.242
 29.370    558.529    605.093    -46.564    530.954    584.311    530.954    551.738    530.954
 29.470    542.204    586.629    -44.425    530.667    559.288    530.667    558.007    530.667
 29.570    626.000    581.767     44.233    530.381    548.544    530.381    563.601    530.381
 29.670    627.000    579.753     47.247    530.095    543.802    530.095    566.043    530.095
 29.770    598.204    575.223     22.981    529.809    541.247    529.809    563.783    529.809
 29.870    619.000    568.058     50.942    529.525    539.576    529.525    558.005    529.525
 29.970    587.000    560.327     26.673    529.241    538.397    529.241    551.169    529.241
 30.070    599.000    553.608     45.392    528.958    537.582    528.958    544.981    528.958
 30.170    565.000    548.525     16.475    528.675    537.106    528.675    540.092    528.675
 30.270    551.000    545.209      5.791    528.394    537.074    528.394    536.526    528.394
 30.370    536.000    543.842     -7.842    528.113    537.911    528.113    534.039    528.113
 30.470    588.000    545.260     42.740    527.832    540.766    527.832    532.320    527.832
 30.570    614.000    551.364     62.636    527.553    547.809    527.553    531.096    527.553
 30.670    585.000    564.385     20.615    527.274    561.462    527.274    530.174    527.274
 30.770    606.000    584.202     21.798    526.996    581.725    526.996    529.435    526.996
 30.870    574.735    604.881    -30.146    526.719    602.738    526.719    528.810    526.719
 30.970    600.000    614.332    -14.332    526.443    612.457    526.443    528.262    526.443
 31.070    556.416    604.528    -48.112    526.168    602.881    526.168    527.768    526.168
 31.170    626.754    582.916     43.838    525.893    581.463    525.893    527.316    525.893
 31.270    520.993    561.583    -40.589    525.619    560.291    525.619    526.895    525.619
 31.370    586.802    546.705     40.096    525.347    545.545    525.347    526.499    525.347
 31.470    569.000    538.495     30.505    525.075    537.443    525.075    526.123    525.075
 31.570    526.798    534.576     -7.778    524.804    533.613    524.804    525.763    524.804
 31.670    491.145    532.723    -41.578    524.534    531.837    524.534    525.417    524.534
 31.770    553.000    531.715     21.285    524.264    530.895    524.264    525.083    524.264
 31.870    544.000    531.062     12.938    523.996    530.298    523.996    524.758    523.996
 31.970    507.776    530.599    -22.823    523.729    529.886    523.729    524.441    523.729
 32.070    511.000    530.273    -19.273    523.462    529.603    523.462    524.131    523.462
 32.170    556.000    530.060     25.940    523.197    529.429    523.197    523.827    523.197
 32.270    556.000    529.953     26.047    522.932    529.356    522.932    523.528    522.932
 32.370    594.000    529.954     64.046    522.669    529.387    522.669    523.235    522.669
 32.470    543.000    530.069     12.931    522.406    529.529    522.406    522.945    522.406
 32.570    564.000    530.317     33.683    522.145    529.802    522.145    522.660    522.145
 32.670    512.776    530.721    -17.945    521.885    530.227    521.885    522.377    521.885
 32.770    520.000    531.315    -11.315    521.625    530.840    521.625    522.099    521.625
 32.870    529.000    532.156     -3.156    521.367    531.699    521.367    521.823    521.367
 32.970    522.000    533.326    -11.326    521.109    532.884    521.109    521.549    521.109
 33.070    580.000    534.947     45.053    520.853    534.520    520.853    521.279    520.853
 33.170    561.153    537.245     23.908    520.598    536.831    520.598    521.010    520.598
 33.270    551.894    540.734     11.160    520.344    540.331    520.344    520.744    520.344
 33.370    591.000    546.826     44.174    520.091    546.433    520.091    520.480    520.091
 33.470    513.000    559.280    -46.280    519.839    558.894    519.839    520.218    519.839
 33.570    590.000    586.370      3.630    519.588    585.989    519.588    519.959    519.588
 33.670    625.415    641.385    -15.970    519.339    641.001    519.339    519.701    519.339
 33.770    777.000    736.608     40.392    519.090    736.215    519.090    519.444    519.090
 33.870    892.000    868.580     23.420    518.843    868.175    518.843    519.190    518.843
 33.970    984.997   1001.374    -16.377    518.596   1000.963    518.596    518.937    518.596
 34.070   1028.000   1066.538    -38.538    518.351   1066.142    518.351    518.687    518.351
 34.170    998.829   1017.524    -18.694    518.107   1017.161    518.107    518.437    518.107
 34.270    868.000    890.842    -22.842    517.865    890.509    517.865    518.190    517.865
 34.370    726.000    755.406    -29.406    517.623    755.091    517.623    517.944    517.623
 34.470    647.000    652.912     -5.912    517.383    652.603    517.383    517.699    517.383
 34.570    554.772    591.250    -36.478    517.143    590.942    517.143    517.456    517.143
 34.670    549.816    559.760     -9.944    516.905    559.452    516.905    517.215    516.905
 34.770    529.000    544.851    -15.851    516.669    544.545    516.669    516.975    516.669
 34.870    538.000    537.402      0.598    516.433    537.099    516.433    516.737    516.433
 34.970    564.000    533.028     30.972    516.199    532.726    516.199    516.500    516.199
 35.070    548.000    530.016     17.984    515.966    529.717    515.966    516.264    515.966
 35.170    528.000    527.743      0.257    515.734    527.445    515.734    516.030    515.734
 35.270    549.161    525.946     23.215    515.503    525.651    515.503    515.798    515.503
 35.370    479.000    524.487    -45.487    515.274    524.193    515.274    515.567    515.274
 35.470    530.000    523.277      6.723    515.046    522.985    515.046    515.338    515.046
 35.570    480.720    522.255    -41.535    514.819    521.965    514.819    515.110    514.819
 35.670    515.518    521.379     -5.861    514.594    521.090    514.594    514.883    514.594
 35.770    534.859    520.618     14.241    514.369    520.329    514.369    514.658    514.369
 35.870    532.068    519.948     12.120    514.146    519.660    514.146    514.434    514.146
 35.970    519.509    519.352      0.157    513.925    519.065    513.925    514.212    513.925
 36.070    480.434    518.819    -38.384    513.705    518.532    513.705    513.991    513.705
 36.170    495.000    518.337    -23.337    513.486    518.050    513.486    513.772    513.486
 36.270    527.000    517.900      9.100    513.268    517.614    513.268    513.554    513.268
 36.370    488.000    517.504    -29.504    513.052    517.218    513.052    513.338    513.052
 36.470    507.000    517.144    -10.144    512.837    516.858    512.837    513.123    512.837
 36.570    525.000    516.820      8.180    512.623    516.534    512.623    512.909    512.623
 36.670    515.000    516.533     -1.533    512.411    516.246    512.411    512.697    512.411
 36.770    525.008    516.288      8.719    512.200    516.001    512.200    512.487    512.200
 36.870    482.344    516.104    -33.759    511.990    515.816    511.990    512.278    511.990
 36.970    543.281    516.029     27.252    511.782    515.741    511.782    512.070    511.782
 37.070    523.408    516.185      7.223    511.575    515.897    511.575    511.864    511.575
 37.170    526.000    516.808      9.192    511.369    516.518    511.369    511.659    511.369
 37.270    506.000    518.238    -12.238    511.165    517.948    511.165    511.456    511.165
 37.370    508.000    520.765    -12.765    510.963    520.475    510.963    511.254    510.963
 37.470    504.000    524.307    -20.307    510.761    524.016    510.761    511.054    510.761
 37.570    511.000    528.047    -17.047    510.561    527.756    510.561    510.855    510.561
 37.670    503.000    530.400    -27.400    510.363    530.109    510.363    510.658    510.363
 37.770    530.000    530.038     -0.038    510.166    529.747    510.166    510.462    510.166
 37.870    530.000    527.302      2.698    509.970    527.013    509.970    510.268    509.970
 37.970    501.000    523.643    -22.643    509.776    523.354    509.776    510.075    509.776
 38.070    511.000    520.185     -9.185    509.583    519.894    509.583    509.884    509.583
 38.170    545.447    517.368     28.079    509.391    517.075    509.391    509.694    509.391
 38.270    470.000    515.286    -45.286    509.201    514.988    509.201    509.506    509.201
 38.370    527.817    513.854     13.964    509.012    513.552    509.012    509.319    509.012
 38.470    502.000    512.904    -10.904    508.825    512.598    508.825    509.134    508.825
 38.570    500.000    512.274    -12.274    508.640    511.965    508.640    508.950    508.640
 38.670    497.000    511.838    -14.838    508.455    511.526    508.455    508.768    508.455
 38.770    489.000    511.511    -22.511    508.272    511.196    508.272    508.587    508.272
 38.870    516.882    511.240      5.642    508.091    510.923    508.091    508.408    508.091
 38.970    474.519    511.002    -36.483    507.911    510.682    507.911    508.231    507.911
 39.070    489.000    510.784    -21.784    507.732    510.462    507.732    508.055    507.732
 39.170    534.000    510.581     23.419    507.555    510.256    507.555    507.881    507.555
 39.270    532.000    510.389     21.611    507.380    510.062    507.380    507.708    507.380
 39.370    520.000    510.208      9.792    507.206    509.878    507.206    507.536    507.206
 39.470    506.000    510.037     -4.037    507.033    509.703    507.033    507.367    507.033
 39.570    531.488    509.873     21.615    506.862    509.537    506.862    507.198    506.862
 39.670    553.364    509.718     43.646    506.692    509.378    506.692    507.032    506.692
 39.770    521.000    509.570     11.430    506.524    509.227    506.524    506.867    506.524
 39.870    521.875    509.429     12.446    506.357    509.083    506.357    506.704    506.357
 39.970    521.181    509.297     11.884    506.192    508.947    506.192    506.542    506.192
 40.070    491.000    509.172    -18.172    506.028    508.819    506.028    506.381    506.028
 40.170    512.775    509.056      3.719    505.866    508.699    505.866    506.223    505.866
 40.270    539.000    508.948     30.052    505.705    508.588    505.705    506.066    505.705
 40.370    486.433    508.851    -22.418    505.546    508.486    505.546    505.910    505.546
 40.470    518.000    508.764      9.236    505.388    508.395    505.388    505.757    505.388
 40.570    522.000    508.689     13.311    505.231    508.316    505.231    505.605    505.231
 40.670    522.000    508.627     13.373    505.077    508.250    505.077    505.454    505.077
 40.770    501.000    508.581     -7.581    504.923    508.200    504.923    505.305    504.923
 40.870    485.000    508.554    -23.554    504.771    508.167    504.771    505.158    504.771
 40.970    495.985    508.548    -12.563    504.621    508.157    504.621    505.012    504.621
 41.070    507.000    508.568     -1.568    504.472    508.173    504.472    504.868    504.472
 41.170    451.000    508.621    -57.621    504.325    508.221    504.325    504.726    504.325
 41.270    520.543    508.714     11.829    504.179    508.308    504.179    504.586    504.179
 41.370    451.000    508.858    -57.858    504.035    508.447    504.035    504.447    504.035
 41.470    482.287    509.069    -26.782    503.892    508.653    503.892    504.309    503.892
 41.570    518.000    509.370      8.630    503.751    508.948    503.751    504.174    503.751
 41.670    529.386    509.806     19.580    503.611    509.378    503.611    504.040    503.611
 41.770    489.332    510.472    -21.141    503.473    510.039    503.473    503.908    503.473
 41.870    492.000    511.604    -19.604    503.336    511.165    503.336    503.778    503.336
 41.970    521.000    513.749      7.251    503.200    513.304    503.200    503.649    503.200
 42.070    517.000    518.009     -1.009    503.067    517.559    503.067    503.522    503.067
 42.170    493.619    526.165    -32.547    502.934    525.712    502.934    503.397    502.934
 42.270    533.000    540.279     -7.279    502.804    539.824    502.804    503.274    502.804
 42.370    570.000    561.452      8.548    502.675    561.000    502.675    503.152    502.675
 42.470    550.288    587.952    -37.663    502.547    587.505    502.547    503.032    502.547
 42.570    662.024    613.585     48.439    502.421    613.144    502.421    502.914    502.421
 42.670    588.000    628.253    -40.253    502.296    627.813    502.296    502.798    502.296
 42.770    590.000    624.243    -34.243    502.173    623.796    502.173    502.684    502.173
 42.870    637.639    603.910     33.729    502.051    603.446    502.051    502.571    502.051
 42.970    559.246    576.876    -17.630    501.931    576.389    501.931    502.461    501.931
 43.070    533.000    551.920    -18.920    501.812    551.409    501.812    502.352    501.812
 43.170    529.000    533.362     -4.362    501.695    532.830    501.695    502.245    501.695
 43.270    465.000    521.612    -56.612    501.580    521.062    501.580    502.140    501.580
 43.370    514.000    515.022     -1.022    501.466    514.456    501.466    502.037    501.466
 43.470    510.957    511.567     -0.610    501.353    510.987    501.353    501.936    501.353
 43.570    508.313    509.732     -1.419    501.242    509.139    501.242    501.837    501.242
 43.670    478.000    508.658    -30.658    501.132    508.052    501.132    501.741    501.132
 43.770    486.853    507.942    -21.089    501.024    507.322    501.024    501.646    501.024
 43.870    516.000    507.413      8.587    500.918    506.779    500.918    501.553    500.918
 43.970    501.000    507.002     -6.002    500.813    506.353    500.813    501.463    500.813
 44.070    541.744    506.672     35.072    500.709    506.008    500.709    501.374    500.709
 44.170    505.060    506.406     -1.346    500.607    505.725    500.607    501.288    500.607
 44.270    458.000    506.188    -48.188    500.506    505.491    500.506    501.205    500.506
 44.370    528.704    506.011     22.694    500.407    505.295    500.407    501.123    500.407
 44.470    487.000    505.866    -18.866    500.310    505.132    500.310    501.044    500.310
 44.570    493.000    505.750    -12.750    500.214    504.996    500.214    500.968    500.214
 44.670    518.000    505.658     12.342    500.119    504.884    500.119    500.894    500.119
 44.770    490.000    505.588    -15.588    500.026    504.792    500.026    500.822    500.026
 44.870    506.000    505.537      0.463    499.935    504.718    499.935    500.754    499.935
 44.970    466.145    505.505    -39.360    499.845    504.662    499.845    500.688    499.845
 45.070    529.000    505.490     23.510    499.756    504.621    499.756    500.625    499.756
 45.170    525.000    505.492     19.508    499.669    504.596    499.669    500.565    499.669
 45.270    528.218    505.510     22.708    499.583    504.585    499.583    500.509    499.583
 45.370    513.000    505.546      7.454    499.499    504.589    499.499    500.455    499.499
 45.470    527.329    505.598     21.731    499.416    504.609    499.416    500.406    499.416
 45.570    489.000    505.668    -16.668    499.335    504.644    499.335    500.360    499.335
 45.670    491.000    505.757    -14.757    499.256    504.695    499.256    500.318    499.256
 45.770    506.000    505.866      0.134    499.177    504.764    499.177    500.280    499.177
 45.870    539.360    505.997     33.362    499.101    504.851    499.101    500.246    499.101
 45.970    536.000    506.153     29.847    499.025    504.960    499.025    500.217    499.025
 46.070    472.336    506.335    -33.998    498.951    505.092    498.951    500.194    498.951
 46.170    506.000    506.547     -0.547    498.879    505.250    498.879    500.176    498.879
 46.270    518.000    506.795     11.205    498.808    505.439    498.808    500.164    498.808
 46.370    507.000    507.084     -0.084    498.739    505.663    498.739    500.158    498.739
 46.470    512.000    507.421      4.579    498.671    505.930    498.671    500.160    498.671
 46.570    503.380    507.816     -4.437    498.604    506.249    498.604    500.170    498.604
 46.670    495.000    508.285    -13.285    498.539    506.635    498.539    500.188    498.539
 46.770    550.000    508.855     41.145    498.475    507.112    498.475    500.217    498.475
 46.870    521.000    509.578     11.422    498.413    507.733    498.413    500.256    498.413
 46.970    452.000    510.574    -58.574    498.352    508.617    498.352    500.307    498.352
 47.070    491.000    512.107    -21.107    498.293    510.024    498.293    500.373    498.293
 47.170    488.000    514.686    -26.686    498.235    512.461    498.235    500.454    498.235
 47.270    487.260    519.153    -31.893    498.178    516.768    498.178    500.554    498.178
 47.370    482.000    526.572    -44.572    498.123    524.006    498.123    500.676    498.123
 47.470    643.000    537.814    105.186    498.070    535.040    498.070    500.822    498.070
 47.570    542.000    552.811    -10.811    498.017    549.797    498.017    500.998    498.017
 47.670    594.160    569.754     24.406    497.967    566.467    497.967    501.208    497.967
 47.770    550.917    584.638    -33.721    497.917    581.040    497.917    501.460    497.917
 47.870    548.973    592.139    -43.165    497.869    588.186    497.869    501.763    497.869
 47.970    544.000    589.085    -45.085    497.822    584.725    497.822    502.129    497.822
 48.070    565.000    577.637    -12.637    497.777    572.798    497.777    502.573    497.777
 48.170    559.000    563.015     -4.015    497.733    557.597    497.733    503.120    497.733
 48.270    559.068    549.729      9.339    497.691    543.589    497.691    503.810    497.691
 48.370    561.000    540.206     20.794    497.650    533.136    497.650    504.706    497.650
 48.470    534.000    535.034     -1.034    497.610    526.713    497.610    505.923    497.610
 48.570    533.000    533.749     -0.749    497.572    523.667    497.572    507.647    497.572
 48.670    567.000    535.655     31.345    497.535    523.005    497.535    510.180    497.535
 48.770    549.000    540.367      8.633    497.499    523.904    497.499    513.958    497.499
 48.870    537.000    547.972    -10.972    497.465    525.892    497.465    519.540    497.465
 48.970    553.000    558.930     -5.930    497.432    528.821    497.432    527.536    497.432
 49.070    546.000    573.880    -27.880    497.401    532.842    497.401    538.432    497.401
 49.170    587.000    593.531     -6.531    497.370    538.551    497.370    552.342    497.370
 49.270    612.000    618.933     -6.933    497.342    547.603    497.342    568.661    497.342
 49.370    679.000    652.563     26.437    497.314    564.225    497.314    585.636    497.314
 49.470    655.673    700.757    -45.084    497.288    597.997    497.288    600.021    497.288
 49.570    811.000    777.611     33.389    497.263    667.191    497.263    607.635    497.263
 49.670    950.000    908.093     41.907    497.239    799.582    497.239    605.669    497.239
 49.770   1079.000   1123.158    -44.158    497.217   1025.319    497.217    594.927    497.217
 49.870   1418.000   1440.396    -22.396    497.196   1358.330    497.196    579.088    497.196
 49.970   1868.773   1836.324     32.449    497.177   1771.219    497.177    562.086    497.177
 50.070   2277.000   2228.383     48.617    497.158   2178.813    497.158    546.562    497.158
 50.170   2508.000   2487.819     20.181    497.141   2451.109    497.141    533.776    497.141
 50.270   2497.000   2502.216     -5.216    497.126   2475.374    497.126    524.015    497.126
 50.370   2220.000   2260.331    -40.331    497.111   2240.595    497.111    516.990    497.111
 50.470   1903.945   1863.326     40.619    497.098   1848.460    497.098    512.144    497.098
 50.570   1395.000   1445.058    -50.058    497.086   1433.436    497.086    508.876    497.086
 50.670   1052.000   1100.480    -48.480    497.075   1091.016    497.075    506.668    497.075
 50.770    806.000    865.594    -59.594    497.066    857.608    497.066    505.141    497.066
 50.870    734.000    730.267      3.733    497.058    723.346    497.058    504.039    497.058
 50.970    646.000    662.952    -16.952    497.051    656.839    497.051    503.209    497.051
 51.070    649.939    631.392     18.547    497.045    625.919    497.045    502.557    497.045
 51.170    657.342    613.035     44.307    497.041    608.079    497.041    502.031    497.041
 51.270    591.752    597.036     -5.284    497.038    592.504    497.038    501.598    497.038
 51.370    542.915    581.026    -38.111    497.036    576.848    497.036    501.237    497.036
 51.470    600.706    566.171     34.535    497.035    562.288    497.035    500.934    497.035
 51.570    585.444    553.909     31.535    497.036    550.276    497.036    500.679    497.036
 51.670    596.000    544.879     51.121    497.037    541.460    497.037    500.464    497.037
 51.770    585.000    538.909     46.091    497.040    535.673    497.040    500.281    497.040
 51.870    600.000    535.371     64.629    497.044    532.292    497.044    500.127    497.044
 51.970    561.000    533.568     27.432    497.050    530.623    497.050    499.997    497.050
 52.070    532.568    532.970     -0.401    497.056    530.140    497.056    499.888    497.056
 52.170    544.756    533.286     11.470    497.064    530.554    497.064    499.797    497.064
 52.270    548.000    534.465     13.535    497.073    531.816    497.073    499.722    497.073
 52.370    578.000    536.715     41.285    497.083    534.137    497.083    499.662    497.083
 52.470    550.755    540.659     10.096    497.094    538.139    497.094    499.614    497.094
 52.570    529.000    547.687    -18.687    497.106    545.215    497.106    499.578    497.106
 52.670    547.000    560.502    -13.502    497.119    558.068    497.119    499.553    497.119
 52.770    590.000    583.659      6.341    497.134    581.254    497.134    499.537    497.134
 52.870    667.000    623.549     43.451    497.150    621.165    497.150    499.530    497.150
 52.970    691.000    687.097      3.903    497.166    684.726    497.166    499.532    497.166
 53.070    722.807    778.704    -55.897    497.184    776.338    497.184    499.542    497.184
 53.170    912.000    895.916     16.084    497.203    893.551    497.203    499.559    497.203
 53.270   1021.000   1025.294     -4.294    497.224   1022.928    497.224    499.584    497.224
 53.370   1135.762   1140.535     -4.772    497.245   1138.166    497.245    499.615    497.245
 53.470   1175.624   1207.221    -31.597    497.267   1204.847    497.267    499.654    497.267
 53.570   1228.000   1200.108     27.892    497.290   1197.725    497.290    499.699    497.290
 53.670   1110.000   1122.403    -12.403    497.315   1120.000    497.315    499.752    497.315
 53.770    974.000   1002.759    -28.759    497.340   1000.324    497.340    499.810    497.340
 53.870    888.000    874.749     13.251    497.367    872.270    497.367    499.876    497.367
 53.970    782.240    762.293     19.947    497.395    759.762    497.395    499.949    497.395
 54.070    642.926    676.552    -33.625    497.423    673.963    497.423    500.029    497.423
 54.170    587.000    618.384    -31.384    497.453    615.732    497.453    500.116    497.453
 54.270    592.398    582.648      9.750    497.484    579.928    497.484    500.210    497.484
 54.370    565.000    562.370      2.630    497.515    559.577    497.515    500.312    497.515
 54.470    520.530    551.468    -30.938    497.548    548.595    497.548    500.423    497.548
 54.570    565.000    545.758     19.242    497.582    542.799    497.582    500.542    497.582
 54.670    542.000    542.818     -0.818    497.617    539.766    497.617    500.670    497.617
 54.770    507.158    541.422    -34.264    497.652    538.268    497.652    500.808    497.652
 54.870    523.000    541.010    -18.010    497.689    537.744    497.689    500.956    497.689
 54.970    507.382    541.348    -33.966    497.727    537.959    497.727    501.116    497.727
 55.070    579.000    542.349     36.651    497.766    538.828    497.766    501.287    497.766
 55.170    555.000    544.006     10.994    497.805    540.340    497.805    501.472    497.805
 55.270    507.425    546.354    -38.929    497.846    542.530    497.846    501.670    497.846
 55.370    595.463    549.483     45.981    497.887    545.486    497.887    501.884    497.887
 55.470    582.000    553.551     28.449    497.930    549.366    497.930    502.115    497.930
 55.570    582.000    558.863     23.137    497.973    554.471    497.973    502.365    497.973
 55.670    574.000    566.047      7.953    498.018    561.428    498.018    502.635    498.018
 55.770    585.000    576.473      8.527    498.063    571.606    498.063    502.929    498.063
 55.870    610.000    593.074     16.926    498.109    587.932    498.109    503.248    498.109
 55.970    581.000    621.665    -40.665    498.156    616.219    498.156    503.596    498.156
 56.070    636.000    672.537    -36.537    498.204    666.751    498.204    503.977    498.204
 56.170    755.000    761.359     -6.359    498.253    755.193    498.253    504.394    498.253
 56.270    875.000    907.684    -32.684    498.302    901.093    498.302    504.853    498.302
 56.370   1069.000   1129.300    -60.300    498.353   1122.235    498.353    505.360    498.353
 56.470   1283.000   1432.253   -149.253    498.404   1424.664    498.404    505.922    498.404
 56.570   1694.000   1799.256   -105.256    498.457   1791.091    498.457    506.548    498.457
 56.670   2222.524   2181.182     41.342    498.510   2172.394    498.510    507.247    498.510
 56.770   2455.000   2497.214    -42.214    498.564   2487.748    498.564    508.033    498.564
 56.870   2674.635   2654.569     20.066    498.618   2644.351    498.618    508.921    498.618
 56.970   2609.000   2597.465     11.535    498.674   2586.379    498.674    509.929    498.674
 57.070   2371.535   2348.741     22.795    498.730   2336.615    498.730    511.083    498.730
 57.170   1971.724   1990.592    -18.869    498.788   1977.205    498.788    512.415    498.788
 57.270   1682.701   1612.792     69.910    498.846   1597.885    498.846    513.968    498.846
 57.370   1319.000   1280.066     38.934    498.904   1263.332    498.904    515.811    498.904
 57.470   1054.000   1024.190     29.810    498.964   1005.229    498.964    518.048    498.964
 57.570    951.000    849.126    101.874    499.024    827.378    499.024    520.852    499.024
 57.670    747.000    741.895      5.105    499.085    716.518    499.085    524.509    499.085
 57.770    703.000    683.972     19.028    499.147    653.662    499.147    529.481    499.147
 57.870    704.000    659.336     44.664    499.209    622.077    499.209    536.478    499.209
 57.970    617.445    658.048    -40.603    499.273    610.802    499.273    546.517    499.273
 58.070    748.000    676.394     71.606    499.337    614.795    499.337    560.924    499.337
 58.170    749.443    715.185     34.258    499.401    633.330    499.401    581.234    499.401
 58.270    729.000    777.310    -48.310    499.467    667.802    499.467    608.941    499.467
 58.370    871.000    865.188      5.812    499.533    719.576    499.533    645.098    499.533
 58.470    957.010    978.245    -21.235    499.599    788.000    499.599    689.787    499.599
 58.570   1076.000   1110.985    -34.985    499.667    869.076    499.667    741.513    499.667
 58.670   1293.908   1251.982     41.926    499.735    955.169    499.735    796.485    499.735
 58.770   1384.000   1384.932     -0.932    499.804   1036.794    499.804    847.888    499.804
 58.870   1445.268   1491.789    -46.521    499.873   1105.683    499.873    885.940    499.873
 58.970   1592.000   1556.050     35.950    499.943   1155.341    499.943    900.633    499.943
 59.070   1525.723   1566.562    -40.839    500.014   1179.200    500.014    887.378    500.014
 59.170   1548.886   1523.058     25.829    500.085   1172.757    500.085    850.405    500.085
 59.270   1422.000   1438.861    -16.861    500.157   1139.455    500.157    799.587    500.157
 59.370   1395.533   1336.036     59.498    500.230   1091.495    500.230    744.784    500.230
 59.470   1272.000   1236.864     35.136    500.303   1044.196    500.303    692.961    500.303
 59.570   1125.000   1159.774    -34.774    500.376   1012.066    500.376    648.041    500.376
 59.670   1127.000   1120.112      6.888    500.451   1008.855    500.451    611.619    500.451
 59.770   1128.721   1129.443     -0.722    500.526   1046.153    500.526    583.674    500.526
 59.870   1217.000   1190.830     26.170    500.601   1128.040    500.601    563.191    500.601
 59.970   1347.000   1294.036     52.964    500.677   1245.769    500.677    548.689    500.677
 60.070   1428.000   1414.040     13.960    500.754   1375.867    500.754    538.629    500.754
 60.170   1506.901   1513.780     -6.879    500.831   1482.626    500.831    531.673    500.831
 60.270   1505.833   1553.951    -48.118    500.908   1527.781    500.908    526.791    500.908
 60.370   1516.000   1511.663      4.337    500.986   1489.157    500.986    523.260    500.986
 60.470   1413.000   1394.480     18.520    501.065   1374.770    501.065    520.611    501.065
 60.570   1201.000   1232.980    -31.980    501.144   1215.465    501.144    518.557    501.144
 60.670   1074.032   1062.199     11.833    501.224   1046.439    501.224    516.929    501.224
 60.770    915.000    909.121      5.879    501.304    894.771    501.304    515.629    501.304
 60.870    755.441    788.555    -33.114    501.384    775.324    501.384    514.606    501.384
 60.970    654.497    704.163    -49.666    501.465    691.792    501.465    513.830    501.465
 61.070    641.000    652.344    -11.344    501.547    640.593    501.547    513.290    501.547
 61.170    598.914    626.983    -28.068    501.629    615.622    501.629    512.977    501.629
 61.270    651.000    623.319     27.681    501.711    612.128    501.711    512.881    501.711
 61.370    626.473    640.016    -13.543    501.794    628.794    501.794    512.983    501.794
 61.470    679.000    679.306     -0.306    501.877    667.886    501.877    513.246    501.877
 61.570    742.000    745.400     -3.400    501.960    733.680    501.960    513.606    501.960
 61.670    842.309    841.515      0.794    502.044    829.490    502.044    513.965    502.044
 61.770    906.880    966.176    -59.296    502.129    953.975    502.129    514.191    502.129
 61.870   1132.069   1109.903     22.165    502.213   1097.794    502.213    514.152    502.213
 61.970   1231.000   1253.523    -22.523    502.298   1241.854    502.298    513.776    502.298
 62.070   1383.130   1369.379     13.752    502.384   1358.477    502.384    513.095    502.384
 62.170   1382.000   1427.941    -45.941    502.470   1418.026    502.470    512.217    502.470
 62.270   1381.000   1411.264    -30.264    502.556   1402.426    502.556    511.268    502.556
 62.370   1295.000   1324.313    -29.313    502.642   1316.528    502.642    510.349    502.642
 62.470   1187.000   1191.396     -4.396    502.729   1184.566    502.729    509.521    502.729
 62.570   1032.000   1042.400    -10.400    502.816   1036.389    502.816    508.817    502.816
 62.670    915.213    901.945     13.267    502.903    896.610    502.903    508.244    502.903
 62.770    732.882    785.147    -52.266    502.991    780.353    502.991    507.796    502.991
 62.870    667.000    697.620    -30.620    503.079    693.254    503.079    507.455    503.079
 62.970    640.000    637.779      2.221    503.167    633.750    503.167    507.203    503.167
 63.070    562.000    600.097    -38.097    503.256    596.336    503.256    507.019    503.256
 63.170    566.019    578.078    -12.059    503.345    574.536    503.345    506.885    503.345
 63.270    537.703    566.185    -28.481    503.434    562.826    503.434    506.789    503.434
 63.370    537.000    560.634    -23.634    503.523    557.432    503.523    506.720    503.523
 63.470    538.284    559.442    -21.158    503.612    556.376    503.612    506.671    503.612
 63.570    556.090    562.166     -6.076    503.702    559.220    503.702    506.638    503.702
 63.670    583.950    569.631     14.319    503.792    566.791    503.792    506.617    503.792
 63.770    547.739    583.671    -35.933    503.882    580.926    503.882    506.607    503.882
 63.870    608.000    606.789      1.211    503.972    604.126    503.972    506.605    503.972
 63.970    634.133    641.555     -7.422    504.063    638.962    504.063    506.612    504.063
 64.070    722.000    689.684     32.316    504.153    687.149    504.153    506.625    504.153
 64.170    792.000    750.894     41.106    504.244    748.410    504.244    506.645    504.244
 64.270    871.000    821.816     49.184    504.335    819.376    504.335    506.670    504.335
 64.370    915.572    895.278     20.295    504.426    892.879    504.426    506.701    504.426
 64.470    948.000    960.510    -12.510    504.517    958.156    504.517    506.736    504.517
 64.570    947.903   1005.399    -57.496    504.609   1003.098    504.609    506.776    504.609
 64.670   1026.000   1021.181      4.819    504.700   1018.942    504.700    506.820    504.700
 64.770    996.000   1006.336    -10.336    504.792   1004.165    504.792    506.868    504.792
 64.870    932.840    966.196    -33.356    504.883    964.094    504.883    506.919    504.883
 64.970    939.000    910.056     28.944    504.975    908.019    504.975    506.974    504.975
 65.070    838.000    848.103    -10.103    505.067    846.126    505.067    507.032    505.067
 65.170    801.000    788.588     12.412    505.158    786.661    505.158    507.093    505.158
 65.270    751.619    736.213     15.406    505.250    734.327    505.250    507.156    505.250
 65.370    691.396    692.392     -0.996    505.342    690.537    505.342    507.222    505.342
 65.470    640.000    656.696    -16.696    505.434    654.865    505.434    507.291    505.434
 65.570    675.875    628.196     47.678    505.526    626.383    505.526    507.362    505.526
 65.670    597.082    605.953     -8.872    505.618    604.153    505.618    507.436    505.618
 65.770    545.885    589.048    -43.163    505.710    587.259    505.710    507.511    505.710
 65.870    609.079    576.615     32.464    505.802    574.835    505.802    507.589    505.802
 65.970    576.000    567.882      8.118    505.894    566.110    505.894    507.669    505.894
 66.070    547.998    562.173    -14.176    505.986    560.411    505.986    507.749    505.986
 66.170    553.000    558.909     -5.909    506.078    557.154    506.078    507.833    506.078
 66.270    527.000    557.603    -30.603    506.170    555.853    506.170    507.919    506.170
 66.370    548.000    557.889     -9.889    506.262    556.143    506.262    508.007    506.262
 66.470    581.202    559.562     21.640    506.354    557.818    506.354    508.097    506.354
 66.570    549.000    562.640    -13.640    506.446    560.896    506.446    508.189    506.446
 66.670    600.511    567.464     33.047    506.537    565.719    506.537    508.283    506.537
 66.770    549.000    574.906    -25.906    506.629    573.156    506.629    508.379    506.629
 66.870    621.641    586.701     34.940    506.721    584.944    506.721    508.477    506.721
 66.970    583.000    605.936    -22.936    506.812    604.169    506.812    508.577    506.812
 67.070    626.000    637.587    -11.587    506.903    635.807    506.903    508.678    506.903
 67.170    668.000    688.875    -20.875    506.994    687.077    506.994    508.782    506.994
 67.270    741.354    769.035    -27.682    507.085    767.215    507.085    508.889    507.085
 67.370    870.000    888.055    -18.055    507.176    886.212    507.176    508.997    507.176
 67.470   1070.108   1054.098     16.009    507.267   1052.231    507.267    509.108    507.267
 67.570   1211.000   1269.832    -58.832    507.357   1267.945    507.357    509.221    507.357
 67.670   1503.000   1528.472    -25.472    507.448   1526.573    507.448    509.336    507.448
 67.770   1823.095   1810.742     12.352    507.538   1808.843    507.538    509.455    507.538
 67.870   2099.000   2083.884     15.116    507.628   2082.000    507.628    509.576    507.628
 67.970   2373.000   2304.247     68.753    507.718   2302.391    507.718    509.700    507.718
 68.070   2392.610   2426.518    -33.909    507.808   2424.696    507.808    509.827    507.808
 68.170   2447.000   2420.964     26.036    507.897   2419.165    507.897    509.958    507.897
 68.270   2384.000   2289.122     94.878    507.986   2287.319    507.986    510.093    507.986
 68.370   2039.000   2062.839    -23.839    508.075   2060.996    508.075    510.231    508.075
 68.470   1712.398   1787.796    -75.398    508.164   1785.879    508.164    510.373    508.164
 68.570   1588.000   1506.904     81.096    508.252   1504.889    508.252    510.520    508.252
 68.670   1248.000   1251.793     -3.793    508.340   1249.664    508.340    510.672    508.340
 68.770   1038.000   1040.597     -2.597    508.428   1038.349    508.428    510.830    508.428
 68.870    921.637    879.154     42.483    508.516    876.787    508.516    510.993    508.516
 68.970    753.000    764.178    -11.178    508.603    761.693    508.603    511.163    508.603
 69.070    704.000    687.227     16.773    508.690    684.626    508.690    511.340    508.690
 69.170    639.165    638.302      0.863    508.777    635.585    508.777    511.525    508.777
 69.270    564.979    608.308    -43.329    508.863    605.473    508.863    511.718    508.863
 69.370    563.984    590.211    -26.227    508.949    587.252    508.949    511.921    508.949
 69.470    595.000    579.193     15.807    509.035    576.103    509.035    512.134    509.035
 69.570    556.805    572.271    -15.466    509.120    569.038    509.120    512.360    509.120
 69.670    596.381    567.739     28.642    509.205    564.350    509.205    512.599    509.205
 69.770    552.888    564.687    -11.798    509.290    561.128    509.290    512.852    509.290
 69.870    560.210    562.649     -2.439    509.374    558.903    509.374    513.123    509.374
 69.970    568.698    561.398      7.300    509.458    557.445    509.458    513.413    509.458
 70.070    549.168    560.827    -11.659    509.542    556.646    509.542    513.724    509.542
 70.170    599.000    560.906     38.094    509.625    556.470    509.625    514.060    509.625
 70.270    564.000    561.661      2.339    509.708    556.943    509.708    514.424    509.708
 70.370    587.066    563.203     23.863    509.790    558.169    509.790    514.821    509.790
 70.470    603.000    565.775     37.225    509.872    560.387    509.872    515.256    509.872
 70.570    638.000    569.855     68.145    509.953    564.068    509.953    515.735    509.953
 70.670    600.039    576.323     23.717    510.034    570.084    510.034    516.265    510.034
 70.770    572.000    586.698    -14.698    510.115    579.943    510.115    516.859    510.115
 70.870    612.000    603.411      8.589    510.195    596.059    510.195    517.529    510.195
 70.970    593.000    630.039    -37.039    510.275    621.988    510.275    518.296    510.275
 71.070    636.970    671.364    -34.395    510.354    662.481    510.354    519.195    510.354
 71.170    726.000    733.046     -7.046    510.432    723.140    510.432    520.275    510.432
 71.270    825.540    820.724      4.816    510.511    809.525    510.511    521.622    510.511
 71.370    975.000    938.535     36.465    510.588    925.637    510.588    523.368    510.588
 71.470   1082.696   1087.197     -4.500    510.665   1071.990    510.665    525.721    510.665
 71.570   1262.000   1262.110     -0.110    510.742   1243.680    510.742    528.988    510.742
 71.670   1383.000   1451.999    -68.999    510.818   1429.009    510.818    533.598    510.818
 71.770   1653.000   1638.557     14.443    510.894   1609.113    510.894    540.114    510.894
 71.870   1787.000   1797.711    -10.711    510.969   1759.251    510.969    549.207    510.969
 71.970   1939.646   1903.788     35.857    511.043   1853.033    511.043    561.597    511.043
 72.070   1876.878   1937.627    -60.749    511.117   1870.639    511.117    577.940    511.117
 72.170   1909.000   1895.490     13.510    511.190   1807.898    511.190    598.659    511.190
 72.270   1742.887   1791.222    -48.335    511.263   1678.643    511.263    623.758    511.263
 72.370   1672.000   1649.085     22.915    511.335   1507.745    511.335    652.622    511.335
 72.470   1488.732   1493.994     -5.262    511.407   1321.523    511.407    683.847    511.407
 72.570   1297.546   1345.315    -47.769    511.478   1141.684    511.478    715.091    511.478
 72.670   1225.013   1214.527     10.486    511.548    983.018    511.548    743.047    511.548
 72.770   1134.000   1105.316     28.684    511.618    853.204    511.618    763.721    511.618
 72.870    984.000   1015.526    -31.526    511.687    753.822    511.687    773.383    511.687
 72.970    944.000    940.404      3.596    511.755    682.114    511.755    770.039    511.755
 73.070    824.000    875.601    -51.601    511.823    632.979    511.823    754.439    511.823
 73.170    836.288    818.481     17.807    511.890    600.701    511.890    729.665    511.890
 73.270    750.087    767.889    -17.802    511.957    580.121    511.957    699.720    511.957
 73.370    652.000    723.474    -71.474    512.023    567.198    512.023    668.296    512.023
 73.470    685.026    685.224     -0.198    512.088    559.104    512.088    638.206    512.088
 73.570    593.000    653.195    -60.195    512.152    554.050    512.152    611.298    512.152
 73.670    676.627    627.335     49.292    512.216    551.001    512.216    588.553    512.216
 73.770    596.000    607.373    -11.373    512.279    549.414    512.279    570.244    512.279
 73.870    582.819    592.793     -9.973    512.342    549.015    512.342    556.128    512.342
 73.970    584.000    582.870      1.130    512.403    549.644    512.403    545.643    512.403
 74.070    534.021    576.747    -42.726    512.464    551.146    512.464    538.083    512.464
 74.170    655.000    573.498     81.502    512.524    553.301    512.524    532.745    512.524
 74.270    612.000    572.187     39.813    512.584    555.792    512.584    529.008    512.584
 74.370    523.714    571.898    -48.183    512.643    558.196    512.643    526.380    512.643
 74.470    615.000    571.769     43.231    512.701    560.015    512.701    524.495    512.701
 74.570    596.227    571.073     25.154    512.758    560.774    512.758    523.101    512.758
 74.670    618.463    569.344     49.119    512.814    560.172    512.814    522.031    512.814
 74.770    627.000    566.489     60.511    512.870    558.221    512.870    521.180    512.870
 74.870    527.637    562.766    -35.129    512.925    555.247    512.925    520.481    512.925
 74.970    595.025    558.641     36.384    512.979    551.758    512.979    519.894    512.979
 75.070    559.384    554.642      4.743    513.032    548.306    513.032    519.393    513.032
 75.170    523.246    551.278    -28.032    513.085    545.421    513.085    518.961    513.085
 75.270    537.000    549.033    -12.033    513.136    543.597    513.136    518.584    513.136
 75.370    555.000    548.377      6.623    513.187    543.315    513.187    518.255    513.187
 75.470    584.000    549.800     34.200    513.237    545.072    513.237    517.967    513.237
 75.570    588.964    553.825     35.139    513.286    549.394    513.286    517.712    513.286
 75.670    556.000    560.977     -4.977    513.335    556.813    513.335    517.488    513.335
 75.770    626.000    571.709     54.291    513.382    567.785    513.382    517.289    513.382
 75.870    569.771    586.261    -16.490    513.429    582.552    513.429    517.113    513.429
 75.970    610.000    604.486      5.514    513.475    600.971    513.475    516.956    513.475
 76.070    647.000    625.684     21.316    513.519    622.344    513.519    516.817    513.519
 76.170    619.922    648.488    -28.566    513.563    645.307    513.563    516.692    513.563
 76.270    662.519    670.836     -8.317    513.607    667.802    513.607    516.582    513.607
 76.370    649.000    690.074    -41.074    513.649    687.175    513.649    516.483    513.649
 76.470    737.000    703.293     33.707    513.690    700.522    513.690    516.394    513.690
 76.570    663.000    708.053    -45.053    513.731    705.403    513.731    516.315    513.731
 76.670    674.000    703.335    -29.335    513.770    700.802    513.770    516.244    513.770
 76.770    724.575    690.039     34.536    513.809    687.617    513.809    516.181    513.809
 76.870    628.000    670.531    -42.531    513.847    668.213    513.847    516.124    513.847
 76.970    697.000    647.698     49.302    513.883    645.477    513.883    516.073    513.883
 77.070    595.312    624.203    -28.891    513.919    622.071    513.919    516.028    513.919
 77.170    589.347    602.119    -12.772    513.954    600.070    513.954    515.987    513.954
 77.270    572.000    582.814    -10.814    513.988    580.841    513.988    515.950    513.988
 77.370    598.934    566.964     31.970    514.021    565.060    514.021    515.917    514.021
 77.470    510.000    554.661    -44.661    514.053    552.821    514.053    515.888    514.053
 77.570    507.000    545.583    -38.583    514.084    543.802    514.084    515.862    514.084
 77.670    536.000    539.176     -3.176    514.114    537.450    514.114    515.838    514.114
 77.770    532.000    534.818     -2.818    514.143    533.143    514.143    515.817    514.143
 77.870    556.000    531.933     24.067    514.172    530.305    514.172    515.798    514.172
 77.970    553.344    530.046     23.298    514.199    528.463    514.199    515.781    514.199
 78.070    480.000    528.793    -48.793    514.225    527.251    514.225    515.766    514.225
 78.170    497.000    527.946    -30.946    514.250    526.443    514.250    515.752    514.250
 78.270    500.000    527.385    -27.385    514.274    525.918    514.274    515.740    514.274
 78.370    510.000    526.997    -16.997    514.297    525.565    514.297    515.729    514.297
 78.470    541.942    526.735     15.207    514.319    525.334    514.319    515.720    514.319
 78.570    491.000    526.577    -35.577    514.340    525.205    514.340    515.711    514.340
 78.670    512.000    526.516    -14.516    514.360    525.172    514.360    515.704    514.360
 78.770    539.000    526.563     12.437    514.379    525.243    514.379    515.698    514.379
 78.870    483.120    526.735    -43.614    514.397    525.437    514.397    515.694    514.397
 78.970    541.000    527.056     13.944    514.414    525.778    514.414    515.691    514.414
 79.070    537.000    527.556      9.444    514.430    526.294    514.430    515.690    514.430
 79.170    541.000    528.266     12.734    514.445    527.017    514.445    515.692    514.445
 79.270    498.960    529.216    -30.257    514.459    527.976    514.459    515.697    514.459
 79.370    526.634    530.433     -3.799    514.472    529.196    514.472    515.706    514.472
 79.470    562.827    531.943     30.885    514.483    530.701    514.483    515.721    514.483
 79.570    549.923    533.775     16.148    514.494    532.522    514.494    515.742    514.494
 79.670    489.000    535.978    -46.978    514.503    534.705    514.503    515.771    514.503
 79.770    550.785    538.633     12.152    514.511    537.332    514.511    515.807    514.511
 79.870    503.232    541.882    -38.651    514.519    540.542    514.519    515.853    514.519
 79.970    552.000    545.951      6.049    514.525    544.564    514.525    515.907    514.525
 80.070    518.000    551.178    -33.178    514.530    549.735    514.530    515.968    514.530
 80.170    573.000    558.013     14.987    514.534    556.508    514.534    516.035    514.534
 80.270    565.000    566.966     -1.966    514.537    565.397    514.537    516.103    514.537
 80.370    561.000    578.511    -17.511    514.538    576.882    514.538    516.168    514.538
 80.470    575.000    592.961    -17.961    514.539    591.280    514.539    516.224    514.539
 80.570    585.741    610.351    -24.610    514.539    608.635    514.539    516.262    514.539
 80.670    627.000    630.351     -3.351    514.537    628.622    514.537    516.277    514.537
 80.770    675.000    652.214     22.786    514.534    650.501    514.534    516.265    514.534
 80.870    691.000    674.802     16.198    514.530    673.131    514.530    516.224    514.530
 80.970    730.553    696.702     33.851    514.525    695.097    514.525    516.160    514.525
 81.070    730.000    716.438     13.562    514.519    714.914    514.519    516.079    514.519
 81.170    728.000    732.667     -4.667    514.512    731.234    514.512    515.988    514.512
 81.270    708.641    744.304    -35.663    514.503    742.964    514.503    515.893    514.503
 81.370    774.653    750.614     24.039    514.493    749.364    514.493    515.799    514.493
 81.470    811.000    751.295     59.705    514.483    750.128    514.483    515.710    514.483
 81.570    713.000    746.497    -33.497    514.471    745.403    514.471    515.628    514.471
 81.670    757.392    736.758     20.633    514.457    735.727    514.457    515.554    514.457
 81.770    696.009    722.971    -26.961    514.443    721.992    514.443    515.489    514.443
 81.870    687.802    706.338    -18.535    514.427    705.401    514.427    515.431    514.427
 81.970    739.000    688.206     50.794    514.411    687.302    514.411    515.379    514.411
 82.070    683.074    669.786     13.288    514.393    668.907    514.393    515.334    514.393
 82.170    652.000    651.927      0.073    514.374    651.067    514.374    515.293    514.374
 82.270    626.000    635.079     -9.079    514.354    634.232    514.354    515.255    514.354
 82.370    610.699    619.409     -8.710    514.332    618.571    514.332    515.220    514.332
 82.470    599.465    604.987     -5.522    514.309    604.155    514.309    515.186    514.309
 82.570    631.000    591.923     39.077    514.286    591.095    514.286    515.153    514.286
 82.670    569.000    580.389    -11.389    514.260    579.562    514.260    515.120    514.260
 82.770    590.000    570.575     19.425    514.234    569.747    514.234    515.088    514.234
 82.870    571.000    562.652      8.348    514.207    561.822    514.207    515.055    514.207
 82.970    582.001    556.751     25.250    514.178    555.919    514.178    515.022    514.178
 83.070    594.814    552.949     41.865    514.148    552.114    514.148    514.988    514.148
 83.170    522.000    551.247    -29.247    514.117    550.407    514.117    514.953    514.117
 83.270    502.000    551.550    -49.550    514.085    550.706    514.085    514.918    514.085
 83.370    546.000    553.650     -7.650    514.051    552.801    514.051    514.882    514.051
 83.470    507.000    557.212    -50.212    514.016    556.358    514.016    514.845    514.016
 83.570    516.000    561.777    -45.777    513.980    560.918    513.980    514.807    513.980
 83.670    561.723    566.772     -5.049    513.943    565.908    513.943    514.769    513.943
 83.770    520.000    571.541    -51.541    513.905    570.673    513.905    514.730    513.905
 83.870    576.000    575.393      0.607    513.865    574.522    513.865    514.689    513.865
 83.970    577.000    577.697     -0.697    513.824    576.826    513.824    514.648    513.824
 84.070    582.000    578.009      3.991    513.782    577.138    513.782    514.606    513.782
 84.170    551.687    576.196    -24.509    513.738    575.328    513.738    514.563    513.738
 84.270    603.000    572.469     30.531    513.694    571.605    513.694    514.519    513.694
 84.370    534.213    567.296    -33.084    513.648    566.436    513.648    514.474    513.648
 84.470    532.157    561.256    -29.099    513.600    560.399    513.600    514.428    513.600
 84.570    542.000    554.915    -12.915    513.552    554.061    513.552    514.382    513.552
 84.670    564.000    548.755     15.245    513.502    547.904    513.502    514.334    513.502
 84.770    541.000    543.137     -2.137    513.452    542.288    513.452    514.285    513.452
 84.870    559.859    538.289     21.570    513.399    537.441    513.399    514.236    513.399
 84.970    519.000    534.314    -15.314    513.346    533.466    513.346    514.185    513.346
 85.070    551.000    531.214     19.786    513.291    530.365    513.291    514.134    513.291
 85.170    512.161    528.916    -16.755    513.235    528.065    513.235    514.081    513.235
 85.270    520.910    527.309     -6.399    513.178    526.455    513.178    514.028    513.178
 85.370    554.000    526.272     27.728    513.120    525.414    513.120    513.973    513.120
 85.470    517.000    525.695     -8.695    513.060    524.833    513.060    513.918    513.060
 85.570    528.721    525.498      3.223    512.999    524.631    512.999    513.862    512.999
 85.670    496.000    525.635    -29.635    512.937    524.762    512.937    513.805    512.937
 85.770    522.000    526.104     -4.104    512.874    525.225    512.874    513.746    512.874
 85.870    511.986    526.944    -14.959    512.809    526.058    512.809    513.687    512.809
 85.970    568.000    528.240     39.760    512.743    527.346    512.743    513.627    512.743
 86.070    539.487    530.119      9.368    512.676    529.216    512.676    513.567    512.676
 86.170    510.000    532.745    -22.745    512.607    531.832    512.607    513.505    512.607
 86.270    563.000    536.308     26.692    512.537    535.383    512.537    513.442    512.537
 86.370    562.394    541.001     21.392    512.466    540.063    512.466    513.379    512.466
 86.470    576.000    546.999     29.001    512.394    546.045    512.394    513.314    512.394
 86.570    585.000    554.413     30.587    512.320    553.441    512.320    513.249    512.320
 86.670    552.000    563.252    -11.252    512.246    562.261    512.246    513.183    512.246
 86.770    537.101    573.378    -36.277    512.170    572.367    512.170    513.116    512.170
 86.870    575.000    584.468     -9.468    512.092    583.434    512.092    513.049    512.092
 86.970    637.000    596.027     40.973    512.014    594.971    512.014    512.980    512.014
 87.070    625.000    607.359     17.641    511.934    606.281    511.934    512.911    511.934
 87.170    624.000    617.593      6.407    511.853    616.495    511.853    512.841    511.853
 87.270    683.000    625.788     57.212    511.770    624.672    511.770    512.771    511.770
 87.370    591.643    631.067    -39.424    511.687    629.937    511.687    512.699    511.687
 87.470    694.000    632.825     61.175    511.602    631.685    511.602    512.628    511.602
 87.570    635.000    630.907      4.093    511.516    629.760    511.516    512.555    511.516
 87.670    680.000    625.653     54.347    511.428    624.503    511.428    512.482    511.428
 87.770    627.528    617.795      9.733    511.340    616.642    511.340    512.408    511.340
 87.870    576.000    608.270    -32.270    511.250    607.115    511.250    512.334    511.250
 87.970    643.000    598.067     44.933    511.159    596.909    511.159    512.260    511.159
 88.070    544.957    588.119    -43.163    511.066    586.957    511.066    512.185    511.066
 88.170    616.468    579.232     37.236    510.973    578.063    510.973    512.110    510.973
 88.270    588.000    572.040     15.960    510.878    570.862    510.878    512.034    510.878
 88.370    628.000    566.979     61.021    510.782    565.791    510.782    511.958    510.782
 88.470    595.000    564.282     30.718    510.684    563.081    510.684    511.883    510.684
 88.570    560.000    563.980     -3.980    510.586    562.764    510.586    511.807    510.586
 88.670    573.000    565.917      7.083    510.486    564.685    510.486    511.731    510.486
 88.770    607.501    569.771     37.731    510.385    568.521    510.385    511.655    510.385
 88.870    531.698    575.066    -43.368    510.282    573.797    510.282    511.579    510.282
 88.970    596.972    581.207     15.765    510.179    579.917    510.179    511.504    510.179
 89.070    625.000    587.500     37.500    510.074    586.189    510.074    511.428    510.074
 89.170    637.000    593.201     43.799    509.968    591.865    509.968    511.353    509.968
 89.270    558.166    597.571    -39.405    509.861    596.208    509.861    511.280    509.861
 89.370    616.812    599.979     16.833    509.752    598.584    509.752    511.207    509.752
 89.470    602.000    600.020      1.980    509.642    598.589    509.642    511.136    509.642
 89.570    561.565    597.609    -36.044    509.532    596.137    509.532    511.066    509.532
 89.670    589.188    592.994     -3.806    509.419    591.476    509.419    510.997    509.419
 89.770    623.476    586.665     36.812    509.306    585.096    509.306    510.931    509.306
 89.870    542.000    579.225    -37.225    509.192    577.601    509.192    510.866    509.192
 89.970    599.000    571.281     27.719    509.076    569.597    509.076    510.805    509.076
 90.070    555.000    563.371     -8.371    508.959    561.623    508.959    510.746    508.959
 90.170    546.000    555.925     -9.925    508.841    554.107    508.841    510.690    508.841
 90.270    521.000    549.250    -28.250    508.721    547.358    508.721    510.638    508.721
 90.370    530.000    543.529    -13.529    508.601    541.558    508.601    510.592    508.601
 90.470    566.328    538.835     27.494    508.479    536.778    508.479    510.550    508.479
 90.570    481.000    535.148    -54.148    508.356    532.998    508.356    510.516    508.356
 90.670    541.000    532.388      8.612    508.232    530.137    508.232    510.490    508.232
 90.770    519.000    530.439    -11.439    508.107    528.075    508.107    510.475    508.107
 90.870    493.615    529.175    -35.560    507.981    526.685    507.981    510.473    507.981
 90.970    520.000    528.479     -8.479    507.853    525.843    507.853    510.490    507.853
 91.070    523.000    528.226     -5.226    507.724    525.421    507.724    510.529    507.724
 91.170    563.405    528.431     34.974    507.594    525.424    507.594    510.600    507.594
 91.270    517.488    529.071    -11.583    507.463    525.820    507.463    510.713    507.463
 91.370    511.904    530.168    -18.264    507.331    526.616    507.331    510.880    507.331
 91.470    533.000    531.809      1.191    507.198    527.881    507.198    511.121    507.198
 91.570    535.000    534.121      0.879    507.063    529.723    507.063    511.456    507.063
 91.670    508.000    537.284    -29.284    506.928    532.292    506.928    511.912    506.928
 91.770    512.000    541.517    -29.517    506.791    535.778    506.791    512.520    506.791
 91.870    559.000    547.071     11.929    506.653    540.397    506.653    513.314    506.653
 91.970    545.000    554.212     -9.212    506.514    546.379    506.514    514.331    506.514
 92.070    511.000    563.198    -52.198    506.374    553.944    506.374    515.607    506.374
 92.170    634.000    574.251     59.749    506.233    563.282    506.233    517.175    506.233
 92.270    615.511    587.523     27.988    506.090    574.518    506.090    519.063    506.090
 92.370    589.000    603.067    -14.067    505.947    587.690    505.947    521.284    505.947
 92.470    572.297    620.802    -48.505    505.803    602.717    505.803    523.840    505.803
 92.570    684.000    640.494     43.506    505.657    619.386    505.657    526.710    505.657
 92.670    642.270    661.734    -19.464    505.510    637.333    505.510    529.849    505.510
 92.770    659.000    683.936    -24.936    505.363    656.044    505.363    533.186    505.363
 92.870    716.978    706.361     10.617    505.214    674.884    505.214    536.616    505.214
 92.970    712.740    728.166    -15.426    505.064    693.148    505.064    540.003    505.064
 93.070    736.000    748.495    -12.495    504.913    710.154    504.913    543.173    504.913
 93.170    796.000    766.631     29.369    504.761    725.384    504.761    545.925    504.761
 93.270    834.722    782.111     52.611    504.608    738.595    504.608    548.042    504.608
 93.370    828.000    794.778     33.222    504.454    749.826    504.454    549.325    504.454
 93.470    821.000    804.746     16.254    504.299    759.335    504.299    549.631    504.299
 93.570    785.576    812.326    -26.750    504.143    767.480    504.143    548.913    504.143
 93.670    819.000    817.972      1.028    503.986    774.650    503.986    547.234    503.986
 93.770    765.111    822.254    -57.143    503.828    781.262    503.828    544.749    503.828
 93.870    885.000    825.859     59.141    503.669    787.800    503.669    541.660    503.669
 93.970    819.000    829.566    -10.566    503.509    794.826    503.509    538.183    503.509
 94.070    880.000    834.139     45.861    503.348    802.905    503.348    534.517    503.348
 94.170    841.000    840.143      0.857    503.186    812.436    503.186    530.830    503.186
 94.270    794.000    847.775    -53.775    503.023    823.481    503.023    527.256    503.023
 94.370    907.000    856.737     50.263    502.859    835.645    502.859    523.891    502.859
 94.470    885.000    866.218     18.782    502.694    848.050    502.694    520.806    502.694
 94.570    916.495    874.959     41.536    502.529    859.395    502.529    518.040    502.529
 94.670    965.000    881.394     83.606    502.362    868.099    502.362    515.610    502.362
 94.770    891.000    883.883      7.117    502.194    872.523    502.194    513.515    502.194
 94.870    891.000    881.019      9.981    502.026    871.277    502.026    511.737    502.026
 94.970    891.932    871.964     19.968    501.856    863.549    501.856    510.248    501.856
 95.070    892.000    856.669     35.331    501.686    849.326    501.686    509.015    501.686
 95.170    860.966    835.898     25.067    501.515    829.405    501.515    508.002    501.515
 95.270    876.000    811.040     64.960    501.342    805.211    501.342    507.171    501.342
 95.370    797.000    783.903     13.097    501.170    778.586    501.170    506.490    501.170
 95.470    714.937    756.405    -41.468    500.996    751.479    500.996    505.928    500.996
 95.570    743.000    730.443     12.557    500.821    725.811    500.821    505.460    500.821
 95.670    702.000    707.792     -5.792    500.645    703.378    500.645    505.064    500.645
 95.770    740.000    690.044     49.956    500.469    685.790    500.469    504.725    500.469
 95.870    711.000    678.585     32.415    500.292    674.445    500.292    504.428    500.292
 95.970    663.867    674.591    -10.724    500.114    670.530    500.114    504.165    500.114
 96.070    698.009    679.041     18.968    499.935    675.030    499.935    503.928    499.935
 96.170    676.000    692.724    -16.724    499.756    688.740    499.756    503.713    499.756
 96.270    740.703    716.228     24.475    499.575    712.251    499.575    503.515    499.575
 96.370    744.000    749.898     -5.898    499.394    745.911    499.394    503.332    499.394
 96.470    798.000    793.767      4.233    499.212    789.755    499.212    503.163    499.212
 96.570    855.000    847.455      7.545    499.029    843.406    499.029    503.005    499.029
 96.670    948.000    910.056     37.944    498.846    905.957    498.846    502.860    498.846
 96.770    977.000    980.043     -3.043    498.662    975.884    498.662    502.725    498.662
 96.870   1102.000   1055.205     46.795    498.477   1050.976    498.477    502.602    498.477
 96.970   1069.000   1132.626    -63.626    498.292   1128.318    498.292    502.490    498.292
 97.070   1223.000   1208.723     14.277    498.105   1204.329    498.105    502.389    498.105
 97.170   1299.000   1279.370     19.630    497.919   1274.881    497.919    502.300    497.919
 97.270   1387.000   1340.138     46.862    497.731   1335.546    497.731    502.224    497.731
 97.370   1426.000   1386.724     39.276    497.543   1382.020    497.543    502.161    497.543
 97.470   1459.000   1415.550     43.450    497.354   1410.724    497.354    502.112    497.354
 97.570   1452.000   1424.417     27.583    497.164   1419.457    497.164    502.078    497.164
 97.670   1427.000   1412.952     14.048    496.974   1407.840    496.974    502.061    496.974
 97.770   1343.000   1382.622    -39.622    496.784   1377.339    496.784    502.063    496.784
 97.870   1310.000   1336.352    -26.352    496.592   1330.872    496.592    502.087    496.592
 97.970   1315.580   1277.938     37.642    496.400   1272.232    496.400    502.136    496.400
 98.070   1250.628   1211.522     39.105    496.208   1205.556    496.208    502.215    496.208
 98.170   1150.000   1141.214      8.786    496.015   1134.946    496.015    502.331    496.015
 98.270   1118.000   1070.840     47.160    495.821   1064.220    495.821    502.492    495.821
 98.370    975.000   1003.797    -28.797    495.627    996.763    495.627    502.710    495.627
 98.470    981.295    942.972     38.324    495.433    935.448    495.433    503.002    495.433
 98.570    944.477    890.725     53.753    495.237    882.613    495.237    503.388    495.237
 98.670    871.810    848.911     22.899    495.042    840.087    495.042    503.897    495.042
 98.770    767.000    818.940    -51.940    494.846    809.244    494.846    504.564    494.846
 98.870    749.000    801.849    -52.849    494.649    791.076    494.649    505.435    494.649
 98.970    767.000    798.376    -31.376    494.452    786.264    494.452    506.566    494.452
 99.070    851.000    809.066     41.934    494.255    795.288    494.255    508.026    494.255
 99.170    872.377    834.259     38.118    494.057    818.406    494.057    509.895    494.057
 99.270    867.000    874.091     -7.091    493.859    855.663    493.859    512.264    493.859
 99.370    942.000    928.466     13.534    493.660    906.865    493.660    515.232    493.660
 99.470    936.000    996.971    -60.971    493.461    971.493    493.461    518.907    493.461
 99.570   1053.000   1078.779    -25.779    493.261   1048.614    493.261    523.393    493.261
 99.670   1168.000   1172.542     -4.542    493.062   1136.783    493.062    528.789    493.062
 99.770   1310.656   1276.296     34.359    492.862   1233.953    492.862    535.179    492.862
 99.870   1379.922   1387.395     -7.473    492.661   1337.420    492.661    542.620    492.661
 99.970   1514.000   1502.490     11.510    492.460   1443.815    492.460    551.133    492.460
100.070   1624.000   1617.600      6.400    492.259   1549.181    492.259    560.693    492.259
100.170   1777.504   1728.306     49.198    492.058   1649.181    492.058    571.219    492.058
100.270   1893.000   1830.082     62.918    491.857   1739.433    491.857    582.565    491.857
100.370   1913.000   1918.701     -5.701    491.655   1815.929    491.655    594.513    491.655
100.470   2069.000   1990.586     78.414    491.453   1875.384    491.453    606.766    491.453
100.570   2050.000   2042.972      7.028    491.251   1915.414    491.251    618.945    491.251
100.670   2108.369   2073.896     34.473    491.048   1934.511    491.048    630.590    491.048
100.770   2050.000   2082.145    -32.145    490.846   1931.999    490.846    641.168    490.846
100.870   2043.539   2067.362    -23.822    490.643   1908.097    490.643    650.098    490.643
100.970   1990.000   2030.300    -40.300    490.440   1864.137    490.440    656.802    490.440
101.070   1975.000   1973.089      1.911    490.237   1802.747    490.237    660.781    490.237
101.170   1886.000   1899.257    -13.257    490.034   1727.787    490.034    661.706    490.034
101.270   1863.000   1813.426     49.574    489.831   1643.970    489.831    659.481    489.831
101.370   1657.417   1720.755    -63.337    489.627   1556.291    489.627    654.275    489.627
101.470   1574.000   1626.342    -52.342    489.424   1469.462    489.424    646.474    489.424
101.570   1494.000   1534.732    -40.732    489.221   1387.497    489.221    636.611    489.221
101.670   1458.000   1449.593      8.407    489.017   1313.477    489.017    625.272    489.017
101.770   1369.000   1373.540     -4.540    488.814   1249.449    488.814    613.028    488.814
101.870   1292.024   1308.088    -16.064    488.610   1196.414    488.610    600.394    488.610
101.970   1207.000   1253.682    -46.682    488.407   1154.380    488.407    587.806    488.407
102.070   1264.183   1209.787     54.396    488.204   1122.458    488.204    575.619    488.204
102.170   1198.000   1175.029     22.971    488.000   1099.002    488.000    564.107    488.000
102.270   1077.000   1147.373    -70.373    487.797   1081.780    487.797    553.465    487.797
102.370   1120.000   1124.357     -4.357    487.594   1068.203    487.594    543.820    487.594
102.470   1055.000   1103.363    -48.363    487.391   1055.590    487.391    535.236    487.391
102.570   1040.000   1081.944    -41.944    487.189   1041.482    487.189    527.723    487.189
102.670   1045.000   1058.136    -13.136    486.986   1023.948    486.986    521.248    486.986
102.770   1015.000   1030.697    -15.697    486.784   1001.812    486.784    515.745    486.784
102.870   1017.000    999.189     17.811    486.581    974.722    486.581    511.125    486.581
102.970    953.000    963.887    -10.887    486.379    943.056    486.379    507.286    486.379
103.070    928.000    925.583      2.417    486.177    907.711    486.177    504.123    486.177
103.170    851.000    885.362    -34.362    485.976    869.878    485.976    501.530    485.976
103.270    802.953    844.417    -41.464    485.775    830.847    485.775    499.410    485.775
103.370    754.000    803.912    -49.912    485.574    791.872    485.574    497.675    485.574
103.470    743.776    764.899    -21.122    485.373    754.080    485.373    496.247    485.373
103.570    754.000    728.252     25.748    485.173    718.410    485.173    495.063    485.173
103.670    694.000    694.638     -0.638    484.973    685.585    484.973    494.068    484.973
103.770    699.399    664.506     34.893    484.774    656.093    484.774    493.222    484.774
103.870    648.000    638.085      9.915    484.574    630.201    484.574    492.489    484.574
103.970    655.386    615.404     39.982    484.376    607.960    484.376    491.844    484.376
104.070    608.000    596.322     11.678    484.178    589.251    484.178    491.268    484.178
104.170    588.000    580.595      7.405    483.980    573.843    483.980    490.746    483.980
104.270    566.000    567.877     -1.877    483.782    561.404    483.782    490.267    483.782
104.370    547.000    557.787    -10.787    483.586    551.558    483.586    489.823    483.586
104.470    547.000    549.935     -2.935    483.389    543.922    483.389    489.408    483.389
104.570    585.836    543.952     41.885    483.194    538.132    483.194    489.017    483.194
104.670    558.000    539.506     18.494    482.999    533.859    482.999    488.648    482.999
104.770    530.209    536.316     -6.107    482.804    530.824    482.804    488.297    482.804
104.870    546.354    534.156     12.198    482.610    528.803    482.610    487.962    482.610
104.970    575.000    532.856     42.144    482.417    527.628    482.417    487.643    482.417
105.070    544.000    532.299     11.701    482.225    527.183    482.225    487.337    482.225
105.170    568.000    532.420     35.580    482.033    527.404    482.033    487.043    482.033
105.270    494.057    533.199    -39.142    481.842    528.273    481.842    486.762    481.842
105.370    594.000    534.658     59.342    481.651    529.810    481.651    486.491    481.651
105.470    489.521    536.850    -47.329    481.462    532.071    481.462    486.230    481.462
105.570    561.000    539.857     21.143    481.273    535.139    481.273    485.979    481.273
105.670    566.000    543.783     22.217    481.085    539.117    481.085    485.737    481.085
105.770    530.855    548.732    -17.877    480.898    544.109    480.898    485.504    480.898
105.870    551.000    554.799     -3.799    480.711    550.212    480.711    485.278    480.711
105.970    554.000    562.058     -8.058    480.526    557.499    480.526    485.061    480.526
106.070    553.807    570.539    -16.732    480.341    566.003    480.341    484.851    480.341
106.170    606.000    580.220     25.780    480.158    575.705    480.158    484.643    480.158
106.270    625.133    591.028     34.104    479.975    586.523    479.975    484.448    479.975
106.370    597.433    602.810     -5.377    479.793    598.307    479.793    484.260    479.793
106.470    609.000    615.342     -6.342    479.613    610.836    479.613    484.079    479.613
106.570    616.000    628.333    -12.333    479.433    623.820    479.433    483.904    479.433
106.670    642.000    641.431      0.569    479.255    636.905    479.255    483.736    479.255
106.770    615.123    654.233    -39.109    479.077    649.688    479.077    483.575    479.077
106.870    715.066    666.302     48.764    478.901    661.735    478.901    483.420    478.901
106.970    688.000    677.199     10.801    478.725    672.606    478.725    483.271    478.725
107.070    693.000    686.509      6.491    478.551    681.896    478.551    483.118    478.551
107.170    673.000    693.934    -20.934    478.379    689.286    478.379    482.982    478.379
107.270    692.569    699.283     -6.715    478.207    694.595    478.207    482.853    478.207
107.370    689.000    702.554    -13.554    478.036    697.820    478.036    482.731    478.036
107.470    658.000    703.930    -45.930    477.867    699.146    477.867    482.616    477.867
107.570    714.967    703.757     11.210    477.699    698.917    477.699    482.508    477.699
107.670    700.000    702.478     -2.478    477.533    697.577    477.533    482.407    477.533
107.770    750.850    700.571     50.278    477.368    695.603    477.368    482.314    477.368
107.870    667.000    698.488    -31.488    477.204    693.447    477.204    482.227    477.204
107.970    688.911    696.606     -7.695    477.042    691.485    477.042    482.148    477.042
108.070    713.000    695.196     17.804    476.881    689.990    476.881    482.077    476.881
108.170    685.000    694.408     -9.408    476.721    689.108    476.721    482.015    476.721
108.270    712.434    694.257     18.176    476.563    688.858    476.563    481.960    476.563
108.370    692.000    694.630     -2.630    476.407    689.123    476.407    481.914    476.407
108.470    695.905    695.288      0.618    476.252    689.666    476.252    481.878    476.252
108.570    656.217    695.892    -39.675    476.098    690.147    476.098    481.851    476.098
108.670    712.000    696.035     15.965    475.947    690.159    475.947    481.833    475.947
108.770    692.000    695.286     -3.286    475.797    689.269    475.797    481.827    475.797
108.870    676.030    693.247    -17.216    475.648    687.080    475.648    481.830    475.648
108.970    701.000    689.616     11.384    475.501    683.289    475.501    481.846    475.501
109.070    661.000    684.231    -23.231    475.356    677.733    475.356    481.873    475.356
109.170    687.000    677.092      9.908    475.213    670.412    475.213    481.913    475.213
109.270    713.000    668.349     44.651    475.072    661.475    475.072    481.967    475.072
109.370    621.570    658.268    -36.699    474.932    651.187    474.932    482.034    474.932
109.470    637.981    647.186     -9.204    474.794    639.883    474.794    482.117    474.794
109.570    652.200    635.447     16.753    474.658    627.908    474.658    482.216    474.658
109.670    655.072    623.449     31.623    474.524    615.659    474.524    482.332    474.524
109.770    619.000    611.555      7.445    474.392    603.497    474.392    482.467    474.392
109.870    553.066    600.054    -46.988    474.262    591.709    474.262    482.621    474.262
109.970    563.598    589.202    -25.604    474.134    580.551    474.134    482.798    474.134
110.070    605.000    579.208     25.792    474.008    570.229    474.008    482.998    474.008
110.170    617.068    570.224     46.845    473.884    560.892    473.884    483.224    473.884
110.270    560.000    562.345     -2.345    473.762    552.634    473.762    483.480    473.762
110.370    540.000    555.619    -15.619    473.642    545.497    473.642    483.768    473.642
110.470    506.634    550.046    -43.412    473.524    539.479    473.524    484.094    473.524
110.570    516.262    545.592    -29.330    473.409    534.539    473.409    484.463    473.409
110.670    503.816    542.193    -38.377    473.295    530.606    473.295    484.883    473.295
110.770    562.008    539.770     22.237    473.184    527.592    473.184    485.362    473.184
110.870    560.000    538.232     21.768    473.076    525.394    473.076    485.912    473.076
110.970    529.000    537.488     -8.488    472.969    523.906    472.969    486.547    472.969
111.070    504.000    537.449    -33.449    472.865    523.023    472.865    487.287    472.865
111.170    530.130    538.040     -7.910    472.764    522.644    472.764    488.154    472.764
111.270    522.440    539.196    -16.756    472.664    522.679    472.664    489.176    472.664
111.370    556.000    540.872     15.128    472.568    523.045    472.568    490.387    472.568
111.470    570.000    543.039     26.961    472.473    523.673    472.473    491.831    472.473
111.570    570.000    545.687     24.313    472.382    524.503    472.382    493.557    472.382
111.670    569.000    548.830     20.170    472.292    525.487    472.292    495.626    472.292
111.770    555.000    552.498      2.502    472.206    526.588    472.206    498.107    472.206
111.870    522.000    556.747    -34.747    472.122    527.780    472.122    501.079    472.122
111.970    544.000    561.651    -17.651    472.040    529.049    472.040    504.633    472.040
112.070    560.000    567.306     -7.306    471.962    530.390    471.962    508.868    471.962
112.170    597.000    573.827     23.173    471.886    531.810    471.886    513.892    471.886
112.270    564.000    581.342    -17.342    471.813    533.324    471.813    519.820    471.813
112.370    626.686    589.992     36.694    471.743    534.955    471.743    526.767    471.743
112.470    641.779    599.923     41.856    471.675    536.735    471.675    534.851    471.675
112.570    612.000    611.286      0.714    471.610    538.701    471.610    544.182    471.610
112.670    639.000    624.228     14.772    471.549    540.903    471.549    554.860    471.549
112.770    598.585    638.890    -40.305    471.490    543.400    471.490    566.966    471.490
112.870    683.000    655.406     27.594    471.434    546.268    471.434    580.558    471.434
112.970    677.000    673.901      3.099    471.382    549.606    471.382    595.662    471.382
113.070    721.725    694.490     27.234    471.332    553.542    471.332    612.264    471.332
113.170    719.000    717.286      1.714    471.285    558.247    471.285    630.306    471.285
113.270    717.000    742.402    -25.402    471.242    563.944    471.242    649.680    471.242
113.370    749.523    769.968    -20.445    471.202    570.930    471.202    670.218    471.202
113.470    802.324    800.146      2.178    471.165    579.591    471.165    691.694    471.165
113.570    833.000    833.143     -0.143    471.131    590.430    471.131    713.816    471.131
113.670    895.509    869.246     26.263    471.100    604.091    471.100    736.223    471.100
113.770    940.000    908.841     31.159    471.073    621.388    471.073    758.488    471.073
113.870    910.000    952.446    -42.446    471.049    643.337    471.049    780.113    471.049
113.970    997.132   1000.747     -3.615    471.029    671.181    471.029    800.540    471.029
114.070   1073.000   1054.631     18.369    471.012    706.415    471.012    819.162    471.012
114.170   1164.950   1115.231     49.719    470.998    750.805    470.998    835.344    470.998
114.270   1198.000   1183.962     14.038    470.988    806.389    470.988    848.464    470.988
114.370   1240.000   1262.565    -22.565    470.982    875.465    470.982    857.963    470.982
114.470   1338.000   1353.126    -15.126    470.979    960.562    470.979    863.398    470.979
114.570   1419.000   1458.076    -39.076    470.980   1064.376    470.980    864.505    470.980
114.670   1594.000   1580.135     13.865    470.984   1189.682    470.984    861.227    470.984
114.770   1733.000   1722.204     10.796    470.992   1339.219    470.992    853.727    470.992
114.870   1907.713   1887.192     20.521    471.004   1515.537    471.004    842.363    471.004
114.970   2118.000   2077.792     40.208    471.020   1720.822    471.020    827.643    471.020
115.070   2410.000   2296.227    113.773    471.040   1956.700    471.040    810.166    471.040
115.170   2545.374   2543.988      1.386    471.063   2224.028    471.063    790.565    471.063
115.270   2776.000   2821.582    -45.582    471.091   2522.689    471.091    769.465    471.091
115.370   3024.000   3128.314   -104.314    471.122   2851.406    471.122    747.453    471.122
115.470   3542.741   3462.111     80.630    471.157   3207.577    471.157    725.058    471.157
115.570   3806.447   3819.403    -12.955    471.197   3587.172    471.197    702.743    471.197
115.670   4100.803   4195.064    -94.261    471.240   3984.673    471.240    680.902    471.240
115.770   4384.000   4582.425   -198.425    471.288   4393.088    471.288    659.861    471.288
115.870   4912.000   4973.359    -61.359    471.340   4804.033    471.340    639.879    471.340
115.970   5165.000   5358.447   -193.447    471.396   5207.894    471.396    621.154    471.396
116.070   5506.000   5727.215   -221.215    471.456   5594.062    471.456    603.823    471.456
116.170   5972.000   6068.473    -96.473    471.521   5951.265    471.521    587.969    471.521
116.270   6418.000   6370.760     47.240    471.590   6268.008    471.590    573.626    471.590
116.370   6530.592   6622.921    -92.330    471.663   6533.145    471.663    560.788    471.663
116.470   6970.643   6814.827    155.816    471.741   6736.585    471.741    549.412    471.741
116.570   6947.618   6938.171      9.446    471.823   6870.092    471.823    539.428    471.823
116.670   6832.508   6987.293   -154.785    471.910   6928.091    471.910    530.745    471.910
116.770   6949.000   6959.818    -10.818    472.001   6908.309    472.001    523.257    472.001
116.870   6805.997   6856.841    -50.843    472.097   6811.949    472.097    516.850    472.097
116.970   6704.000   6682.841     21.159    472.198   6643.604    472.198    511.407    472.198
117.070   6536.186   6445.143     91.044    472.303   6410.707    472.303    506.811    472.303
117.170   6147.000   6153.146     -6.146    472.413   6122.768    472.413    502.952    472.413
117.270   5756.410   5817.521    -61.110    472.528   5790.558    472.528    499.726    472.528
117.370   5542.819   5449.464     93.356    472.647   5425.368    472.647    497.037    472.647
117.470   5200.988   5060.095    140.893    472.772   5038.401    472.772    494.802    472.772
117.570   4766.000   4659.981    106.019    472.902   4640.301    472.902    492.944    472.902
117.670   4152.161   4258.786   -106.625    473.036   4240.796    473.036    491.401    473.036
117.770   3984.000   3865.009    118.991    473.175   3848.443    473.175    490.116    473.175
117.870   3546.349   3485.817     60.531    473.320   3470.457    473.320    489.044    473.320
117.970   3247.000   3126.952    120.048    473.470   3112.619    473.470    488.147    473.470
118.070   2954.000   2792.712    161.288    473.625   2779.262    473.625    487.392    473.625
118.170   2530.000   2486.006     43.994    473.785   2473.322    473.785    486.755    473.785
118.270   2271.519   2208.465     63.054    473.950   2196.451    473.950    486.216    473.950
118.370   1917.000   1960.583    -43.583    474.121   1949.164    474.121    485.758    474.121
118.470   1690.670   1741.904    -51.234    474.297   1731.017    474.297    485.368    474.297
118.570   1575.000   1551.200     23.800    474.478   1540.795    474.478    485.036    474.478
118.670   1365.000   1386.668    -21.668    474.665   1376.702    474.665    484.755    474.665
118.770   1261.829   1246.108     15.721    474.857   1236.546    474.857    484.517    474.857
118.870   1119.232   1127.092     -7.860    475.055   1117.903    475.055    484.318    475.055
118.970   1011.000   1027.104    -16.104    475.258   1018.264    475.258    484.154    475.258
119.070    954.622    943.666     10.955    475.468    935.152    475.468    484.022    475.468
119.170    871.000    874.422     -3.422    475.682    866.212    475.682    483.920    475.682
119.270    867.000    817.203     49.797    475.903    809.278    475.903    483.846    475.903
119.370    752.000    770.063    -18.063    476.129    762.406    476.129    483.798    476.129
119.470    711.302    731.300    -19.998    476.362    723.893    476.362    483.775    476.362
119.570    707.738    699.452      8.286    476.600    692.278    476.600    483.777    476.600
119.670    655.075    673.285    -18.209    476.844    666.327    476.844    483.802    476.844
119.770    698.776    651.774     47.002    477.094    645.017    477.094    483.851    477.094
119.870    667.973    634.080     33.893    477.350    627.507    477.350    483.922    477.350
119.970    645.191    619.525     25.666    477.612    613.118    477.612    484.017    477.612
120.070    608.786    607.562      1.224    477.880    601.306    477.880    484.136    477.880
120.170    559.000    597.758    -38.758    478.155    591.635    478.155    484.278    478.155
120.270    565.000    589.772    -24.772    478.436    583.763    478.436    484.445    478.436
120.370    534.000    583.334    -49.334    478.723    577.420    478.723    484.637    478.723
120.470    573.000    578.234     -5.234    479.016    572.397    479.016    484.854    479.016
120.570    548.000    574.309    -26.309    479.316    568.528    479.316    485.099    479.316
120.670    558.000    571.432    -13.432    479.623    565.686    479.623    485.371    479.623
120.770    549.762    569.504    -19.742    479.935    563.772    479.935    485.671    479.935
120.870    548.265    568.449    -20.184    480.255    562.707    480.255    486.001    480.255
120.970    578.000    568.203      9.797    480.581    562.427    480.581    486.362    480.581
121.070    572.000    568.716      3.284    480.914    562.882    480.914    486.753    480.914
121.170    562.000    569.941     -7.941    481.253    564.025    481.253    487.176    481.253
121.270    550.000    571.835    -21.835    481.599    565.811    481.599    487.632    481.599
121.370    616.464    574.352     42.111    481.952    568.196    481.952    488.119    481.952
121.470    635.000    577.445     57.555    482.312    571.131    482.312    488.638    482.312
121.570    563.000    581.057    -18.057    482.679    574.563    482.679    489.188    482.679
121.670    605.000    585.127     19.873    483.053    578.428    483.053    489.768    483.053
121.770    591.000    589.582      1.418    483.434    582.658    483.434    490.377    483.434
121.870    575.000    594.340    -19.340    483.822    587.173    483.822    491.011    483.822
121.970    549.000    599.311    -50.311    484.218    591.884    484.218    491.669    484.218
122.070    595.683    604.392     -8.709    484.620    596.692    484.620    492.346    484.620
122.170    632.000    609.474     22.526    485.030    601.494    485.030    493.039    485.030
122.270    600.238    614.442    -14.204    485.447    606.178    485.447    493.744    485.447
122.370    648.427    619.176     29.251    485.871    610.628    485.871    494.454    485.871
122.470    596.000    623.556    -27.556    486.303    614.732    486.303    495.165    486.303
122.570    660.336    627.464     32.872    486.743    618.377    486.743    495.869    486.743
122.670    633.077    630.795      2.282    487.190    621.466    487.190    496.560    487.190
122.770    671.000    633.456     37.544    487.645    623.913    487.645    497.231    487.645
122.870    619.000    635.380    -16.380    488.107    625.658    488.107    497.874    488.107
122.970    620.000    636.522    -16.522    488.577    626.662    488.577    498.483    488.577
123.070    592.250    636.870    -44.620    489.055    626.920    489.055    499.051    489.055
123.170    652.000    636.437     15.563    489.541    626.450    489.541    499.573    489.541
123.270    633.000    635.262     -2.262    490.034    625.296    490.034    500.045    490.034
123.370    655.000    633.410     21.590    490.536    623.521    490.536    500.469    490.536
123.470    613.794    630.958    -17.164    491.046    621.202    491.046    500.844    491.046
123.570    648.000    627.991     20.009    491.563    618.422    491.563    501.173    491.563
123.670    637.000    624.604     12.396    492.089    615.270    492.089    501.461    492.089
123.770    627.029    620.887      6.142    492.623    611.832    492.623    501.714    492.623
123.870    643.000    616.933     26.067    493.166    608.194    493.166    501.937    493.166
123.970    595.922    612.825    -16.903    493.716    604.431    493.716    502.139    493.716
124.070    591.000    608.639    -17.639    494.276    600.614    494.276    502.327    494.276
124.170    630.000    604.441     25.559    494.843    596.800    494.843    502.507    494.843
124.270    624.000    600.285     23.715    495.419    593.039    495.419    502.686    495.419
124.370    583.238    596.213    -12.975    496.004    589.365    496.004    502.869    496.004
124.470    588.616    592.256     -3.640    496.597    585.805    496.597    503.063    496.597
124.570    620.128    588.432     31.696    497.199    582.372    497.199    503.271    497.199
124.670    541.873    584.751    -42.878    497.810    579.072    497.810    503.498    497.810
124.770    592.000    581.214     10.786    498.429    575.905    498.429    503.747    498.429
124.870    605.000    577.816     27.184    499.058    572.859    499.058    504.021    499.058
124.970    623.000    574.555     48.445    499.695    569.934    499.695    504.322    499.695
