neutron_powder_diffraction_0143
R_wp: 4.249
Temperature (K): 1074.000
Counts: 83255.00
Wavelength (Ã…): 2.52098
COMMENTS
Test file for demonstrating the .xyy file format in Reel1.0
END OF HEADER
   tth       Y_obs     Y_calc      Y_res    Background    Phase_1_Nuc    Phase_1_Mag    Phase_2_Nuc    Phase_2_Mag
  9.970    595.000    573.302     21.698    572.470    573.240    572.470    572.531    572.470
 10.070    570.000    573.412     -3.412    572.511    573.349    572.511    572.574    572.511
 10.170    519.461    573.525    -54.063    572.547    573.461    572.547    572.610    572.547
 10.270    629.282    573.644     55.639    572.578    573.580    572.578    572.641    572.578
 10.370    586.000    573.772     12.228    572.603    573.708    572.603    572.666    572.603
 10.470    623.000    573.913     49.087    572.622    573.848    572.622    572.686    572.622
 10.570    567.000    574.071     -7.071    572.637    574.006    572.637    572.701    572.637
 10.670    580.618    574.251      6.367    572.646    574.186    572.646    572.710    572.646
 10.770    613.000    574.460     38.540    572.650    574.395    572.650    572.714    572.650
 10.870    589.000    574.710     14.290    572.649    574.644    572.649    572.713    572.649
 10.970    607.000    575.014     31.986    572.642    574.948    572.642    572.707    572.642
 11.070    603.088    575.394     27.694    572.631    575.327    572.631    572.696    572.631
 11.170    619.449    575.879     43.569    572.615    575.812    572.615    572.680    572.615
 11.270    612.000    576.517     35.483    572.594    576.449    572.594    572.659    572.594
 11.370    547.000    577.390    -30.390    572.567    577.321    572.567    572.634    572.567
 11.470    594.000    578.686     15.314    572.537    578.616    572.537    572.603    572.537
 11.570    632.000    580.899     51.101    572.501    580.828    572.501    572.568    572.501
 11.670    616.409    585.291     31.118    572.461    585.217    572.461    572.528    572.461
 11.770    637.000    594.453     42.547    572.415    594.373    572.415    572.483    572.415
 11.870    653.000    612.083     40.917    572.366    611.993    572.366    572.433    572.366
 11.970    656.000    640.526     15.474    572.311    640.420    572.311    572.379    572.311
 12.070    716.000    675.747     40.253    572.253    675.620    572.253    572.321    572.253
 12.170    698.000    702.874     -4.874    572.189    702.732    572.189    572.258    572.189
 12.270    672.000    703.685    -31.685    572.122    703.542    572.122    572.190    572.122
 12.370    643.000    677.415    -34.415    572.049    677.287    572.049    572.119    572.049
 12.470    636.000    641.959     -5.959    571.973    641.850    571.973    572.042    571.973
 12.570    624.000    612.813     11.187    571.892    612.720    571.892    571.962    571.892
 12.670    551.505    594.508    -43.003    571.807    594.425    571.807    571.877    571.807
 12.770    601.000    584.876     16.124    571.718    584.798    571.718    571.789    571.718
 12.870    538.117    580.193    -42.075    571.625    580.117    571.625    571.695    571.625
 12.970    546.000    577.783    -31.783    571.527    577.708    571.527    571.598    571.527
 13.070    545.000    576.328    -31.328    571.426    576.254    571.426    571.497    571.426
 13.170    588.349    575.311     13.038    571.320    575.237    571.320    571.392    571.320
 13.270    554.000    574.536    -20.536    571.211    574.462    571.211    571.283    571.211
 13.370    582.000    573.917      8.083    571.097    573.843    571.097    571.170    571.097
 13.470    501.000    573.407    -72.407    570.980    573.333    570.980    571.053    570.980
 13.570    564.000    572.974     -8.974    570.859    572.900    570.859    570.932    570.859
 13.670    540.298    572.602    -32.304    570.734    572.527    570.734    570.808    570.734
 13.770    539.496    572.270    -32.774    570.606    572.195    570.606    570.680    570.606
 13.870    624.945    571.969     52.977    570.473    571.894    570.473    570.548    570.473
 13.970    565.000    571.692     -6.692    570.337    571.616    570.337    570.412    570.337
 14.070    594.621    571.433     23.187    570.198    571.358    570.198    570.273    570.198
 14.170    553.000    571.189    -18.189    570.055    571.113    570.055    570.130    570.055
 14.270    616.394    570.956     45.439    569.908    570.880    569.908    569.984    569.908
 14.370    522.805    570.731    -47.927    569.758    570.654    569.758    569.834    569.758
 14.470    584.940    570.513     14.428    569.605    570.436    569.605    569.681    569.605
 14.570    595.000    570.299     24.701    569.448    570.222    569.448    569.525    569.448
 14.670    537.000    570.090    -33.090    569.287    570.012    569.287    569.365    569.287
 14.770    554.000    569.883    -15.883    569.124    569.805    569.124    569.202    569.124
 14.870    552.000    569.677    -17.677    568.957    569.599    568.957    569.035    568.957
 14.970    534.968    569.473    -34.505    568.787    569.394    568.787    568.866    568.787
 15.070    566.000    569.270     -3.270    568.614    569.190    568.614    568.693    568.614
 15.170    600.000    569.066     30.934    568.437    568.987    568.437    568.517    568.437
 15.270    588.468    568.863     19.605    568.258    568.783    568.258    568.338    568.258
 15.370    549.000    568.659    -19.659    568.076    568.578    568.076    568.156    568.076
 15.470    534.000    568.454    -34.454    567.890    568.373    567.890    567.971    567.890
 15.570    522.579    568.248    -45.669    567.702    568.167    567.702    567.783    567.702
 15.670    567.000    568.041     -1.041    567.510    567.959    567.510    567.592    567.510
 15.770    559.000    567.833     -8.833    567.316    567.750    567.316    567.398    567.316
 15.870    556.121    567.623    -11.502    567.119    567.540    567.119    567.202    567.119
 15.970    556.676    567.413    -10.737    566.919    567.328    566.919    567.004    566.919
 16.070    571.000    567.201      3.799    566.716    567.115    566.716    566.803    566.716
 16.170    569.028    566.989      2.038    566.511    566.902    566.511    566.598    566.511
 16.270    559.000    566.773     -7.773    566.303    566.686    566.303    566.390    566.303
 16.370    583.000    566.555     16.445    566.092    566.467    566.092    566.180    566.092
 16.470    601.316    566.335     34.980    565.879    566.247    565.879    565.967    565.879
 16.570    533.000    566.114    -33.114    565.663    566.025    565.663    565.752    565.663
 16.670    502.000    565.890    -63.890    565.445    565.801    565.445    565.534    565.445
 16.770    577.000    565.665     11.335    565.224    565.575    565.224    565.313    565.224
 16.870    561.000    565.438     -4.438    565.000    565.347    565.000    565.091    565.000
 16.970    597.000    565.209     31.791    564.774    565.118    564.774    564.865    564.774
 17.070    589.000    564.979     24.021    564.546    564.888    564.546    564.638    564.546
 17.170    590.471    564.747     25.724    564.316    564.654    564.316    564.408    564.316
 17.270    591.000    564.512     26.488    564.083    564.419    564.083    564.176    564.083
 17.370    556.000    564.275     -8.275    563.848    564.182    563.848    563.941    563.848
 17.470    551.000    564.037    -13.037    563.611    563.943    563.611    563.705    563.611
 17.570    520.000    563.797    -43.797    563.371    563.702    563.371    563.466    563.371
 17.670    574.212    563.555     10.657    563.129    563.460    563.129    563.225    563.129
 17.770    541.000    563.312    -22.312    562.886    563.216    562.886    562.981    562.886
 17.870    567.000    563.066      3.934    562.640    562.970    562.640    562.736    562.640
 17.970    595.000    562.819     32.181    562.392    562.722    562.392    562.489    562.392
 18.070    576.000    562.570     13.430    562.142    562.473    562.142    562.240    562.142
 18.170    529.000    562.320    -33.320    561.890    562.221    561.890    561.989    561.890
 18.270    531.000    562.068    -31.068    561.636    561.969    561.636    561.735    561.636
 18.370    537.000    561.814    -24.814    561.381    561.714    561.381    561.480    561.381
 18.470    548.000    561.560    -13.560    561.123    561.460    561.123    561.224    561.123
 18.570    587.234    561.318     25.917    560.864    561.217    560.864    560.965    560.864
 18.670    562.000    561.070      0.930    560.602    560.968    560.602    560.704    560.602
 18.770    598.311    560.812     37.499    560.339    560.709    560.339    560.442    560.339
 18.870    580.000    560.551     19.449    560.074    560.447    560.074    560.178    560.074
 18.970    548.000    560.289    -12.289    559.808    560.184    559.808    559.912    559.808
 19.070    588.000    560.025     27.975    559.540    559.920    559.540    559.645    559.540
 19.170    535.000    559.760    -24.760    559.270    559.654    559.270    559.376    559.270
 19.270    594.000    559.494     34.506    558.999    559.387    558.999    559.106    558.999
 19.370    538.206    559.227    -21.021    558.726    559.119    558.726    558.834    558.726
 19.470    539.000    558.958    -19.958    558.451    558.850    558.451    558.560    558.451
 19.570    521.000    558.689    -37.689    558.176    558.579    558.176    558.285    558.176
 19.670    554.524    558.418     -3.894    557.898    558.308    557.898    558.008    557.898
 19.770    592.000    558.146     33.854    557.619    558.035    557.619    557.731    557.619
 19.870    526.000    557.874    -31.874    557.339    557.761    557.339    557.451    557.339
 19.970    559.982    557.600      2.382    557.057    557.487    557.057    557.171    557.057
 20.070    509.643    557.326    -47.683    556.774    557.212    556.774    556.889    556.774
 20.170    570.000    557.051     12.949    556.490    556.935    556.490    556.605    556.490
 20.270    560.033    556.775      3.258    556.205    556.659    556.205    556.321    556.205
 20.370    545.000    556.498    -11.498    555.918    556.381    555.918    556.035    555.918
 20.470    555.000    556.221     -1.221    555.630    556.103    555.630    555.748    555.630
 20.570    536.000    555.944    -19.944    555.341    555.824    555.341    555.460    555.341
 20.670    558.992    555.665      3.327    555.050    555.545    555.050    555.171    555.050
 20.770    576.046    555.387     20.658    554.759    555.265    554.759    554.881    554.759
 20.870    529.000    555.120    -26.120    554.466    554.997    554.466    554.589    554.466
 20.970    557.303    554.930      2.373    554.172    554.806    554.172    554.297    554.172
 21.070    580.000    554.674     25.326    553.878    554.548    553.878    554.003    553.878
 21.170    508.158    554.396    -46.238    553.582    554.269    553.582    553.709    553.582
 21.270    562.000    554.118      7.882    553.285    553.990    553.285    553.414    553.285
 21.370    540.000    553.840    -13.840    552.988    553.710    552.988    553.118    552.988
 21.470    541.000    553.562    -12.562    552.689    553.431    552.689    552.820    552.689
 21.570    508.000    553.286    -45.286    552.390    553.153    552.390    552.522    552.390
 21.670    595.000    553.010     41.990    552.090    552.876    552.090    552.224    552.090
 21.770    597.363    552.735     44.628    551.788    552.599    551.788    551.924    551.788
 21.870    512.638    552.466    -39.828    551.487    552.329    551.487    551.624    551.487
 21.970    556.173    552.240      3.933    551.184    552.101    551.184    551.323    551.184
 22.070    539.000    551.989    -12.989    550.880    551.849    550.880    551.021    550.880
 22.170    540.000    551.725    -11.725    550.576    551.583    550.576    550.719    550.576
 22.270    536.000    551.482    -15.482    550.271    551.338    550.271    550.416    550.271
 22.370    552.000    551.248      0.752    549.966    551.102    549.966    550.112    549.966
 22.470    555.000    550.996      4.004    549.660    550.848    549.660    549.808    549.660
 22.570    514.537    550.745    -36.208    549.353    550.595    549.353    549.503    549.353
 22.670    532.000    550.500    -18.500    549.046    550.348    549.046    549.198    549.046
 22.770    592.669    550.262     42.406    548.738    550.108    548.738    548.892    548.738
 22.870    548.318    550.033     -1.715    548.429    549.877    548.429    548.586    548.429
 22.970    513.000    549.815    -36.815    548.120    549.657    548.120    548.279    548.120
 23.070    559.000    549.610      9.390    547.811    549.449    547.811    547.972    547.811
 23.170    512.000    549.422    -37.422    547.501    549.258    547.501    547.665    547.501
 23.270    569.000    549.254     19.746    547.191    549.088    547.191    547.357    547.191
 23.370    551.847    549.113      2.734    546.880    548.945    546.880    547.049    546.880
 23.470    535.000    549.006    -14.006    546.569    548.835    546.569    546.741    546.569
 23.570    597.344    548.945     48.400    546.258    548.771    546.258    546.433    546.258
 23.670    510.000    548.944    -38.944    545.946    548.767    545.946    546.124    545.946
 23.770    527.000    549.027    -22.027    545.634    548.847    545.634    545.815    545.634
 23.870    544.000    549.231     -5.231    545.321    549.048    545.321    545.506    545.321
 23.970    593.000    549.630     43.370    545.009    549.444    545.009    545.197    545.009
 24.070    557.000    550.394      6.606    544.696    550.205    544.696    544.888    544.696
 24.170    536.000    551.952    -15.952    544.383    551.761    544.383    544.579    544.383
 24.270    551.419    555.334     -3.916    544.070    555.141    544.070    544.270    544.070
 24.370    589.431    562.404     27.027    543.756    562.212    543.756    543.961    543.756
 24.470    637.000    575.383     61.617    543.443    575.195    543.443    543.652    543.443
 24.570    586.000    594.959     -8.959    543.129    594.782    543.129    543.343    543.129
 24.670    653.553    617.205     36.348    542.816    617.039    542.816    543.034    542.816
 24.770    610.854    631.655    -20.801    542.502    631.494    542.502    542.726    542.502
 24.870    665.000    628.114     36.886    542.188    627.945    542.188    542.417    542.188
 24.970    636.000    609.329     26.671    541.874    609.141    541.874    542.109    541.874
 25.070    617.000    586.769     30.231    541.560    586.559    541.560    541.802    541.560
 25.170    575.000    568.726      6.274    541.246    568.496    541.246    541.495    541.246
 25.270    598.000    557.324     40.676    540.933    557.079    540.933    541.188    540.933
 25.370    531.000    551.127    -20.127    540.619    550.870    540.619    540.882    540.619
 25.470    563.000    547.934     15.066    540.305    547.667    540.305    540.576    540.305
 25.570    520.596    546.177    -25.581    539.992    545.900    539.992    540.271    539.992
 25.670    504.015    545.077    -41.061    539.679    544.790    539.679    539.967    539.679
 25.770    558.000    544.275     13.725    539.365    543.978    539.365    539.664    539.365
 25.870    543.000    543.624     -0.624    539.052    543.316    539.052    539.362    539.052
 25.970    566.749    543.092     23.657    538.740    542.772    538.740    539.060    538.740
 26.070    520.000    542.650    -22.650    538.427    542.318    538.427    538.760    538.427
 26.170    560.000    542.277     17.723    538.115    541.931    538.115    538.461    538.115
 26.270    515.689    541.975    -26.285    537.802    541.615    537.802    538.163    537.802
 26.370    566.000    541.740     24.260    537.491    541.364    537.491    537.867    537.491
 26.470    537.204    541.534     -4.330    537.179    541.140    537.179    537.573    537.179
 26.570    567.803    541.378     26.425    536.868    540.966    536.868    537.280    536.868
 26.670    543.541    541.279      2.262    536.557    540.846    536.557    536.990    536.557
 26.770    551.867    541.242     10.624    536.246    540.787    536.246    536.702    536.246
 26.870    490.235    541.282    -51.047    535.936    540.801    535.936    536.417    535.936
 26.970    609.000    541.416     67.584    535.627    540.908    535.627    536.135    535.627
 27.070    519.147    541.659    -22.512    535.317    541.120    535.317    535.856    535.317
 27.170    555.000    542.057     12.943    535.008    541.484    535.008    535.581    535.008
 27.270    558.000    542.653     15.347    534.700    542.041    534.700    535.311    534.700
 27.370    496.669    543.516    -46.847    534.392    542.861    534.392    535.046    534.392
 27.470    500.128    544.800    -44.671    534.084    544.095    534.084    534.787    534.084
 27.570    558.942    546.878     12.064    533.777    546.118    533.777    534.535    533.777
 27.670    496.351    551.115    -54.764    533.471    550.291    533.471    534.292    533.471
 27.770    571.000    562.232      8.768    533.165    561.331    533.165    534.059    533.165
 27.870    609.000    592.358     16.642    532.860    591.363    532.860    533.838    532.860
 27.970    686.000    660.612     25.388    532.555    659.498    532.555    533.631    532.555
 28.070    741.327    775.607    -34.281    532.251    774.346    532.251    533.442    532.251
 28.170    861.204    904.421    -43.216    531.947    902.995    531.947    533.275    531.947
 28.270   1000.608    967.834     32.774    531.644    966.247    531.644    533.137    531.644
 28.370    874.000    914.074    -40.074    531.342    912.323    531.342    533.035    531.342
 28.470    821.904    798.193     23.710    531.041    796.227    531.041    532.985    531.041
 28.570    685.000    708.680    -23.680    530.740    706.406    530.740    533.005    530.740
 28.670    702.000    690.822     11.178    530.439    688.121    530.439    533.127    530.439
 28.770    784.155    738.644     45.511    530.140    735.369    530.140    533.397    530.140
 28.870    834.546    809.963     24.583    529.841    805.914    529.841    533.878    529.841
 28.970    811.687    843.524    -31.837    529.543    838.421    529.543    534.650    529.543
 29.070    726.000    803.489    -77.489    529.246    796.948    529.246    535.801    529.246
 29.170    725.000    721.032      3.968    528.949    712.581    528.949    537.414    528.949
 29.270    675.452    644.627     30.825    528.654    633.761    528.654    539.528    528.654
 29.370    600.000    596.402      3.598    528.359    582.692    528.359    542.072    528.359
 29.470    570.000    573.756     -3.756    528.065    557.073    528.065    544.747    528.065
 29.570    544.074    565.183    -21.109    527.772    546.050    527.772    546.903    527.772
 29.670    527.100    561.439    -34.339    527.479    541.229    527.479    547.687    527.479
 29.770    558.000    558.116     -0.116    527.188    538.674    527.188    546.626    527.188
 29.870    566.000    554.206     11.794    526.897    537.026    526.897    544.075    526.897
 29.970    568.476    550.131     18.345    526.607    535.874    526.607    540.862    526.607
 30.070    549.101    546.460      2.641    526.319    535.088    526.319    537.688    526.319
 30.170    556.000    543.529     12.471    526.031    534.649    526.031    534.908    526.031
 30.270    570.000    541.561     28.439    525.744    534.678    525.744    532.624    525.744
 30.370    597.000    540.994     56.006    525.458    535.635    525.458    530.812    525.458
 30.470    580.414    542.939     37.475    525.173    538.709    525.173    529.396    525.173
 30.570    544.000    549.467     -5.467    524.889    546.056    524.889    528.287    524.889
 30.670    549.920    562.783    -12.863    524.606    559.963    524.606    527.402    524.606
 30.770    669.000    582.638     86.362    524.324    580.248    524.324    526.676    524.324
 30.870    614.920    603.110     11.810    524.043    601.042    524.043    526.059    524.043
 30.970    595.000    612.412    -17.412    523.763    610.600    523.763    525.519    523.763
 31.070    636.000    602.791     33.209    523.484    601.197    523.484    525.033    523.484
 31.170    579.000    581.429     -2.429    523.206    580.020    523.206    524.586    523.206
 31.270    518.909    560.109    -41.200    522.929    558.852    522.929    524.169    522.929
 31.370    530.769    545.004    -14.235    522.654    543.873    522.654    523.777    522.654
 31.470    568.452    536.509     31.943    522.379    535.481    522.379    523.403    522.379
 31.570    526.000    532.387     -6.387    522.106    531.446    522.106    523.044    522.106
 31.670    563.000    530.436     32.564    521.833    529.568    521.833    522.699    521.833
 31.770    516.000    529.392    -13.392    521.562    528.587    521.562    522.365    521.562
 31.870    543.000    528.730     14.270    521.292    527.981    521.292    522.040    521.292
 31.970    481.016    528.273    -47.257    521.023    527.572    521.023    521.723    521.023
 32.070    565.000    527.959     37.041    520.755    527.300    520.755    521.413    520.755
 32.170    534.000    527.765      6.235    520.489    527.144    520.489    521.109    520.489
 32.270    536.000    527.684      8.316    520.224    527.097    520.224    520.810    520.224
 32.370    536.725    527.717      9.007    519.959    527.159    519.959    520.517    519.959
 32.470    490.906    527.873    -36.968    519.696    527.341    519.696    520.227    519.696
 32.570    552.153    528.170     23.983    519.435    527.661    519.435    519.942    519.435
 32.670    533.000    528.634      4.366    519.174    528.147    519.174    519.660    519.174
 32.770    555.000    529.306     25.694    518.915    528.838    518.915    519.382    518.915
 32.870    536.136    530.245      5.891    518.657    529.795    518.657    519.107    518.657
 32.970    536.000    531.538      4.462    518.400    531.103    518.400    518.834    518.400
 33.070    518.258    533.322    -15.063    518.145    532.900    518.145    518.565    518.145
 33.170    550.079    535.847     14.232    517.891    535.438    517.891    518.297    517.891
 33.270    508.000    539.701    -31.701    517.638    539.304    517.638    518.033    517.638
 33.370    516.012    546.459    -30.448    517.386    546.071    517.386    517.771    517.386
 33.470    588.635    560.130     28.505    517.136    559.750    517.136    517.510    517.136
 33.570    601.269    589.092     12.177    516.887    588.715    516.887    517.253    516.887
 33.670    641.360    646.094     -4.734    516.640    645.715    516.640    516.997    516.640
 33.770    765.833    742.073     23.760    516.393    741.686    516.393    516.743    516.393
 33.870    855.000    872.426    -17.426    516.148    872.029    516.148    516.491    516.148
 33.970   1080.000   1001.917     78.083    515.905   1001.518    515.905    516.242    515.905
 34.070   1108.000   1065.051     42.949    515.663   1064.667    515.663    515.994    515.663
 34.170   1075.564   1017.658     57.906    515.422   1017.304    515.422    515.748    515.422
 34.270    884.000    894.316    -10.316    515.182    893.991    515.182    515.503    515.182
 34.370    752.702    760.858     -8.156    514.944    760.549    514.944    515.261    514.944
 34.470    656.000    657.929     -1.929    514.708    657.625    514.708    515.020    514.708
 34.570    559.000    594.382    -35.382    514.473    594.079    514.473    514.781    514.473
 34.670    546.000    560.953    -14.953    514.239    560.650    514.239    514.544    514.239
 34.770    549.000    544.721      4.279    514.007    544.420    514.007    514.309    514.007
 34.870    536.000    536.534     -0.534    513.776    536.234    513.776    514.075    513.776
 34.970    575.147    531.760     43.387    513.546    531.463    513.546    513.843    513.546
 35.070    548.000    528.510     19.490    513.318    528.215    513.318    513.613    513.318
 35.170    536.833    526.072     10.761    513.092    525.779    513.092    513.384    513.092
 35.270    541.000    524.154     16.846    512.866    523.862    512.866    513.157    512.866
 35.370    542.979    522.600     20.379    512.643    522.310    512.643    512.932    512.643
 35.470    528.000    521.316      6.684    512.421    521.027    512.421    512.708    512.421
 35.570    506.000    520.233    -14.233    512.200    519.946    512.200    512.486    512.200
 35.670    565.404    519.307     46.096    511.981    519.022    511.981    512.266    511.981
 35.770    483.530    518.509    -34.979    511.763    518.224    511.763    512.048    511.763
 35.870    562.000    517.811     44.189    511.547    517.527    511.547    511.831    511.547
 35.970    535.000    517.193     17.807    511.332    516.910    511.332    511.615    511.332
 36.070    521.000    516.644      4.356    511.119    516.361    511.119    511.402    511.119
 36.170    516.446    516.151      0.295    510.907    515.868    510.907    511.190    510.907
 36.270    519.000    515.708      3.292    510.697    515.425    510.697    510.979    510.697
 36.370    542.814    515.309     27.505    510.489    515.027    510.489    510.771    510.489
 36.470    523.000    514.952      8.048    510.282    514.670    510.282    510.564    510.282
 36.570    483.000    514.635    -31.635    510.076    514.352    510.076    510.358    510.076
 36.670    537.000    514.360     22.640    509.872    514.078    509.872    510.155    509.872
 36.770    537.000    514.137     22.863    509.670    513.854    509.670    509.953    509.670
 36.870    524.000    513.989     10.011    509.469    513.706    509.469    509.752    509.469
 36.970    541.296    513.978     27.318    509.270    513.695    509.270    509.554    509.270
 37.070    490.000    514.232    -24.232    509.072    513.948    509.072    509.357    509.072
 37.170    486.761    514.970    -28.210    508.876    514.685    508.876    509.161    508.876
 37.270    553.000    516.470     36.530    508.681    516.184    508.681    508.968    508.681
 37.370    496.000    518.924    -22.924    508.488    518.638    508.488    508.776    508.488
 37.470    491.000    522.197    -31.197    508.297    521.910    508.297    508.585    508.297
 37.570    497.000    525.556    -28.556    508.107    525.269    508.107    508.397    508.107
 37.670    547.000    527.649     19.351    507.919    527.363    507.919    508.210    507.919
 37.770    503.000    527.360    -24.360    507.732    527.074    507.732    508.024    507.732
 37.870    532.000    524.961      7.039    507.547    524.676    507.547    507.841    507.547
 37.970    496.214    521.658    -25.444    507.364    521.373    507.364    507.659    507.364
 38.070    507.000    518.406    -11.406    507.182    518.120    507.182    507.479    507.182
 38.170    465.454    515.630    -50.177    507.002    515.341    507.002    507.300    507.002
 38.270    551.992    513.492     38.500    506.823    513.199    506.823    507.124    506.823
 38.370    488.000    511.979    -23.979    506.646    511.681    506.646    506.949    506.646
 38.470    518.000    510.963      7.037    506.471    510.661    506.471    506.775    506.471
 38.570    502.000    510.288     -8.288    506.297    509.984    506.297    506.604    506.297
 38.670    517.475    509.826      7.648    506.125    509.519    506.125    506.434    506.125
 38.770    497.000    509.485    -12.485    505.955    509.175    505.955    506.266    505.955
 38.870    515.000    509.209      5.791    505.786    508.897    505.786    506.099    505.786
 38.970    503.000    508.971     -5.971    505.619    508.656    505.619    505.934    505.619
 39.070    504.000    508.757     -4.757    505.454    508.440    505.454    505.772    505.454
 39.170    549.000    508.560     40.440    505.290    508.240    505.290    505.610    505.290
 39.270    548.474    508.378     40.096    505.128    508.055    505.128    505.451    505.128
 39.370    474.949    508.207    -33.258    504.967    507.881    504.967    505.293    504.967
 39.470    508.000    508.046     -0.046    504.808    507.718    504.808    505.137    504.808
 39.570    553.599    507.896     45.703    504.651    507.564    504.651    504.983    504.651
 39.670    527.000    507.754     19.246    504.496    507.420    504.496    504.830    504.496
 39.770    500.642    507.621     -6.979    504.342    507.284    504.342    504.680    504.342
 39.870    469.000    507.497    -38.497    504.189    507.156    504.189    504.531    504.189
 39.970    483.000    507.382    -24.382    504.039    507.037    504.039    504.384    504.039
 40.070    493.000    507.275    -14.275    503.890    506.927    503.890    504.238    503.890
 40.170    505.000    507.178     -2.178    503.743    506.826    503.743    504.095    503.743
 40.270    482.000    507.091    -25.091    503.597    506.735    503.597    503.953    503.597
 40.370    521.217    507.014     14.203    503.453    506.655    503.453    503.813    503.453
 40.470    432.000    506.950    -74.950    503.311    506.587    503.311    503.674    503.311
 40.570    501.000    506.899     -5.899    503.170    506.532    503.170    503.538    503.170
 40.670    497.000    506.864     -9.864    503.031    506.493    503.031    503.403    503.031
 40.770    510.780    506.846      3.934    502.894    506.470    502.894    503.270    502.894
 40.870    487.896    506.849    -18.953    502.759    506.468    502.759    503.139    502.759
 40.970    470.000    506.876    -36.876    502.625    506.491    502.625    503.010    502.625
 41.070    518.000    506.933     11.067    502.492    506.543    502.492    502.883    502.492
 41.170    476.104    507.026    -30.922    502.362    506.631    502.362    502.757    502.362
 41.270    475.000    507.164    -32.164    502.233    506.764    502.233    502.634    502.233
 41.370    507.000    507.359     -0.359    502.106    506.954    502.106    502.512    502.106
 41.470    516.000    507.630      8.370    501.980    507.220    501.980    502.392    501.980
 41.570    529.015    508.003     21.012    501.856    507.587    501.856    502.274    501.856
 41.670    490.088    508.531    -18.443    501.734    508.110    501.734    502.157    501.734
 41.770    464.104    509.330    -45.226    501.614    508.903    501.614    502.043    501.614
 41.870    507.132    510.668     -3.536    501.495    510.235    501.495    501.930    501.495
 41.970    541.383    513.136     28.247    501.378    512.698    501.378    501.820    501.378
 42.070    547.000    517.853     29.147    501.262    517.410    501.262    501.711    501.262
 42.170    499.726    526.508    -26.781    501.148    526.062    501.148    501.604    501.148
 42.270    557.000    540.925     16.075    501.036    540.479    501.036    501.499    501.036
 42.370    562.367    561.909      0.458    500.926    561.465    500.926    501.396    500.926
 42.470    559.726    587.620    -27.893    500.817    587.181    500.817    501.295    500.817
 42.570    594.841    612.164    -17.323    500.710    611.731    500.710    501.196    500.710
 42.670    578.000    626.121    -48.121    500.604    625.690    500.604    501.099    500.604
 42.770    582.000    622.348    -40.348    500.501    621.910    500.501    501.004    500.501
 42.870    584.000    603.014    -19.014    500.398    602.558    500.398    500.911    500.398
 42.970    575.000    577.050     -2.050    500.298    576.572    500.298    500.820    500.298
 43.070    536.469    552.690    -16.221    500.199    552.188    500.199    500.731    500.199
 43.170    531.000    534.134     -3.134    500.102    533.611    500.102    500.644    500.102
 43.270    501.000    522.008    -21.008    500.006    521.467    500.006    500.559    500.006
 43.370    483.841    514.959    -31.118    499.913    514.402    499.913    500.476    499.913
 43.470    492.000    511.138    -19.138    499.820    510.568    499.820    500.396    499.820
 43.570    502.000    509.071     -7.071    499.730    508.487    499.730    500.317    499.730
 43.670    530.855    507.866     22.989    499.641    507.269    499.641    500.241    499.641
 43.770    474.000    507.077    -33.077    499.554    506.466    499.554    500.167    499.554
 43.870    557.183    506.506     50.677    499.468    505.882    499.468    500.095    499.468
 43.970    529.000    506.070     22.930    499.384    505.430    499.384    500.025    499.384
 44.070    511.000    505.726      5.274    499.302    505.071    499.302    499.958    499.302
 44.170    517.808    505.453     12.355    499.221    504.782    499.221    499.893    499.221
 44.270    524.561    505.234     19.327    499.142    504.547    499.142    499.830    499.142
 44.370    497.000    505.060     -8.060    499.065    504.355    499.065    499.770    499.065
 44.470    492.000    504.923    -12.923    498.989    504.200    498.989    499.713    498.989
 44.570    536.000    504.817     31.183    498.915    504.074    498.915    499.658    498.915
 44.670    496.000    504.738     -8.738    498.843    503.975    498.843    499.606    498.843
 44.770    495.000    504.682     -9.682    498.772    503.898    498.772    499.556    498.772
 44.870    537.912    504.649     33.263    498.703    503.842    498.703    499.510    498.703
 44.970    535.000    504.635     30.365    498.635    503.805    498.635    499.466    498.635
 45.070    477.000    504.641    -27.641    498.569    503.785    498.569    499.425    498.569
 45.170    519.000    504.664     14.336    498.505    503.781    498.505    499.388    498.505
 45.270    490.000    504.706    -14.706    498.442    503.794    498.442    499.353    498.442
 45.370    515.000    504.765     10.235    498.381    503.823    498.381    499.323    498.381
 45.470    489.000    504.843    -15.843    498.321    503.869    498.321    499.295    498.321
 45.570    496.000    504.940     -8.940    498.263    503.931    498.263    499.272    498.263
 45.670    490.000    505.057    -15.057    498.207    504.012    498.207    499.252    498.207
 45.770    548.000    505.196     42.804    498.152    504.111    498.152    499.237    498.152
 45.870    545.022    505.359     39.664    498.099    504.231    498.099    499.227    498.099
 45.970    490.000    505.547    -15.547    498.047    504.373    498.047    499.221    498.047
 46.070    494.000    505.764    -11.764    497.997    504.541    497.997    499.220    497.997
 46.170    492.000    506.014    -14.014    497.949    504.738    497.949    499.225    497.949
 46.270    512.000    506.302      5.698    497.902    504.967    497.902    499.235    497.902
 46.370    466.122    506.633    -40.512    497.857    505.237    497.857    499.253    497.857
 46.470    508.000    507.018      0.982    497.813    505.553    497.813    499.277    497.813
 46.570    487.000    507.466    -20.466    497.771    505.926    497.771    499.309    497.771
 46.670    478.745    507.996    -29.251    497.730    506.375    497.730    499.350    497.730
 46.770    497.000    508.639    -11.639    497.691    506.928    497.691    499.400    497.691
 46.870    568.000    509.461     58.539    497.653    507.651    497.653    499.461    497.653
 46.970    538.000    510.600     27.400    497.617    508.680    497.617    499.534    497.617
 47.070    497.000    512.344    -15.344    497.583    510.302    497.583    499.621    497.583
 47.170    543.113    515.219     27.893    497.550    513.040    497.550    499.723    497.550
 47.270    491.000    520.031    -29.031    497.518    517.697    497.518    499.843    497.518
 47.370    561.971    527.731     34.240    497.489    525.221    497.489    499.983    497.489
 47.470    586.000    539.011     46.989    497.460    536.301    497.460    500.148    497.460
 47.570    588.000    553.691     34.309    497.433    550.751    497.433    500.339    497.433
 47.670    606.000    569.995     36.005    497.408    566.794    497.408    500.565    497.408
 47.770    540.000    584.188    -44.188    497.384    580.689    497.384    500.829    497.384
 47.870    572.000    591.335    -19.335    497.362    587.497    497.362    501.143    497.362
 47.970    553.459    588.532    -35.074    497.341    584.302    497.341    501.518    497.341
 48.070    613.049    577.763     35.286    497.321    573.069    497.321    501.972    497.321
 48.170    586.000    563.850     22.150    497.303    558.588    497.303    502.533    497.303
 48.270    575.000    550.995     24.005    497.287    545.019    497.287    503.241    497.287
 48.370    588.387    541.532     46.855    497.272    534.631    497.272    504.159    497.272
 48.470    543.862    536.127      7.735    497.259    528.001    497.259    505.375    497.259
 48.570    551.105    534.422     16.683    497.246    524.647    497.246    507.015    497.246
 48.670    513.345    535.714    -22.369    497.236    523.701    497.236    509.243    497.236
 48.770    537.000    539.424     -2.424    497.227    524.392    497.227    512.255    497.227
 48.870    593.000    545.278     47.722    497.219    526.237    497.219    516.255    497.219
 48.970    521.000    553.286    -32.286    497.213    529.069    497.213    521.424    497.213
 49.070    533.945    563.682    -29.737    497.208    533.030    497.208    527.854    497.208
 49.170    594.000    577.027     16.973    497.204    538.763    497.204    535.460    497.204
 49.270    587.000    594.735     -7.735    497.202    548.076    497.202    543.850    497.202
 49.370    645.000    620.487     24.513    497.202    565.528    497.202    552.145    497.202
 49.470    669.000    662.937      6.063    497.202    601.221    497.202    558.891    497.202
 49.570    679.587    739.169    -59.582    497.205    673.950    497.205    562.377    497.205
 49.670    928.938    875.886     53.052    497.208    811.498    497.208    561.517    497.208
 49.770   1168.000   1102.466     65.534    497.213   1042.946    497.213    556.613    497.213
 49.870   1477.000   1432.123     44.877    497.219   1380.072    497.219    549.113    497.219
 49.970   1826.000   1836.989    -10.989    497.227   1793.361    497.227    540.688    497.227
 50.070   2291.000   2232.965     58.035    497.236   2197.507    497.236    532.568    497.236
 50.170   2568.358   2493.953     74.405    497.247   2465.747    497.247    525.422    497.247
 50.270   2575.971   2512.061     63.910    497.258   2489.901    497.258    519.510    497.258
 50.370   2243.000   2276.867    -33.867    497.271   2259.483    497.271    514.837    497.271
 50.470   1832.000   1885.607    -53.607    497.286   1871.836    497.286    511.268    497.286
 50.570   1465.401   1468.640     -3.239    497.301   1457.522    497.301    508.610    497.301
 50.670   1092.879   1120.718    -27.838    497.319   1111.524    497.319    506.657    497.319
 50.770    909.765    879.895     29.869    497.337    872.106    497.337    505.226    497.337
 50.870    687.000    738.464    -51.464    497.357    731.721    497.357    504.166    497.357
 50.970    715.000    666.464     48.536    497.378    660.521    497.378    503.368    497.378
 51.070    647.000    632.211     14.789    497.400    626.896    497.400    502.754    497.400
 51.170    636.162    613.030     23.131    497.423    608.219    497.423    502.269    497.423
 51.270    562.000    597.526    -35.526    497.448    593.124    497.448    501.879    497.448
 51.370    621.000    582.597     38.403    497.474    578.532    497.474    501.562    497.474
 51.470    622.495    568.795     53.700    497.502    565.013    497.502    501.301    497.502
 51.570    566.000    557.240      8.760    497.530    553.696    497.530    501.086    497.530
 51.670    531.000    548.518    -17.518    497.560    545.178    497.560    500.908    497.560
 51.770    532.000    542.589    -10.589    497.591    539.424    497.591    500.762    497.591
 51.870    566.000    539.006     26.994    497.623    535.991    497.623    500.643    497.623
 51.970    559.815    537.204     22.611    497.657    534.318    497.657    500.546    497.657
 52.070    503.785    536.715    -32.930    497.692    533.939    497.692    500.470    497.692
 52.170    486.000    537.271    -51.271    497.728    534.590    497.728    500.411    497.728
 52.270    582.000    538.844     43.156    497.765    536.244    497.765    500.367    497.765
 52.370    549.000    541.702      7.298    497.803    539.169    497.803    500.338    497.803
 52.470    544.986    546.588     -1.602    497.843    544.112    497.843    500.320    497.843
 52.570    578.000    555.065     22.935    497.883    552.634    497.883    500.314    497.883
 52.670    592.000    569.988     22.012    497.925    567.594    497.925    500.319    497.925
 52.770    581.449    595.866    -14.417    497.968    593.500    497.968    500.333    497.968
 52.870    637.000    638.635     -1.635    498.013    636.289    498.013    500.355    498.013
 52.970    716.000    704.263     11.737    498.058    701.930    498.058    500.386    498.058
 53.070    844.000    795.966     48.034    498.104    793.640    498.104    500.425    498.104
 53.170    963.000    910.549     52.451    498.152    908.225    498.152    500.471    498.152
 53.270   1028.751   1034.962     -6.211    498.201   1032.637    498.201    500.524    498.201
 53.370   1143.803   1144.645     -0.842    498.250   1142.318    498.250    500.585    498.250
 53.470   1165.000   1207.806    -42.806    498.301   1205.475    498.301    500.652    498.301
 53.570   1180.000   1201.225    -21.225    498.353   1198.884    498.353    500.726    498.353
 53.670   1202.180   1127.821     74.359    498.406   1125.459    498.406    500.806    498.406
 53.770    967.000   1013.956    -46.956    498.460   1011.561    498.460    500.893    498.460
 53.870    865.000    890.683    -25.683    498.516    888.245    498.516    500.987    498.516
 53.970    806.000    780.439     25.561    498.572    777.950    498.572    501.087    498.572
 54.070    649.000    694.260    -45.260    498.629    691.713    498.629    501.195    498.629
 54.170    664.000    633.896     30.104    498.688    631.287    498.688    501.309    498.688
 54.270    609.000    595.384     13.616    498.747    592.708    498.747    501.431    498.747
 54.370    581.581    572.620      8.961    498.807    569.871    498.807    501.561    498.807
 54.470    567.000    559.883      7.117    498.869    557.056    498.869    501.698    498.869
 54.570    557.000    552.980      4.020    498.931    550.069    498.931    501.845    498.931
 54.670    583.887    549.324     34.563    498.995    546.321    498.995    502.000    498.995
 54.770    568.000    547.515     20.485    499.059    544.412    499.059    502.164    499.059
 54.870    586.254    546.876     39.378    499.124    543.663    499.124    502.339    499.124
 54.970    528.748    547.106    -18.359    499.191    543.774    499.191    502.524    499.191
 55.070    583.000    548.089     34.911    499.258    544.627    499.258    502.721    499.258
 55.170    546.125    549.801     -3.676    499.326    546.197    499.326    502.931    499.326
 55.270    588.739    552.279     36.460    499.395    548.521    499.395    503.154    499.395
 55.370    607.000    555.618     51.382    499.465    551.691    499.465    503.393    499.465
 55.470    565.000    559.998      5.002    499.536    555.887    499.536    503.648    499.536
 55.570    595.000    565.773     29.227    499.608    561.461    499.608    503.921    499.608
 55.670    615.000    573.684     41.316    499.681    569.151    499.681    504.215    499.681
 55.770    561.000    585.315    -24.315    499.755    580.540    499.755    504.530    499.755
 55.870    635.649    603.945     31.704    499.830    598.902    499.830    504.870    499.830
 55.970    630.000    635.831     -5.831    499.905    630.492    499.905    505.239    499.905
 56.070    657.000    691.599    -34.599    499.981    685.931    499.981    505.638    499.981
 56.170    790.070    786.778      3.292    500.059    780.741    500.059    506.073    500.059
 56.270    896.000    939.901    -43.901    500.137    933.455    500.137    506.548    500.137
 56.370   1176.000   1166.805      9.195    500.215   1159.904    500.215    507.068    500.215
 56.470   1444.719   1471.294    -26.575    500.295   1463.891    500.295    507.641    500.295
 56.570   1852.376   1834.790     17.586    500.376   1826.840    500.376    508.274    500.376
 56.670   2130.000   2208.994    -78.994    500.457   2200.450    500.457    508.978    500.457
 56.770   2505.000   2516.359    -11.359    500.539   2507.169    500.539    509.764    500.539
 56.870   2603.000   2668.842    -65.842    500.622   2658.934    500.622    510.646    500.622
 56.970   2575.000   2613.802    -38.802    500.706   2603.061    500.706    511.645    500.706
 57.070   2328.000   2372.699    -44.699    500.790   2360.954    500.790    512.786    500.790
 57.170   2129.000   2023.281    105.719    500.875   2010.311    500.875    514.104    500.875
 57.270   1664.000   1651.197     12.803    500.961   1636.738    500.961    515.652    500.961
 57.370   1245.328   1319.229    -73.901    501.048   1302.957    501.048    517.505    501.048
 57.470   1043.175   1059.607    -16.432    501.135   1041.099    501.135    519.777    501.135
 57.570    882.000    878.276      3.724    501.223    856.953    501.223    522.635    501.223
 57.670    799.000    764.446     34.554    501.312    739.496    501.312    526.315    501.312
 57.770    748.000    700.980     47.020    501.402    671.266    501.402    531.143    501.402
 57.870    673.000    672.149      0.851    501.492    636.115    501.492    537.537    501.492
 57.970    665.000    667.423     -2.423    501.583    623.006    501.583    546.000    501.583
 58.070    710.000    681.959     28.041    501.674    626.540    501.674    557.082    501.674
 58.170    658.939    715.178    -56.240    501.767    645.609    501.767    571.314    501.767
 58.270    718.605    768.571    -49.966    501.859    681.289    501.859    589.108    501.859
 58.370    788.000    843.361    -55.361    501.953    734.649    501.953    610.620    501.953
 58.470    994.000    938.409     55.591    502.047    804.824    502.047    635.578    502.047
 58.570   1037.000   1048.607    -11.607    502.142    887.658    502.142    663.033    502.142
 58.670   1117.000   1164.275    -47.275    502.237    975.426    502.237    691.031    502.237
 58.770   1281.000   1272.563      8.437    502.333   1058.535    502.333    716.317    502.333
 58.870   1364.341   1360.556      3.785    502.429   1128.431    502.429    734.526    502.429
 58.970   1381.000   1417.287    -36.287    502.527   1178.321    502.527    741.483    502.527
 59.070   1405.715   1434.363    -28.648    502.624   1201.644    502.624    735.353    502.624
 59.170   1405.777   1409.374     -3.597    502.722   1194.301    502.722    717.821    502.722
 59.270   1427.000   1350.248     76.752    502.821   1160.103    502.821    692.994    502.821
 59.370   1359.000   1273.737     85.263    502.920   1111.413    502.920    665.261    502.920
 59.470   1143.056   1198.642    -55.587    503.020   1063.716    503.020    637.939    503.020
 59.570   1179.000   1141.578     37.422    503.120   1031.618    503.120    613.038    503.120
 59.670   1178.000   1116.919     61.081    503.221   1028.501    503.221    591.552    503.221
 59.770   1217.000   1135.586     81.414    503.323   1064.989    503.323    573.783    503.323
 59.870   1189.719   1200.430    -10.711    503.424   1144.072    503.424    559.591    503.424
 59.970   1367.000   1301.801     65.199    503.527   1256.510    503.527    548.575    503.527
 60.070   1337.921   1416.364    -78.443    503.629   1379.506    503.629    540.208    503.629
 60.170   1487.000   1509.866    -22.866    503.732   1479.369    503.732    533.940    503.732
 60.270   1606.000   1546.287     59.713    503.836   1520.590    503.836    529.267    503.836
 60.370   1427.958   1504.798    -76.840    503.940   1482.758    503.940    525.766    503.940
 60.470   1405.000   1392.378     12.622    504.044   1373.160    504.044    523.112    504.044
 60.570   1216.271   1237.205    -20.935    504.149   1220.196    504.149    521.066    504.149
 60.670   1107.858   1071.933     35.925    504.255   1056.674    504.255    519.464    504.255
 60.770    950.000    922.191     27.809    504.360    908.336    504.360    518.194    504.360
 60.870    809.180    802.638      6.542    504.466    789.911    504.466    517.185    504.466
 60.970    662.578    717.654    -55.076    504.572    705.832    504.572    516.391    504.572
 61.070    675.000    664.687     10.313    504.679    653.580    504.679    515.780    504.679
 61.170    667.991    638.532     29.459    504.786    627.977    504.786    515.329    504.786
 61.270    647.000    634.976     12.024    504.894    624.830    504.894    515.019    504.894
 61.370    656.000    652.822      3.178    505.001    642.959    505.001    514.831    505.001
 61.470    724.000    694.056     29.944    505.109    684.377    505.109    514.738    505.109
 61.570    769.242    762.318      6.924    505.218    752.754    505.218    514.707    505.218
 61.670    905.925    860.057     45.868    505.326    850.588    505.326    514.693    505.326
 61.770    945.000    985.104    -40.104    505.435    975.769    505.435    514.638    505.435
 61.870   1158.362   1127.694     30.668    505.544   1118.588    505.544    514.490    505.544
 61.970   1259.000   1269.006    -10.006    505.654   1260.262    505.654    514.220    505.654
 62.070   1415.879   1382.403     33.476    505.763   1374.153    505.763    513.838    505.763
 62.170   1395.000   1439.740    -44.740    505.873   1432.082    505.873    513.380    505.873
 62.270   1372.000   1423.989    -51.989    505.983   1416.968    505.983    512.894    505.983
 62.370   1347.944   1339.757      8.187    506.094   1333.365    506.094    512.420    506.094
 62.470   1271.831   1210.006     61.825    506.204   1204.198    506.204    511.984    506.204
 62.570   1009.000   1063.251    -54.251    506.315   1057.963    506.315    511.600    506.315
 62.670    882.000    923.341    -41.341    506.426    918.503    506.426    511.274    506.426
 62.770    754.093    805.358    -51.265    506.537    800.902    506.537    511.006    506.537
 62.870    656.000    715.452    -59.452    506.648    711.320    506.648    510.793    506.648
 62.970    658.000    652.805      5.195    506.760    648.945    506.760    510.628    506.760
 63.070    616.000    612.547      3.453    506.871    608.917    506.871    510.504    506.871
 63.170    612.240    588.556     23.683    506.983    585.124    506.983    510.415    506.983
 63.270    578.000    575.398      2.602    507.094    572.136    507.094    510.354    507.094
 63.370    592.859    569.227     23.633    507.206    566.113    507.206    510.315    507.206
 63.470    570.894    567.948      2.946    507.318    564.964    507.318    510.294    507.318
 63.570    609.134    571.025     38.110    507.430    568.156    507.430    510.288    507.430
 63.670    599.000    579.196     19.804    507.542    576.430    507.542    510.294    507.542
 63.770    586.214    594.182     -7.968    507.655    591.506    507.655    510.310    507.655
 63.870    612.000    618.282     -6.282    507.767    615.684    507.767    510.334    507.767
 63.970    694.000    653.766     40.234    507.879    651.234    507.879    510.365    507.879
 64.070    744.000    701.994     42.006    507.992    699.519    507.992    510.403    507.992
 64.170    814.000    762.398     51.602    508.104    759.972    508.104    510.447    508.104
 64.270    859.170    831.519     27.651    508.216    829.136    508.216    510.496    508.216
 64.370    961.000    902.392     58.608    508.329    900.050    508.329    510.550    508.329
 64.470    936.198    964.759    -28.561    508.441    962.462    508.441    510.609    508.441
 64.570    983.590   1007.213    -23.623    508.553   1004.968    508.553    510.671    508.553
 64.670   1019.000   1021.599     -2.599    508.665   1019.414    508.665    510.738    508.665
 64.770    969.000   1006.619    -37.619    508.778   1004.500    508.778    510.807    508.778
 64.870    973.000    967.418      5.582    508.890    965.365    508.890    510.880    508.890
 64.970    899.000    912.798    -13.798    509.002    910.808    509.002    510.956    509.002
 65.070    844.466    852.347     -7.881    509.114    850.414    509.114    511.035    509.114
 65.170    799.502    793.905      5.597    509.226    792.020    509.226    511.117    509.226
 65.270    718.000    742.123    -24.123    509.338    740.278    509.338    511.201    509.338
 65.370    649.568    698.630    -49.062    509.450    696.815    509.450    511.288    509.450
 65.470    645.000    663.253    -18.253    509.561    661.463    509.561    511.376    509.561
 65.570    646.271    635.183     11.087    509.673    633.410    509.673    511.467    509.673
 65.670    558.000    613.455    -55.455    509.784    611.696    509.784    511.561    509.784
 65.770    640.304    597.059     43.245    509.895    595.311    509.895    511.656    509.895
 65.870    537.000    585.031    -48.031    510.006    583.293    510.006    511.753    510.006
 65.970    546.000    576.546    -30.546    510.117    574.816    510.117    511.852    510.117
 66.070    602.999    570.937     32.062    510.228    569.215    510.228    511.952    510.228
 66.170    514.000    567.676    -53.676    510.338    565.960    510.338    512.055    510.338
 66.270    575.752    566.349      9.403    510.449    564.639    510.449    512.159    510.449
 66.370    511.000    566.661    -55.661    510.559    564.954    510.559    512.265    510.559
 66.470    592.563    568.463     24.100    510.669    566.759    510.669    512.373    510.669
 66.570    562.000    571.828     -9.828    510.778    570.125    510.778    512.483    510.778
 66.670    588.760    577.179     11.581    510.888    575.474    510.888    512.594    510.888
 66.770    585.000    585.501     -0.501    510.997    583.792    510.997    512.707    510.997
 66.870    628.000    598.691     29.309    511.106    596.975    511.106    512.821    511.106
 66.970    602.000    620.002    -18.002    511.214    618.277    511.214    512.938    511.214
 67.070    601.000    654.503    -53.503    511.323    652.766    511.323    513.056    511.323
 67.170    703.295    709.296     -6.001    511.431    707.543    511.431    513.176    511.431
 67.270    773.000    793.143    -20.143    511.538    791.371    511.538    513.298    511.538
 67.370    876.000    915.133    -39.133    511.646    913.341    511.646    513.422    511.646
 67.470   1100.622   1082.212     18.410    511.753   1080.401    511.753    513.548    511.753
 67.570   1290.784   1295.864     -5.081    511.859   1294.039    511.859    513.676    511.859
 67.670   1569.000   1548.671     20.329    511.966   1546.840    511.966    513.807    511.966
 67.770   1871.000   1821.748     49.252    512.072   1819.922    512.072    513.940    512.072
 67.870   2075.562   2083.973     -8.411    512.177   2082.166    512.177    514.075    512.177
 67.970   2414.000   2294.405    119.595    512.283   2292.628    512.283    514.213    512.283
 68.070   2391.000   2410.830    -19.830    512.387   2409.087    512.387    514.354    512.387
 68.170   2351.000   2405.653    -54.653    512.492   2403.932    512.492    514.498    512.492
 68.270   2265.000   2280.278    -15.278    512.596   2278.552    512.596    514.645    512.596
 68.370   1992.000   2064.243    -72.243    512.699   2062.475    512.699    514.796    512.699
 68.470   1789.000   1800.120    -11.120    512.803   1798.278    512.803    514.951    512.803
 68.570   1547.000   1528.198     18.802    512.905   1526.259    512.905    515.110    512.905
 68.670   1216.283   1278.590    -62.307    513.008   1276.540    513.008    515.273    513.008
 68.770   1065.046   1069.154     -4.108    513.109   1066.986    513.109    515.442    513.109
 68.870    911.000    906.442      4.558    513.211    904.157    513.211    515.616    513.211
 68.970    764.000    788.380    -24.380    513.312    785.978    513.312    515.795    513.312
 69.070    726.000    707.725     18.275    513.412    705.210    513.412    515.982    513.412
 69.170    660.000    655.342      4.658    513.512    652.714    513.512    516.175    513.512
 69.270    628.000    622.572      5.428    513.611    619.829    513.611    516.377    513.611
 69.370    626.010    602.469     23.541    513.710    599.607    513.710    516.588    513.710
 69.470    579.000    590.110    -11.110    513.808    587.121    513.808    516.808    513.808
 69.570    550.000    582.333    -32.333    513.906    579.207    513.906    517.040    513.906
 69.670    571.000    577.269     -6.269    514.003    573.994    514.003    517.284    514.003
 69.770    588.236    573.888     14.348    514.100    570.450    514.100    517.542    514.100
 69.870    569.897    571.647     -1.750    514.196    568.030    514.196    517.815    514.196
 69.970    552.214    570.277    -18.063    514.292    566.464    514.292    518.107    514.292
 70.070    594.000    569.653     24.347    514.387    565.622    514.387    518.419    514.387
 70.170    620.000    569.738     50.262    514.481    565.465    514.481    518.753    514.481
 70.270    637.000    570.569     66.431    514.575    566.027    514.575    519.115    514.575
 70.370    544.000    572.276    -28.276    514.668    567.435    514.668    519.507    514.668
 70.470    597.000    575.146     21.854    514.760    569.968    514.760    519.934    514.760
 70.570    613.000    579.722     33.278    514.852    574.165    514.852    520.403    514.852
 70.670    548.000    586.975    -38.975    514.943    580.987    514.943    520.923    514.943
 70.770    643.453    598.521     44.932    515.034    592.037    515.034    521.504    515.034
 70.870    613.000    616.865     -3.865    515.123    609.805    515.123    522.164    515.123
 70.970    653.000    645.577      7.423    515.213    637.835    515.213    522.925    515.213
 71.070    636.910    689.272    -52.362    515.301    680.706    515.301    523.823    515.301
 71.170    767.000    753.214     13.786    515.389    743.629    515.389    524.911    515.389
 71.270    876.785    842.425     34.360    515.476    831.550    515.476    526.264    515.476
 71.370    960.587    960.285      0.302    515.562    947.739    515.562    527.993    515.562
 71.470   1118.000   1106.821     11.179    515.648   1092.074    515.648    530.248    515.648
 71.570   1326.980   1277.061     49.919    515.733   1259.389    515.733    533.228    515.733
 71.670   1506.000   1459.877     46.123    515.817   1438.314    515.817    537.181    515.817
 71.770   1599.000   1637.690    -38.690    515.900   1610.987    515.900    542.393    515.900
 71.870   1789.221   1787.623      1.598    515.983   1754.230    515.983    549.169    515.983
 71.970   1915.258   1885.353     29.905    516.065   1843.436    516.065    557.796    516.065
 72.070   1856.222   1912.678    -56.456    516.146   1860.182    516.146    568.490    516.146
 72.170   1867.000   1865.811      1.189    516.226   1800.591    516.226    581.332    516.226
 72.270   1723.000   1757.466    -34.466    516.306   1677.492    516.306    596.202    516.306
 72.370   1601.000   1610.387     -9.387    516.384   1514.026    516.384    612.697    516.384
 72.470   1400.000   1448.414    -48.414    516.462   1334.795    516.462    630.053    516.462
 72.570   1319.000   1290.783     28.217    516.539   1160.243    516.539    647.062    516.539
 72.670   1128.000   1149.988    -21.988    516.615   1004.549    516.615    662.043    516.615
 72.770    987.000   1031.747    -44.747    516.691    875.426    516.691    673.003    516.691
 72.870    889.000    936.326    -47.326    516.765    774.970    516.765    678.111    516.765
 72.970    795.000    860.729    -65.729    516.839    701.153    516.839    676.404    516.839
 73.070    830.960    800.902     30.058    516.912    649.561    516.912    668.241    516.912
 73.170    728.000    753.122    -25.122    516.984    614.974    516.984    655.120    516.984
 73.270    690.720    714.473    -23.753    517.055    592.492    517.055    639.025    517.055
 73.370    658.000    682.845    -24.845    517.125    578.145    517.125    621.818    517.125
 73.470    692.146    656.802     35.344    517.194    569.055    517.194    604.935    517.194
 73.570    641.000    635.425      5.575    517.263    563.334    517.263    589.351    517.263
 73.670    580.855    618.147    -37.292    517.330    559.843    517.330    575.633    517.330
 73.770    657.601    604.584     53.018    517.396    557.951    517.396    564.032    517.396
 73.870    575.000    594.404    -19.404    517.462    557.316    517.462    554.557    517.462
 73.970    570.000    587.241    -17.241    517.527    557.732    517.527    547.048    517.527
 74.070    655.000    582.655     72.345    517.590    559.014    517.590    541.248    517.590
 74.170    585.000    580.114      4.886    517.653    560.935    517.653    536.856    517.653
 74.270    631.000    579.009     51.991    517.715    563.182    517.715    533.571    517.715
 74.370    638.000    578.667     59.333    517.775    565.351    517.775    531.127    517.775
 74.470    637.000    578.398     58.602    517.835    566.973    517.835    529.301    517.835
 74.570    608.000    577.581     30.419    517.894    567.600    517.894    527.918    517.894
 74.670    641.000    575.808     65.192    517.952    566.953    517.952    526.850    517.952
 74.770    532.507    573.001    -40.494    518.009    565.046    518.009    526.006    518.009
 74.870    592.343    569.404     22.939    518.064    562.185    518.064    525.321    518.064
 74.970    600.000    565.459     34.541    518.119    558.856    518.119    524.754    518.119
 75.070    579.000    561.669     17.331    518.173    555.594    518.173    524.274    518.173
 75.170    603.000    558.533     44.467    518.226    552.915    518.226    523.863    518.226
 75.270    582.000    556.529     25.471    518.277    551.312    518.277    523.508    518.277
 75.370    609.000    556.133     52.867    518.328    551.271    518.328    523.197    518.328
 75.470    578.000    557.835     20.165    518.377    553.289    518.377    522.925    518.377
 75.570    534.589    562.140    -27.551    518.426    557.877    518.426    522.684    518.426
 75.670    589.000    569.537     19.463    518.473    565.528    518.473    522.471    518.473
 75.770    616.508    580.417     36.091    518.519    576.636    518.519    522.283    518.519
 75.870    613.000    594.947     18.053    518.565    591.371    518.565    522.115    518.565
 75.970    665.418    612.919     52.498    518.609    609.528    518.609    521.966    518.609
 76.070    636.000    633.611      2.389    518.652    630.388    518.652    521.833    518.652
 76.170    650.000    655.693     -5.693    518.694    652.621    518.694    521.714    518.694
 76.270    626.000    677.201    -51.201    518.734    674.270    518.734    521.608    518.734
 76.370    672.231    695.631    -23.401    518.774    692.830    518.774    521.512    518.774
 76.470    684.000    708.250    -24.250    518.812    705.572    518.812    521.426    518.812
 76.570    699.000    712.771    -13.771    518.850    710.209    518.850    521.349    518.850
 76.670    720.000    708.239     11.761    518.886    705.789    518.886    521.280    518.886
 76.770    668.000    695.494    -27.494    518.921    693.150    518.921    521.217    518.921
 76.870    706.140    676.749     29.391    518.955    674.505    518.955    521.160    518.955
 76.970    643.000    654.716    -11.716    518.988    652.564    518.988    521.109    518.988
 77.070    616.000    631.901    -15.901    519.019    629.836    519.019    521.062    519.019
 77.170    564.000    610.277    -46.277    519.050    608.290    519.050    521.020    519.050
 77.270    598.000    591.167      6.833    519.079    589.254    519.079    520.981    519.079
 77.370    589.000    575.268     13.732    519.107    573.421    519.107    520.946    519.107
 77.470    605.975    562.733     43.242    519.134    560.949    519.134    520.913    519.134
 77.570    550.000    553.319     -3.319    519.159    551.592    519.159    520.884    519.159
 77.670    590.629    546.546     44.083    519.184    544.871    519.184    520.856    519.184
 77.770    527.000    541.845    -14.845    519.207    540.219    519.207    520.831    519.207
 77.870    506.000    538.670    -32.670    519.229    537.090    519.229    520.808    519.229
 77.970    515.000    536.558    -21.558    519.250    535.020    519.250    520.786    519.250
 78.070    491.000    535.154    -44.154    519.269    533.656    519.269    520.766    519.269
 78.170    566.313    534.193     32.120    519.288    532.732    519.288    520.747    519.288
 78.270    522.000    533.523    -11.523    519.305    532.097    519.305    520.729    519.305
 78.370    529.000    533.076     -4.076    519.320    531.683    519.320    520.712    519.320
 78.470    528.997    532.775     -3.779    519.335    531.413    519.335    520.697    519.335
 78.570    519.000    532.592    -13.592    519.348    531.258    519.348    520.682    519.348
 78.670    516.000    532.520    -16.520    519.360    531.211    519.360    520.668    519.360
 78.770    542.000    532.564      9.436    519.371    531.279    519.371    520.655    519.371
 78.870    514.257    532.742    -18.485    519.380    531.479    519.380    520.643    519.380
 78.970    479.000    533.076    -54.076    519.388    531.831    519.388    520.632    519.388
 79.070    495.000    533.592    -38.592    519.395    532.363    519.395    520.623    519.395
 79.170    509.000    534.318    -25.318    519.401    533.101    519.401    520.616    519.401
 79.270    573.000    535.281     37.719    519.405    534.073    519.405    520.611    519.405
 79.370    490.000    536.508    -46.508    519.408    535.305    519.408    520.608    519.408
 79.470    544.759    538.026      6.732    519.410    536.824    519.410    520.609    519.410
 79.570    514.000    539.874    -25.874    519.410    538.667    519.410    520.612    519.410
 79.670    500.000    542.108    -42.108    519.409    540.892    519.409    520.620    519.409
 79.770    541.000    544.828     -3.828    519.407    543.598    519.407    520.631    519.407
 79.870    537.000    548.184    -11.184    519.403    546.935    519.403    520.647    519.403
 79.970    567.000    552.408     14.592    519.398    551.136    519.398    520.665    519.398
 80.070    556.563    557.830     -1.268    519.392    556.532    519.392    520.686    519.392
 80.170    603.749    564.880     38.869    519.384    563.552    519.384    520.709    519.384
 80.270    511.000    574.030    -63.030    519.375    572.673    519.375    520.731    519.375
 80.370    518.000    585.705    -67.705    519.365    584.322    519.365    520.750    519.365
 80.470    627.000    600.168     26.832    519.353    598.764    519.353    520.763    519.353
 80.570    611.000    617.410     -6.410    519.340    615.994    519.340    520.766    519.340
 80.670    603.212    637.075    -33.863    519.326    635.660    519.326    520.755    519.326
 80.770    635.971    658.418    -22.447    519.310    657.018    519.310    520.730    519.310
 80.870    723.737    680.334     43.403    519.293    678.964    519.293    520.689    519.293
 80.970    758.463    701.476     56.987    519.274    700.148    519.274    520.636    519.274
 81.070    695.000    720.446    -25.446    519.254    719.170    519.254    520.572    519.254
 81.170    758.000    735.985     22.015    519.233    734.764    519.233    520.501    519.233
 81.270    712.000    747.081    -35.081    519.211    745.918    519.211    520.427    519.211
 81.370    755.280    753.055      2.225    519.186    751.949    519.186    520.352    519.186
 81.470    694.000    753.627    -59.627    519.161    752.573    519.161    520.279    519.161
 81.570    770.000    748.927     21.073    519.134    747.921    519.134    520.207    519.134
 81.670    791.000    739.447     51.553    519.106    738.484    519.106    520.139    519.106
 81.770    801.000    726.021     74.979    519.076    725.093    519.076    520.073    519.076
 81.870    754.682    709.783     44.899    519.045    708.885    519.045    520.011    519.045
 81.970    637.359    692.019    -54.660    519.013    691.145    519.013    519.952    519.013
 82.070    704.000    673.897     30.103    518.979    673.043    518.979    519.896    518.979
 82.170    657.000    656.263      0.737    518.944    655.424    518.944    519.842    518.944
 82.270    649.000    639.587      9.413    518.907    638.760    518.907    519.789    518.907
 82.370    662.000    624.076     37.924    518.869    623.257    518.869    519.738    518.869
 82.470    597.000    609.830    -12.830    518.829    609.017    518.829    519.688    518.829
 82.570    615.388    596.971     18.417    518.789    596.161    518.789    519.638    518.789
 82.670    596.087    585.664     10.423    518.746    584.855    518.746    519.588    518.746
 82.770    629.919    576.084     53.836    518.702    575.274    518.702    519.538    518.702
 82.870    568.000    568.381     -0.381    518.657    567.570    518.657    519.487    518.657
 82.970    607.480    562.666     44.814    518.610    561.852    518.610    519.436    518.610
 83.070    594.000    558.993     35.007    518.562    558.176    518.562    519.384    518.562
 83.170    591.000    557.347     33.653    518.513    556.526    518.513    519.331    518.513
 83.270    518.054    557.622    -39.568    518.462    556.796    518.462    519.277    518.462
 83.370    527.000    559.606    -32.606    518.409    558.776    518.409    519.222    518.409
 83.470    562.000    562.971     -0.971    518.356    562.135    518.356    519.166    518.356
 83.570    582.019    567.273     14.747    518.300    566.432    518.300    519.109    518.300
 83.670    534.578    571.967    -37.389    518.244    571.122    518.244    519.051    518.244
 83.770    530.256    576.432    -46.177    518.185    575.584    518.185    518.992    518.185
 83.870    556.000    580.022    -24.022    518.126    579.171    518.126    518.932    518.126
 83.970    538.000    582.144    -44.144    518.065    581.293    518.065    518.871    518.065
 84.070    617.035    582.387     34.648    518.002    581.536    518.002    518.809    518.002
 84.170    629.585    580.622     48.963    517.938    579.773    517.938    518.745    517.938
 84.270    621.000    577.041     43.959    517.873    576.196    517.873    518.681    517.873
 84.370    551.000    572.073    -21.073    517.806    571.231    517.806    518.615    517.806
 84.470    614.000    566.252     47.748    517.738    565.414    517.738    518.548    517.738
 84.570    544.153    560.109    -15.956    517.668    559.274    517.668    518.480    517.668
 84.670    608.000    554.099     53.901    517.597    553.266    517.597    518.410    517.597
 84.770    558.000    548.568      9.432    517.524    547.737    517.524    518.340    517.524
 84.870    585.929    543.745     42.184    517.450    542.915    517.450    518.268    517.450
 84.970    514.871    539.742    -24.871    517.374    538.912    517.374    518.195    517.374
 85.070    520.000    536.577    -16.577    517.297    535.745    517.297    518.122    517.297
 85.170    553.000    534.194     18.806    517.219    533.360    517.219    518.046    517.219
 85.270    506.000    532.499    -26.499    517.139    531.662    517.139    517.970    517.139
 85.370    500.517    531.383    -30.867    517.057    530.543    517.057    517.893    517.057
 85.470    568.000    530.748     37.252    516.974    529.904    516.974    517.814    516.974
 85.570    531.000    530.517      0.483    516.890    529.668    516.890    517.735    516.890
 85.670    515.000    530.650    -15.650    516.804    529.795    516.804    517.654    516.804
 85.770    554.000    531.144     22.856    516.717    530.282    516.717    517.572    516.717
 85.870    563.931    532.041     31.891    516.628    531.172    516.628    517.489    516.628
 85.970    560.000    533.424     26.576    516.538    532.548    516.538    517.405    516.538
 86.070    469.000    535.418    -66.418    516.447    534.532    516.447    517.319    516.447
 86.170    539.000    538.177      0.823    516.354    537.281    516.354    517.233    516.354
 86.270    571.000    541.877     29.123    516.259    540.970    516.259    517.145    516.259
 86.370    532.000    546.693    -14.693    516.163    545.772    516.163    517.057    516.163
 86.470    581.000    552.770     28.230    516.066    551.833    516.066    516.967    516.066
 86.570    609.940    560.193     49.747    515.967    559.239    515.967    516.877    515.967
 86.670    630.000    568.948     61.052    515.867    567.975    515.867    516.785    515.867
 86.770    631.000    578.883     52.117    515.765    577.890    515.765    516.693    515.765
 86.870    627.000    589.688     37.312    515.662    588.673    515.662    516.599    515.662
 86.970    556.660    600.872    -44.211    515.557    599.835    515.557    516.504    515.557
 87.070    623.000    611.772     11.228    515.451    610.714    515.451    516.409    515.451
 87.170    620.000    621.580     -1.580    515.344    620.503    515.344    516.313    515.344
 87.270    667.000    629.414     37.586    515.235    628.320    515.235    516.215    515.235
 87.370    672.000    634.458     37.542    515.125    633.350    515.125    516.117    515.125
 87.470    671.358    636.150     35.208    515.013    635.032    515.013    516.018    515.013
 87.570    582.589    634.350    -51.762    514.900    633.225    514.900    515.918    514.900
 87.670    639.000    629.383      9.617    514.785    628.254    514.785    515.818    514.785
 87.770    654.000    621.939     32.061    514.669    620.807    514.669    515.717    514.669
 87.870    617.599    612.901      4.698    514.552    611.767    514.552    515.615    514.552
 87.970    632.000    603.202     28.798    514.433    602.065    514.433    515.512    514.433
 88.070    560.862    593.719    -32.858    514.313    592.578    514.313    515.409    514.313
 88.170    618.050    585.215     32.834    514.191    584.068    514.191    515.306    514.191
 88.270    597.462    578.292     19.170    514.068    577.136    514.068    515.202    514.068
 88.370    620.000    573.365     46.635    513.944    572.199    513.944    515.097    513.944
 88.470    607.766    570.650     37.116    513.818    569.472    513.818    514.992    513.818
 88.570    603.000    570.200     32.800    513.691    569.009    513.691    514.887    513.691
 88.670    616.420    571.878     44.542    513.562    570.671    513.562    514.782    513.562
 88.770    659.000    575.371     83.629    513.432    574.147    513.432    514.677    513.432
 88.870    604.000    580.232     23.768    513.301    578.989    513.301    514.571    513.301
 88.970    531.599    585.895    -54.296    513.168    584.633    513.168    514.466    513.168
 89.070    632.424    591.710     40.715    513.034    590.426    513.034    514.361    513.034
 89.170    579.000    596.971    -17.971    512.898    595.663    512.898    514.257    512.898
 89.270    631.000    600.986     30.014    512.761    599.651    512.761    514.153    512.761
 89.370    610.721    603.161      7.560    512.623    601.794    512.623    514.050    512.623
 89.470    597.000    603.112     -6.112    512.483    601.711    512.483    513.948    512.483
 89.570    587.000    600.757    -13.757    512.342    599.316    512.342    513.846    512.342
 89.670    570.000    596.317    -26.317    512.200    594.832    512.200    513.747    512.200
 89.770    555.802    590.243    -34.440    512.057    588.708    512.057    513.648    512.057
 89.870    635.603    583.091     52.513    511.912    581.502    511.912    513.552    511.912
 89.970    560.000    575.426    -15.426    511.765    573.779    511.765    513.458    511.765
 90.070    574.456    567.753      6.703    511.618    566.043    511.618    513.367    511.618
 90.170    533.000    560.480    -27.480    511.469    558.702    511.469    513.279    511.469
 90.270    527.256    553.904    -26.648    511.318    552.053    511.318    513.195    511.318
 90.370    551.000    548.213      2.787    511.167    546.284    511.167    513.116    511.167
 90.470    524.000    543.489    -19.489    511.014    541.476    511.014    513.042    511.014
 90.570    575.084    539.732     35.352    510.860    537.627    510.860    512.976    510.860
 90.670    572.229    536.880     35.349    510.704    534.673    510.704    512.919    510.704
 90.770    513.000    534.835    -21.835    510.547    532.514    510.547    512.874    510.547
 90.870    579.295    533.487     45.807    510.389    531.037    510.389    512.843    510.389
 90.970    486.000    532.733    -46.733    510.230    530.134    510.230    512.830    510.230
 91.070    503.108    532.491    -29.384    510.069    529.720    510.069    512.841    510.069
 91.170    549.827    532.714     17.113    509.908    529.738    509.908    512.882    509.908
 91.270    503.000    533.393    -30.393    509.744    530.174    509.744    512.961    509.744
 91.370    557.753    534.559     23.193    509.580    531.049    509.580    513.087    509.580
 91.470    511.000    536.291    -25.291    509.415    532.430    509.415    513.271    509.415
 91.570    514.000    538.711    -24.711    509.248    534.427    509.248    513.526    509.248
 91.670    525.000    541.987    -16.987    509.080    537.193    509.080    513.866    509.080
 91.770    587.492    546.308     41.183    508.910    540.903    508.910    514.305    508.910
 91.870    538.000    551.860    -13.860    508.740    545.726    508.740    514.860    508.740
 91.970    555.000    558.940     -3.940    508.568    551.946    508.568    515.545    508.568
 92.070    621.562    567.755     53.808    508.395    559.755    508.395    516.373    508.395
 92.170    607.000    578.467     28.533    508.221    569.305    508.221    517.355    508.221
 92.270    565.000    591.187    -26.187    508.046    580.702    508.046    518.497    508.046
 92.370    601.000    605.936     -4.936    507.870    593.966    507.870    519.800    507.870
 92.470    619.000    622.618     -3.618    507.692    609.006    507.692    521.257    507.692
 92.570    623.000    641.000    -18.000    507.514    625.607    507.514    522.853    507.514
 92.670    686.000    660.701     25.299    507.334    643.413    507.334    524.560    507.334
 92.770    719.000    681.188     37.812    507.153    661.932    507.153    526.341    507.153
 92.870    746.319    701.800     44.519    506.971    680.557    506.971    528.141    506.971
 92.970    785.070    721.793     63.276    506.787    698.614    506.787    529.889    506.787
 93.070    724.000    740.442    -16.442    506.603    715.466    506.603    531.498    506.603
 93.170    726.000    757.174    -31.174    506.418    730.644    506.418    532.867    506.418
 93.270    760.066    771.671    -11.605    506.231    743.935    506.231    533.887    506.231
 93.370    865.000    783.889     81.111    506.043    755.391    506.043    534.462    506.043
 93.470    814.000    794.013     19.987    505.855    765.264    505.855    534.526    505.855
 93.570    786.419    802.365    -15.946    505.665    773.899    505.665    534.055    505.665
 93.670    819.000    809.338      9.662    505.474    781.660    505.474    533.079    505.474
 93.770    793.468    815.385    -21.917    505.282    788.925    505.282    531.672    505.282
 93.870    842.507    821.036     21.471    505.090    796.127    505.090    529.931    505.090
 93.970    828.000    826.895      1.105    504.896    803.761    504.896    527.965    504.896
 94.070    826.732    833.555     -6.824    504.701    812.320    504.701    525.873    504.701
 94.170    802.718    841.440    -38.723    504.505    822.143    504.505    523.742    504.505
 94.270    834.432    850.640    -16.208    504.308    833.251    504.308    521.639    504.308
 94.370    812.314    860.804    -48.491    504.110    845.242    504.110    519.618    504.110
 94.470    887.501    871.122     16.379    503.911    857.269    503.911    517.713    503.911
 94.570    930.000    880.383     49.617    503.712    868.097    503.712    515.951    503.712
 94.670    938.481    887.118     51.362    503.511    876.243    503.511    514.346    503.511
 94.770    934.000    889.810     44.190    503.309    880.183    503.309    512.904    503.309
 94.870    888.000    887.180      0.820    503.107    878.641    503.107    511.622    503.107
 94.970    918.000    878.489     39.511    502.903    870.883    502.903    510.494    502.903
 95.070    906.589    863.739     42.851    502.699    856.920    502.699    509.510    502.699
 95.170    830.000    843.689    -13.689    502.494    837.527    502.494    508.656    502.494
 95.270    888.000    819.702     68.298    502.288    814.079    502.288    507.917    502.288
 95.370    819.000    793.504     25.496    502.081    788.316    502.081    507.277    502.081
 95.470    751.550    766.967    -15.417    501.873    762.127    501.873    506.723    501.873
 95.570    700.050    741.960    -41.909    501.664    737.393    501.664    506.241    501.664
 95.670    750.818    720.242     30.576    501.455    715.887    501.455    505.818    501.455
 95.770    745.520    703.408     42.112    501.244    699.213    501.244    505.443    501.244
 95.870    680.000    692.844    -12.844    501.033    688.768    501.033    505.108    501.033
 95.970    682.000    689.773     -7.773    500.821    685.781    500.821    504.806    500.821
 96.070    730.095    695.175     34.920    500.609    691.237    500.609    504.530    500.609
 96.170    654.007    709.816    -55.810    500.395    705.910    500.395    504.276    500.395
 96.270    714.000    734.242    -20.242    500.181    730.347    500.181    504.041    500.181
 96.370    765.000    768.728     -3.728    499.966    764.826    499.966    503.821    499.966
 96.470    865.811    813.214     52.597    499.751    809.291    499.751    503.616    499.751
 96.570    862.000    867.222     -5.222    499.535    863.264    499.535    503.423    499.535
 96.670    986.000    929.765     56.235    499.318    925.761    499.318    503.242    499.318
 96.770   1043.588    999.266     44.321    499.100    995.206    499.100    503.071    499.100
 96.870   1127.000   1073.517     53.483    498.882   1069.391    498.882    502.911    498.882
 96.970   1126.000   1149.652    -23.652    498.663   1145.452    498.663    502.763    498.663
 97.070   1299.410   1224.198     75.212    498.443   1219.915    498.443    502.627    498.443
 97.170   1376.329   1293.179     83.150    498.223   1288.805    498.223    502.501    498.223
 97.270   1413.000   1352.353     60.647    498.002   1347.880    498.002    502.388    498.002
 97.370   1331.277   1397.613    -66.336    497.781   1393.033    497.781    502.288    497.781
 97.470   1378.153   1425.561    -47.408    497.559   1420.862    497.559    502.202    497.559
 97.570   1467.000   1434.119     32.881    497.337   1429.288    497.337    502.131    497.337
 97.670   1381.542   1422.949    -41.407    497.114   1417.970    497.114    502.078    497.114
 97.770   1343.000   1393.476    -50.476    496.890   1388.327    496.890    502.045    496.890
 97.870   1321.253   1348.512    -27.259    496.666   1343.167    496.666    502.034    496.666
 97.970   1235.000   1291.711    -56.711    496.442   1286.139    496.442    502.051    496.442
 98.070   1260.000   1227.064     32.936    496.217   1221.229    496.217    502.099    496.217
 98.170   1159.000   1158.537      0.463    495.991   1152.395    495.991    502.187    495.991
 98.270   1110.000   1089.841     20.159    495.765   1083.339    495.765    502.322    495.765
 98.370   1015.000   1024.301     -9.301    495.539   1017.377    495.539    502.517    495.539
 98.470    980.000    964.772     15.228    495.312    957.349    495.312    502.784    495.312
 98.570    914.613    913.622      0.991    495.085    905.608    495.085    503.142    495.085
 98.670    820.000    872.748    -52.748    494.858    864.028    494.858    503.612    494.858
 98.770    829.000    843.611    -14.611    494.630    834.046    494.630    504.220    494.630
 98.870    887.586    827.293     60.292    494.402    816.716    494.402    504.996    494.402
 98.970    842.000    824.564     17.436    494.174    812.769    494.174    505.975    494.174
 99.070    794.718    835.929    -41.211    493.945    822.674    493.945    507.197    493.945
 99.170    900.796    861.659     39.137    493.716    846.659    493.716    508.706    493.716
 99.270    875.000    901.788    -26.788    493.487    884.711    493.487    510.547    493.487
 99.370    966.000    956.075      9.925    493.257    936.542    493.257    512.768    493.257
 99.470   1038.000   1023.943     14.057    493.027   1001.531    493.027    515.416    493.027
 99.570   1121.000   1104.395     16.605    492.797   1078.637    492.797    518.532    492.797
 99.670   1232.000   1195.922     36.078    492.567   1166.318    492.567    522.152    492.567
 99.770   1394.000   1296.474     97.526    492.337   1262.498    492.337    526.301    492.337
 99.870   1405.000   1403.355      1.645    492.107   1364.472    492.107    530.989    492.107
 99.970   1627.000   1513.236    113.764    491.876   1468.917    491.876    536.208    491.876
100.070   1636.202   1622.248     13.954    491.645   1571.997    491.645    541.929    491.645
100.170   1727.113   1726.174      0.939    491.415   1669.547    491.415    548.095    491.415
100.270   1850.000   1820.759     29.241    491.184   1757.399    491.184    554.622    491.184
100.370   1917.000   1902.091     14.909    490.953   1831.758    490.953    561.389    490.953
100.470   1913.640   1966.913    -53.273    490.722   1889.525    490.722    568.238    490.722
100.570   1999.000   2012.771    -13.771    490.491   1928.445    490.491    574.970    490.491
100.670   1948.290   2037.999    -89.708    490.260   1947.090    490.260    581.342    490.260
100.770   2145.740   2041.670    104.070    490.030   1944.815    490.030    587.074    490.030
100.870   2078.000   2023.696     54.304    489.799   1921.834    489.799    591.863    489.799
100.970   2020.000   1985.049     34.951    489.568   1879.415    489.568    595.411    489.568
101.070   1931.433   1927.974      3.458    489.337   1820.061    489.337    597.463    489.337
101.170   1805.000   1855.982    -50.982    489.107   1747.448    489.107    597.850    489.107
101.270   1755.283   1773.514    -18.230    488.877   1666.065    488.877    596.527    488.877
101.370   1672.000   1685.416    -13.416    488.646   1580.677    488.646    593.577    488.646
101.470   1520.662   1596.382    -75.720    488.416   1495.780    488.416    589.196    488.416
101.570   1472.000   1510.518    -38.518    488.187   1415.210    488.187    583.657    488.187
101.670   1400.550   1431.077    -30.526    487.957   1341.916    487.957    577.264    487.957
101.770   1340.000   1360.330    -20.330    487.728   1277.872    487.728    570.317    487.728
101.870   1255.000   1299.540    -44.540    487.499   1224.072    487.499    563.084    487.499
101.970   1190.000   1249.004    -59.004    487.270   1180.581    487.270    555.798    487.270
102.070   1161.000   1208.135    -47.135    487.042   1146.628    487.042    548.644    487.042
102.170   1109.000   1175.596    -66.596    486.814   1120.729    486.814    541.769    486.814
102.270   1064.000   1149.460    -85.460    486.586   1100.845    486.586    535.284    486.586
102.370   1058.000   1127.414    -69.414    486.359   1084.589    486.359    529.264    486.359
102.470   1070.000   1107.016    -37.016    486.132   1069.471    486.132    523.757    486.132
102.570   1071.000   1085.992    -14.992    485.905   1053.191    485.905    518.787    485.905
102.670   1121.000   1062.524     58.476    485.679   1033.929    485.679    514.356    485.679
102.770   1089.000   1035.473     53.527    485.454   1010.562    485.454    510.448    485.454
102.870    951.000   1004.449    -53.449    485.229    982.726    485.229    507.035    485.229
102.970   1009.226    969.732     39.494    485.004    950.738    485.004    504.080    485.004
103.070    922.549    932.082     -9.533    484.780    915.404    484.780    501.539    484.780
103.170    886.000    892.535     -6.535    484.557    877.804    484.557    499.364    484.557
103.270    843.355    852.224     -8.869    484.334    839.120    484.334    497.510    484.334
103.370    833.000    812.256     20.744    484.112    800.505    484.112    495.930    484.112
103.470    833.422    773.633     59.789    483.891    763.002    483.891    494.581    483.891
103.570    709.000    737.194    -28.194    483.670    727.493    483.670    493.424    483.670
103.670    738.000    703.595     34.405    483.450    694.663    483.450    492.428    483.450
103.770    659.291    673.285    -13.994    483.231    664.993    483.231    491.563    483.231
103.870    658.000    646.513     11.487    483.013    638.755    483.013    490.804    483.013
103.970    620.000    623.342     -3.342    482.795    616.033    482.795    490.131    482.795
104.070    611.275    603.678      7.597    482.578    596.750    482.578    489.528    482.578
104.170    615.000    587.305     27.695    482.362    580.705    482.362    488.981    482.362
104.270    567.000    573.925     -6.925    482.147    567.606    482.147    488.479    482.147
104.370    529.977    563.189    -33.212    481.933    557.116    481.933    488.016    481.933
104.470    538.661    554.735    -16.074    481.719    548.878    481.719    487.583    481.719
104.570    573.735    548.211     25.524    481.507    542.546    481.507    487.177    481.507
104.670    488.987    543.299    -54.312    481.296    537.804    481.296    486.794    481.296
104.770    493.470    539.725    -46.255    481.085    534.382    481.085    486.430    481.085
104.870    566.245    537.262     28.983    480.876    532.055    480.876    486.083    480.876
104.970    562.000    535.738     26.262    480.668    530.652    480.668    485.752    480.668
105.070    566.000    535.031     30.969    480.461    530.055    480.461    485.434    480.461
105.170    561.016    535.064     25.952    480.255    530.184    480.255    485.130    480.255
105.270    547.000    535.822     11.178    480.050    531.029    480.050    484.837    480.050
105.370    540.939    537.313      3.626    479.846    532.596    479.846    484.555    479.846
105.470    542.000    539.580      2.420    479.644    534.930    479.644    484.283    479.644
105.570    529.000    542.694    -13.694    479.442    538.102    479.442    484.022    479.442
105.670    538.000    546.739     -8.739    479.242    542.198    479.242    483.769    479.242
105.770    596.000    551.807     44.193    479.044    547.309    479.044    483.525    479.044
105.870    584.791    557.976     26.814    478.846    553.513    478.846    483.290    478.846
105.970    554.189    565.303    -11.114    478.651    560.868    478.651    483.063    478.651
106.070    567.634    573.804     -6.171    478.456    569.391    478.456    482.844    478.456
106.170    583.000    583.451     -0.451    478.263    579.054    478.263    482.632    478.263
106.270    594.451    594.156      0.295    478.071    589.767    478.071    482.427    478.071
106.370    584.892    605.767    -20.875    477.881    601.382    477.881    482.230    477.881
106.470    670.000    618.070     51.930    477.692    613.684    477.692    482.040    477.692
106.570    645.090    630.789     14.301    477.505    626.395    477.505    481.858    477.505
106.670    653.000    643.589      9.411    477.320    639.184    477.320    481.682    477.320
106.770    658.000    656.093      1.907    477.136    651.672    477.136    481.512    477.136
106.870    609.241    667.893    -58.652    476.953    663.451    476.953    481.350    476.953
106.970    665.000    678.577    -13.577    476.773    674.110    476.773    481.195    476.773
107.070    678.469    687.765     -9.296    476.594    683.268    476.594    481.046    476.594
107.170    680.000    695.157    -15.157    476.417    690.626    476.417    480.905    476.417
107.270    713.000    700.579     12.421    476.241    696.010    476.241    480.770    476.241
107.370    721.000    704.023     16.977    476.068    699.412    476.068    480.642    476.068
107.470    706.000    705.653      0.347    475.896    700.994    475.896    480.522    475.896
107.570    657.000    705.780    -48.780    475.726    701.069    475.726    480.409    475.726
107.670    706.000    704.810      1.190    475.558    700.041    475.558    480.303    475.558
107.770    711.000    703.180      7.820    475.392    698.348    475.392    480.205    475.392
107.870    744.278    701.305     42.974    475.228    696.403    475.228    480.114    475.228
107.970    678.000    699.531    -21.531    475.066    694.554    475.066    480.032    475.066
108.070    687.000    698.114    -11.114    474.906    693.055    474.906    479.957    474.906
108.170    702.000    697.194      4.806    474.748    692.047    474.748    479.891    474.748
108.270    691.000    696.795     -5.795    474.592    691.553    474.592    479.834    474.592
108.370    668.000    696.818    -28.818    474.438    691.474    474.438    479.786    474.438
108.470    730.259    697.056     33.203    474.287    691.603    474.287    479.747    474.287
108.570    644.008    697.205    -53.197    474.137    691.635    474.137    479.718    474.137
108.670    668.000    696.895    -28.895    473.990    691.200    473.990    479.698    473.990
108.770    688.000    695.734     -7.734    473.846    689.905    473.846    479.690    473.846
108.870    728.179    693.361     34.818    473.703    687.390    473.703    479.693    473.703
108.970    745.529    689.501     56.029    473.563    683.377    473.563    479.707    473.563
109.070    636.064    684.006    -47.942    473.425    677.720    473.425    479.733    473.425
109.170    686.000    676.880      9.120    473.290    670.420    473.290    479.772    473.290
109.270    651.000    668.263    -17.263    473.158    661.618    473.158    479.825    473.158
109.370    710.365    658.405     51.960    473.027    651.562    473.027    479.893    473.027
109.470    649.000    647.617      1.383    472.900    640.564    472.900    479.975    472.900
109.570    650.000    636.243     13.757    472.774    628.964    472.774    480.074    472.774
109.670    608.000    624.620    -16.620    472.652    617.101    472.652    480.190    472.652
109.770    666.000    613.067     52.933    472.532    605.291    472.532    480.326    472.532
109.870    584.439    601.868    -17.429    472.415    593.817    472.415    480.482    472.415
109.970    593.807    591.266      2.541    472.301    582.920    472.301    480.661    472.301
110.070    608.384    581.455     26.929    472.189    572.791    472.189    480.864    472.189
110.170    529.095    572.580    -43.485    472.080    563.575    472.080    481.095    472.080
110.270    550.450    564.741    -14.291    471.974    555.366    471.974    481.357    471.974
110.370    548.281    557.989     -9.708    471.871    548.212    471.871    481.655    471.871
110.470    575.000    552.333     22.667    471.771    542.116    471.771    481.992    471.771
110.570    536.000    547.727    -11.727    471.674    537.028    471.674    482.375    471.674
110.670    498.000    544.151    -46.151    471.579    532.919    471.579    482.812    471.579
110.770    504.059    541.556    -37.498    471.488    529.732    471.488    483.312    471.488
110.870    561.000    539.843     21.157    471.400    527.356    471.400    483.885    471.400
110.970    516.101    538.925    -22.824    471.315    525.693    471.315    484.544    471.315
111.070    508.000    538.721    -30.721    471.234    524.645    471.234    485.306    471.234
111.170    558.598    539.157     19.441    471.155    524.118    471.155    486.188    471.155
111.270    555.842    540.165     15.677    471.080    524.026    471.080    487.213    471.080
111.370    548.000    541.694      6.306    471.008    524.288    471.008    488.406    471.008
111.470    531.000    543.702    -12.702    470.939    524.837    470.939    489.796    470.939
111.570    557.247    546.166     11.082    470.874    525.614    470.874    491.417    470.874
111.670    570.000    549.073     20.927    470.812    526.570    470.812    493.306    470.812
111.770    559.000    552.429      6.571    470.754    527.668    470.754    495.505    470.754
111.870    521.000    556.251    -35.251    470.699    528.881    470.699    498.058    470.699
111.970    514.837    560.574    -45.736    470.647    530.195    470.647    501.016    470.647
112.070    562.000    565.442     -3.442    470.600    531.604    470.600    504.427    470.600
112.170    525.000    570.915    -45.915    470.555    533.114    470.555    508.345    470.555
112.270    559.000    577.058    -18.058    470.515    534.738    470.515    512.822    470.515
112.370    549.000    583.946    -34.946    470.478    536.502    470.478    517.910    470.478
112.470    590.000    591.659     -1.659    470.445    538.437    470.445    523.654    470.445
112.570    587.196    600.279    -13.083    470.416    540.584    470.416    530.097    470.416
112.670    631.224    609.893     21.332    470.391    542.996    470.391    537.273    470.391
112.770    608.000    620.589    -12.589    470.369    545.740    470.369    545.203    470.369
112.870    630.059    632.464     -2.405    470.352    548.901    470.352    553.897    470.352
112.970    655.102    645.622      9.480    470.338    552.593    470.338    563.349    470.338
113.070    696.352    660.186     36.166    470.329    556.961    470.329    573.534    470.329
113.170    654.000    676.300    -22.300    470.323    562.196    470.323    584.406    470.323
113.270    727.000    694.147     32.853    470.322    568.552    470.322    595.893    470.322
113.370    765.102    713.957     51.145    470.325    576.355    470.325    607.901    470.325
113.470    683.086    736.032    -52.946    470.332    586.029    470.332    620.305    470.332
113.570    762.947    760.756      2.191    470.344    598.118    470.344    632.948    470.344
113.670    778.000    788.628    -10.628    470.359    613.307    470.359    645.640    470.359
113.770    838.000    820.277     17.723    470.379    632.454    470.379    658.157    470.379
113.870    866.000    856.495      9.505    470.404    656.607    470.404    670.237    470.404
113.970    952.225    898.257     53.968    470.432    687.037    470.432    681.588    470.432
114.070    922.000    946.751    -24.751    470.466    725.250    470.466    691.891    470.466
114.170    936.098   1003.396    -67.298    470.504    772.994    470.504    700.815    470.504
114.270   1046.000   1069.862    -23.862    470.546    832.264    470.546    708.036    470.546
114.370   1171.000   1148.076     22.924    470.593    905.275    470.593    713.265    470.593
114.470   1328.000   1240.211     87.789    470.645    994.425    470.645    716.278    470.645
114.570   1288.942   1348.649    -59.706    470.701   1102.230    470.701    716.937    470.701
114.670   1541.000   1475.907     65.093    470.763   1231.239    470.763    715.215    470.763
114.770   1744.000   1624.529    119.471    470.829   1383.910    470.829    711.195    470.829
114.870   1905.000   1796.929    108.071    470.900   1562.477    470.900    705.059    470.900
114.970   2164.000   1995.209    168.791    470.976   1768.780    470.976    697.068    470.976
115.070   2227.587   2220.948      6.639    471.057   2004.089    471.057    687.531    471.057
115.170   2546.000   2474.994     71.006    471.143   2268.926    471.143    676.778    471.143
115.270   2828.826   2757.260     71.566    471.234   2562.878    471.234    665.134    471.234
115.370   3135.325   3066.557     68.768    471.330   2884.444    471.330    652.914    471.330
115.470   3505.000   3400.439    104.561    471.431   3230.906    471.431    640.392    471.431
115.570   3647.938   3755.122   -107.184    471.538   3598.238    471.538    627.811    471.538
115.670   4115.000   4125.447    -10.447    471.649   3981.075    471.649    615.379    471.649
115.770   4592.000   4504.903     87.097    471.766   4372.738    471.766    603.268    471.766
115.870   4759.000   4885.718   -126.718    471.889   4765.313    471.889    591.620    471.889
115.970   5382.000   5259.004    122.996    472.017   5149.806    472.017    580.545    472.017
116.070   5717.355   5614.988    102.367    472.150   5516.361    472.150    570.125    472.150
116.170   6039.000   5943.311     95.689    472.289   5854.563    472.289    560.419    472.289
116.270   6327.000   6233.433     93.567    472.434   6153.837    472.434    551.463    472.434
116.370   6625.000   6475.155    149.845    472.584   6403.968    472.584    543.271    472.584
116.470   6654.000   6659.261     -5.261    472.740   6595.740    472.740    535.842    472.740
116.570   6820.272   6778.244     42.028    472.902   6721.660    472.902    529.159    472.902
116.670   6922.706   6827.003     95.703    473.069   6776.659    473.069    523.189    473.069
116.770   6805.578   6803.415      2.163    473.243   6758.634    473.243    517.907    473.243
116.870   6792.000   6708.532     83.468    473.422   6668.680    473.422    513.261    473.422
116.970   6452.000   6546.467    -94.467    473.607   6510.958    473.607    509.204    473.607
117.070   6282.000   6323.922    -41.922    473.798   6292.216    473.798    505.682    473.798
117.170   5994.670   6049.509    -54.839    473.996   6021.118    473.996    502.643    473.996
117.270   5616.836   5733.030   -116.194    474.199   5707.514    474.199    500.036    474.199
117.370   5156.000   5384.803   -228.803    474.409   5361.770    474.409    497.811    474.409
117.470   4945.505   5015.115    -69.611    474.624   4994.223    474.624    495.920    474.624
117.570   4496.000   4633.793   -137.793    474.847   4614.741    474.847    494.321    474.847
117.670   4238.000   4249.878    -11.878    475.075   4232.408    475.075    492.974    475.075
117.770   3818.000   3871.381    -53.381    475.310   3855.270    475.310    491.843    475.310
117.870   3482.000   3505.142    -23.142    475.551   3490.201    475.551    490.898    475.551
117.970   3177.000   3156.766     20.234    475.799   3142.836    475.799    490.112    475.799
118.070   2877.400   2830.505     46.895    476.054   2817.451    476.054    489.460    476.054
118.170   2526.000   2529.368     -3.368    476.315   2517.079    476.315    488.923    476.315
118.270   2195.009   2255.187    -60.178    476.583   2243.569    476.583    488.483    476.583
118.370   2072.784   2008.737     64.047    476.857   1997.712    476.857    488.127    476.857
118.470   1689.000   1789.881   -100.881    477.138   1779.386    477.138    487.843    477.138
118.570   1527.085   1597.734    -70.649    477.427   1587.715    477.427    487.621    477.427
118.670   1460.000   1430.828     29.172    477.722   1421.242    477.722    487.452    477.722
118.770   1215.000   1287.275    -72.275    478.024   1278.083    478.024    487.331    478.024
118.870   1204.086   1164.919     39.167    478.333   1156.090    478.333    487.253    478.333
118.970   1103.000   1061.473     41.527    478.649   1052.980    478.649    487.212    478.649
119.070   1041.482    974.633     66.848    478.973    966.453    478.973    487.206    478.973
119.170    874.709    902.174    -27.465    479.303    894.285    479.303    487.231    479.303
119.270    781.000    842.011    -61.011    479.641    834.393    479.641    487.286    479.641
119.370    817.000    792.246     24.754    479.986    784.883    479.986    487.368    479.986
119.470    756.000    751.194      4.806    480.339    744.069    480.339    487.477    480.339
119.570    734.000    717.388     16.612    480.699    710.484    480.699    487.610    480.699
119.670    677.233    689.573    -12.340    481.067    682.876    481.067    487.769    481.067
119.770    646.000    666.697    -20.697    481.442    660.191    481.442    487.950    481.442
119.870    657.000    647.884      9.116    481.825    641.556    481.825    488.155    481.825
119.970    640.000    632.422      7.578    482.215    626.256    482.215    488.383    482.215
120.070    651.251    619.731     31.519    482.614    613.713    482.614    488.633    482.614
120.170    629.000    609.348     19.652    483.020    603.463    483.020    488.907    483.020
120.270    582.000    600.904    -18.904    483.434    595.137    483.434    489.202    483.434
120.370    584.000    594.106    -10.106    483.856    588.443    483.856    489.521    483.856
120.470    589.421    588.725      0.697    484.286    583.150    484.286    489.863    484.286
120.570    585.000    584.580      0.420    484.724    579.079    484.724    490.227    484.724
120.670    611.000    581.530     29.470    485.170    576.088    485.170    490.616    485.170
120.770    603.958    579.463     24.495    485.625    574.065    485.625    491.027    485.625
120.870    559.000    578.290    -19.290    486.087    572.920    486.087    491.463    486.087
120.970    616.000    577.939     38.061    486.558    572.582    486.558    491.922    486.558
121.070    569.000    578.350     -9.350    487.038    572.990    487.038    492.405    487.038
121.170    579.040    579.469     -0.428    487.526    574.091    487.526    492.912    487.526
121.270    587.000    581.244      5.756    488.022    575.834    488.022    493.443    488.022
121.370    572.000    583.627    -11.627    488.527    578.168    488.527    493.998    488.527
121.470    611.000    586.563     24.437    489.041    581.043    489.041    494.575    489.041
121.570    573.000    589.996    -16.996    489.563    584.400    489.563    495.175    489.563
121.670    572.000    593.862    -21.862    490.094    588.178    490.094    495.797    490.094
121.770    582.000    598.090    -16.090    490.634    592.306    490.634    496.439    490.634
121.870    602.153    602.602     -0.448    491.183    596.708    491.183    497.100    491.183
121.970    620.000    607.310     12.690    491.741    601.297    491.741    497.779    491.741
122.070    636.000    612.119     23.881    492.308    605.982    492.308    498.474    492.308
122.170    649.000    616.930     32.070    492.885    610.663    492.885    499.182    492.885
122.270    621.000    621.634     -0.634    493.470    615.236    493.470    499.902    493.470
122.370    659.357    626.122     33.235    494.064    619.593    494.064    500.629    494.064
122.470    638.000    630.284      7.716    494.668    623.629    494.668    501.362    494.668
122.570    645.000    634.015     10.985    495.282    627.240    495.282    502.097    495.282
122.670    687.657    637.216     50.441    495.905    630.334    495.905    502.830    495.905
122.770    616.358    639.807    -23.449    496.537    632.831    496.537    503.557    496.537
122.870    642.525    641.724      0.800    497.179    634.674    497.179    504.274    497.179
122.970    613.000    642.930    -29.930    497.830    635.828    497.830    504.978    497.830
123.070    653.000    643.410      9.590    498.492    636.282    498.492    505.666    498.492
123.170    627.385    643.179    -15.794    499.163    636.053    499.163    506.335    499.163
123.270    628.520    642.272    -13.751    499.844    635.178    499.844    506.983    499.844
123.370    616.244    640.743    -24.500    500.535    633.713    500.535    507.610    500.535
123.470    615.000    638.662    -23.662    501.236    631.724    501.236    508.217    501.236
123.570    592.503    636.104    -43.601    501.947    629.289    501.947    508.804    501.947
123.670    678.666    633.153     45.513    502.668    626.486    502.668    509.374    502.668
123.770    601.673    629.889    -28.216    503.400    623.395    503.400    509.930    503.400
123.870    623.000    626.395     -3.395    504.142    620.093    504.142    510.477    504.142
123.970    575.957    622.745    -46.788    504.894    616.652    504.894    511.017    504.894
124.070    633.336    619.008     14.329    505.657    613.138    505.657    511.554    505.657
124.170    565.609    615.244    -49.635    506.430    609.606    506.430    512.093    506.430
124.270    584.000    611.503    -27.503    507.214    606.102    507.214    512.636    507.214
124.370    610.000    607.825      2.175    508.008    602.665    508.008    513.187    508.008
124.470    649.529    604.239     45.290    508.813    599.321    508.813    513.748    508.813
124.570    650.000    600.765     49.235    509.629    596.086    509.629    514.323    509.629
124.670    620.542    597.415     23.127    510.456    592.971    510.456    514.913    510.456
124.770    587.000    594.193     -7.193    511.294    589.978    511.294    515.520    511.294
124.870    583.553    591.099     -7.545    512.143    587.105    512.143    516.145    512.143
124.970    619.000    588.129     30.871    513.003    584.348    513.003    516.791    513.003
