neutron_powder_diffraction_0186
R_wp: 3.902
Temperature (K): 1074.000
Counts: 83566.00
Wavelength (Ã…): 2.52098
COMMENTS
Test file for demonstrating the .xyy file format in Reel1.0
END OF HEADER
   tth       Y_obs     Y_calc      Y_res    Background    Phase_1_Nuc    Phase_1_Mag    Phase_2_Nuc    Phase_2_Mag
  9.970    649.000    576.657     72.343    575.999    576.632    575.999    576.024    575.999
 10.070    541.456    576.683    -35.227    575.969    576.656    575.969    575.995    575.969
 10.170    557.524    576.712    -19.188    575.934    576.683    575.934    575.962    575.934
 10.270    589.000    576.745     12.255    575.895    576.716    575.895    575.924    575.895
 10.370    582.843    576.786      6.057    575.852    576.757    575.852    575.881    575.852
 10.470    616.518    576.836     39.682    575.805    576.807    575.805    575.834    575.805
 10.570    609.235    576.901     32.334    575.753    576.871    575.753    575.783    575.753
 10.670    579.809    576.993      2.815    575.698    576.953    575.698    575.737    575.698
 10.770    596.930    577.101     19.829    575.638    577.060    575.638    575.679    575.638
 10.870    584.765    577.241      7.523    575.574    577.199    575.574    575.615    575.574
 10.970    527.000    577.426    -50.426    575.506    577.384    575.506    575.548    575.506
 11.070    617.170    577.673     39.498    575.435    577.630    575.435    575.476    575.435
 11.170    581.000    578.005      2.995    575.359    577.962    575.359    575.401    575.359
 11.270    533.727    578.463    -44.736    575.279    578.419    575.279    575.321    575.279
 11.370    626.000    579.109     46.891    575.196    579.065    575.196    575.238    575.196
 11.470    609.618    580.087     29.530    575.109    580.042    575.109    575.151    575.109
 11.570    587.529    581.794      5.735    575.018    581.747    575.018    575.061    575.018
 11.670    609.278    585.380     23.898    574.923    585.327    574.923    574.971    574.923
 11.770    580.719    593.560    -12.841    574.825    593.501    574.825    574.873    574.825
 11.870    629.000    610.808     18.192    574.723    610.739    574.723    574.772    574.723
 11.970    665.000    640.696     24.304    574.617    640.610    574.617    574.666    574.617
 12.070    650.000    679.439    -29.439    574.508    679.331    574.508    574.557    574.508
 12.170    682.000    709.996    -27.996    574.395    709.870    574.395    574.445    574.395
 12.270    702.000    710.883     -8.883    574.279    710.755    574.279    574.329    574.279
 12.370    634.000    681.190    -47.190    574.159    681.080    574.159    574.209    574.159
 12.470    640.000    642.031     -2.031    574.036    641.942    574.036    574.087    574.036
 12.570    622.588    611.216     11.372    573.910    611.144    573.910    573.960    573.910
 12.670    584.968    593.132     -8.164    573.780    593.070    573.780    573.831    573.780
 12.770    616.170    584.386     31.784    573.647    584.328    573.647    573.698    573.647
 12.870    565.000    580.431    -15.431    573.511    580.376    573.511    573.562    573.511
 12.970    596.000    578.443     17.557    573.371    578.389    573.371    573.423    573.371
 13.070    596.000    577.215     18.785    573.228    577.161    573.228    573.280    573.228
 13.170    552.000    576.329    -24.329    573.083    576.275    573.083    573.135    573.083
 13.270    515.000    575.638    -60.638    572.934    575.584    572.934    572.986    572.934
 13.370    534.000    575.075    -41.075    572.782    575.021    572.782    572.834    572.782
 13.470    593.000    574.601     18.399    572.627    574.546    572.627    572.680    572.627
 13.570    565.000    574.192     -9.192    572.469    574.135    572.469    572.525    572.469
 13.670    540.851    573.829    -32.978    572.308    573.770    572.308    572.365    572.308
 13.770    556.886    573.499    -16.613    572.144    573.440    572.144    572.202    572.144
 13.870    509.000    573.196    -64.196    571.977    573.136    571.977    572.035    571.977
 13.970    589.000    572.912     16.088    571.807    572.852    571.807    571.866    571.807
 14.070    543.000    572.644    -29.644    571.635    572.584    571.635    571.694    571.635
 14.170    577.000    572.387      4.613    571.459    572.326    571.459    571.519    571.459
 14.270    545.000    572.139    -27.139    571.281    572.078    571.281    571.342    571.281
 14.370    575.000    571.898      3.102    571.101    571.837    571.101    571.161    571.101
 14.470    591.528    571.663     19.865    570.917    571.601    570.917    570.978    570.917
 14.570    536.000    571.431    -35.431    570.731    571.370    570.731    570.792    570.731
 14.670    587.000    571.206     15.794    570.543    571.144    570.543    570.604    570.543
 14.770    612.535    570.981     41.553    570.351    570.919    570.351    570.413    570.351
 14.870    585.000    570.757     14.243    570.158    570.694    570.158    570.220    570.158
 14.970    567.000    570.533     -3.533    569.961    570.471    569.961    570.024    569.961
 15.070    556.000    570.311    -14.311    569.763    570.247    569.763    569.826    569.763
 15.170    577.939    570.088      7.851    569.561    570.024    569.561    569.625    569.561
 15.270    593.000    569.865     23.135    569.358    569.801    569.358    569.422    569.358
 15.370    546.000    569.642    -23.642    569.152    569.578    569.152    569.216    569.152
 15.470    554.484    569.418    -14.934    568.944    569.354    568.944    569.008    568.944
 15.570    592.000    569.194     22.806    568.733    569.129    568.733    568.798    568.733
 15.670    582.000    568.969     13.031    568.520    568.904    568.520    568.586    568.520
 15.770    536.000    568.743    -32.743    568.305    568.677    568.305    568.371    568.305
 15.870    552.000    568.516    -16.516    568.088    568.450    568.088    568.154    568.088
 15.970    532.000    568.288    -36.288    567.869    568.221    567.869    567.935    567.869
 16.070    579.000    568.060     10.940    567.647    567.992    567.647    567.715    567.647
 16.170    566.000    567.831     -1.831    567.423    567.762    567.423    567.492    567.423
 16.270    606.000    567.599     38.401    567.198    567.530    567.198    567.267    567.198
 16.370    587.151    567.366     19.785    566.970    567.296    566.970    567.039    566.970
 16.470    580.739    567.131     13.608    566.740    567.061    566.740    566.810    566.740
 16.570    597.615    566.895     30.719    566.508    566.825    566.508    566.579    566.508
 16.670    591.000    566.658     24.342    566.274    566.587    566.274    566.345    566.274
 16.770    561.939    566.419     -4.480    566.039    566.347    566.039    566.110    566.039
 16.870    550.000    566.178    -16.178    565.801    566.107    565.801    565.873    565.801
 16.970    528.133    565.937    -37.804    565.562    565.865    565.562    565.634    565.562
 17.070    580.504    565.694     14.810    565.321    565.621    565.321    565.393    565.321
 17.170    548.000    565.449    -17.449    565.078    565.376    565.078    565.151    565.078
 17.270    592.000    565.204     26.796    564.833    565.130    564.833    564.907    564.833
 17.370    564.000    564.959     -0.959    564.586    564.884    564.586    564.661    564.586
 17.470    591.000    564.711     26.289    564.338    564.636    564.338    564.413    564.338
 17.570    575.000    564.461     10.539    564.088    564.385    564.088    564.163    564.088
 17.670    590.249    564.209     26.039    563.837    564.134    563.837    563.912    563.837
 17.770    535.000    563.957    -28.957    563.583    563.880    563.583    563.660    563.583
 17.870    561.000    563.703     -2.703    563.329    563.626    563.329    563.406    563.329
 17.970    560.861    563.448     -2.587    563.072    563.370    563.072    563.150    563.072
 18.070    560.000    563.192     -3.192    562.815    563.114    562.815    562.893    562.815
 18.170    562.000    562.934     -0.934    562.555    562.855    562.555    562.634    562.555
 18.270    528.000    562.680    -34.680    562.294    562.596    562.294    562.378    562.294
 18.370    598.348    562.421     35.926    562.032    562.336    562.032    562.118    562.032
 18.470    599.000    562.161     36.839    561.769    562.074    561.769    561.855    561.769
 18.570    604.000    561.899     42.101    561.503    561.812    561.503    561.591    561.503
 18.670    542.558    561.636    -19.078    561.237    561.548    561.237    561.325    561.237
 18.770    558.000    561.372     -3.372    560.969    561.283    560.969    561.058    560.969
 18.870    577.000    561.107     15.893    560.700    561.017    560.700    560.789    560.700
 18.970    546.196    560.840    -14.644    560.430    560.750    560.430    560.520    560.430
 19.070    561.000    560.573      0.427    560.158    560.482    560.158    560.249    560.158
 19.170    553.986    560.305     -6.319    559.886    560.214    559.886    559.977    559.886
 19.270    562.000    560.036      1.964    559.612    559.944    559.612    559.704    559.612
 19.370    548.000    559.766    -11.766    559.336    559.673    559.336    559.429    559.336
 19.470    568.054    559.496      8.558    559.060    559.403    559.060    559.154    559.060
 19.570    587.176    559.226     27.950    558.783    559.131    558.783    558.877    558.783
 19.670    509.000    558.954    -49.954    558.504    558.859    558.504    558.599    558.504
 19.770    561.000    558.681      2.319    558.225    558.585    558.225    558.321    558.225
 19.870    566.195    558.407      7.787    557.944    558.310    557.944    558.041    557.944
 19.970    545.631    558.134    -12.504    557.662    558.037    557.662    557.760    557.662
 20.070    514.000    557.873    -43.873    557.380    557.775    557.380    557.478    557.380
 20.170    537.765    557.608    -19.843    557.096    557.509    557.096    557.196    557.096
 20.270    535.000    557.333    -22.333    556.812    557.233    556.812    556.912    556.812
 20.370    573.070    557.057     16.013    556.526    556.956    556.526    556.628    556.526
 20.470    588.760    556.781     31.978    556.240    556.679    556.240    556.342    556.240
 20.570    522.000    556.505    -34.505    555.953    556.401    555.953    556.056    555.953
 20.670    560.000    556.228      3.772    555.665    556.124    555.665    555.769    555.665
 20.770    550.000    555.951     -5.951    555.376    555.846    555.376    555.481    555.376
 20.870    592.000    555.674     36.326    555.087    555.568    555.087    555.193    555.087
 20.970    561.000    555.397      5.603    554.796    555.290    554.796    554.904    554.796
 21.070    554.000    555.120     -1.120    554.505    555.012    554.505    554.614    554.505
 21.170    582.000    554.844     27.156    554.213    554.734    554.213    554.323    554.213
 21.270    539.000    554.576    -15.576    553.921    554.465    553.921    554.032    553.921
 21.370    531.000    554.386    -23.386    553.628    554.274    553.628    553.740    553.628
 21.470    529.730    554.133    -24.402    553.334    554.019    553.334    553.447    553.334
 21.570    528.252    553.860    -25.608    553.039    553.745    553.039    553.154    553.039
 21.670    620.000    553.586     66.414    552.744    553.470    552.744    552.860    552.744
 21.770    592.040    553.316     38.725    552.449    553.199    552.449    552.566    552.449
 21.870    592.985    553.067     39.918    552.153    552.948    552.153    552.271    552.153
 21.970    517.993    552.826    -34.832    551.856    552.706    551.856    551.976    551.856
 22.070    562.229    552.561      9.667    551.559    552.440    551.559    551.681    551.559
 22.170    544.000    552.296     -8.296    551.261    552.173    551.261    551.385    551.261
 22.270    581.000    552.033     28.967    550.963    551.909    550.963    551.088    550.963
 22.370    542.620    551.778     -9.158    550.665    551.652    550.665    550.791    550.665
 22.470    573.432    551.570     21.862    550.366    551.440    550.366    550.496    550.366
 22.570    549.000    551.339     -2.339    550.066    551.207    550.066    550.199    550.066
 22.670    512.648    551.098    -38.450    549.767    550.964    549.767    549.901    549.767
 22.770    577.724    550.858     26.865    549.467    550.722    549.467    549.603    549.467
 22.870    554.763    550.625      4.138    549.166    550.487    549.166    549.305    549.166
 22.970    538.000    550.402    -12.402    548.865    550.261    548.865    549.006    548.865
 23.070    545.000    550.189     -5.189    548.564    550.046    548.564    548.707    548.564
 23.170    534.000    549.989    -15.989    548.263    549.845    548.263    548.408    548.263
 23.270    565.000    549.807     15.193    547.962    549.660    547.962    548.109    547.962
 23.370    513.689    549.647    -35.958    547.660    549.497    547.660    547.810    547.660
 23.470    544.678    549.515     -4.837    547.358    549.364    547.358    547.510    547.358
 23.570    570.000    549.423     20.577    547.056    549.269    547.056    547.211    547.056
 23.670    530.000    549.378    -19.378    546.754    549.221    546.754    546.911    546.754
 23.770    561.477    549.401     12.076    546.451    549.241    546.451    546.612    546.451
 23.870    600.000    549.522     50.478    546.149    549.359    546.149    546.312    546.149
 23.970    527.651    549.793    -22.142    545.846    549.628    545.846    546.013    545.846
 24.070    588.000    550.341     37.659    545.543    550.173    545.543    545.713    545.543
 24.170    558.000    551.524      6.476    545.240    551.354    545.240    545.414    545.240
 24.270    547.986    554.314     -6.328    544.938    554.142    544.938    545.115    544.938
 24.370    536.000    560.775    -24.775    544.635    560.605    544.635    544.816    544.635
 24.470    559.000    573.810    -14.810    544.332    573.645    544.332    544.517    544.332
 24.570    558.000    594.902    -36.902    544.029    594.748    544.029    544.218    544.029
 24.670    633.000    619.940     13.060    543.726    619.800    543.726    543.920    543.726
 24.770    602.000    636.559    -34.559    543.423    636.426    543.423    543.622    543.423
 24.870    644.230    632.514     11.716    543.121    632.373    543.121    543.324    543.121
 24.970    626.000    611.102     14.898    542.818    610.942    542.818    543.027    542.818
 25.070    592.000    586.113      5.887    542.516    585.929    542.516    542.730    542.516
 25.170    584.903    567.129     17.774    542.213    566.925    542.213    542.433    542.213
 25.270    525.359    555.994    -30.634    541.911    555.776    541.911    542.137    541.911
 25.370    531.000    550.458    -19.458    541.609    550.230    541.609    541.842    541.609
 25.470    530.653    547.814    -17.161    541.307    547.577    541.307    541.547    541.307
 25.570    535.857    546.398    -10.540    541.005    546.152    541.005    541.253    541.005
 25.670    544.000    545.480     -1.480    540.704    545.225    540.704    540.960    540.704
 25.770    526.000    544.797    -18.797    540.402    544.533    540.402    540.667    540.402
 25.870    564.000    544.251     19.749    540.101    543.978    540.101    540.376    540.101
 25.970    561.000    543.805     17.195    539.801    543.522    539.801    540.085    539.801
 26.070    534.000    543.436     -9.436    539.500    543.141    539.500    539.796    539.500
 26.170    600.000    543.131     56.869    539.200    542.824    539.200    539.507    539.200
 26.270    580.000    542.907     37.093    538.900    542.587    538.900    539.220    538.900
 26.370    582.000    542.730     39.270    538.601    542.396    538.601    538.935    538.601
 26.470    521.850    542.582    -20.732    538.301    542.232    538.301    538.651    538.301
 26.570    571.000    542.485     28.515    538.003    542.118    538.003    538.369    538.003
 26.670    574.000    542.449     31.551    537.704    542.064    537.704    538.089    537.704
 26.770    539.000    542.484     -3.484    537.406    542.078    537.406    537.811    537.406
 26.870    520.932    542.593    -21.661    537.109    542.165    537.109    537.536    537.109
 26.970    539.000    542.803     -3.803    536.811    542.350    536.811    537.263    536.811
 27.070    573.000    543.155     29.845    536.515    542.675    536.515    536.994    536.515
 27.170    527.000    543.693    -16.693    536.218    543.182    536.218    536.729    536.218
 27.270    532.864    544.421    -11.557    535.922    543.875    535.922    536.467    535.922
 27.370    573.529    545.458     28.071    535.627    544.873    535.627    536.211    535.627
 27.470    520.418    546.974    -26.556    535.332    546.345    535.332    535.960    535.332
 27.570    579.000    549.398     29.602    535.038    548.717    535.038    535.716    535.038
 27.670    544.000    554.203    -10.203    534.744    553.464    534.744    535.479    534.744
 27.770    554.000    566.223    -12.223    534.451    565.414    534.451    535.252    534.451
 27.870    625.000    597.269     27.731    534.158    596.373    534.158    535.036    534.158
 27.970    689.000    665.064     23.936    533.866    664.056    533.866    534.834    533.866
 28.070    797.863    776.726     21.137    533.575    775.580    533.575    534.649    533.575
 28.170    888.206    900.696    -12.490    533.284    899.397    533.284    534.485    533.284
 28.270    983.000    961.834     21.166    532.993    960.385    532.993    534.347    532.993
 28.370    880.571    910.488    -29.917    532.704    908.889    532.704    534.243    532.704
 28.470    788.807    799.640    -10.833    532.415    797.846    532.415    534.184    532.415
 28.570    681.726    713.520    -31.795    532.126    711.448    532.126    534.187    532.126
 28.670    672.000    695.603    -23.603    531.839    693.143    531.839    534.284    531.839
 28.770    720.000    741.272    -21.272    531.552    738.279    531.552    534.526    531.552
 28.870    771.000    810.395    -39.395    531.266    806.638    531.266    535.010    531.266
 28.970    834.849    842.994     -8.145    530.980    838.088    530.980    535.889    530.980
 29.070    752.000    803.529    -51.529    530.695    796.851    530.695    537.386    530.695
 29.170    744.727    722.954     21.773    530.411    713.612    530.411    539.767    530.411
 29.270    634.000    649.034    -15.034    530.128    635.910    530.128    543.259    530.128
 29.370    564.730    603.387    -38.657    529.845    585.333    529.845    547.902    529.845
 29.470    640.000    583.392     56.608    529.563    559.696    529.563    553.259    529.563
 29.570    579.000    577.225      1.775    529.282    548.479    529.282    558.025    529.282
 29.670    581.000    574.559      6.441    529.002    543.476    529.002    560.083    529.002
 29.770    580.000    570.179      9.821    528.723    540.786    528.723    558.113    528.723
 29.870    581.000    563.720     17.280    528.444    539.039    528.444    553.122    528.444
 29.970    620.000    556.861     63.139    528.167    537.814    528.167    547.211    528.167
 30.070    608.000    550.929     57.071    527.890    536.972    527.890    541.844    527.890
 30.170    583.000    546.460     36.540    527.614    536.488    527.614    537.584    527.614
 30.270    514.584    543.595    -29.011    527.339    536.472    527.339    534.458    527.339
 30.370    523.820    542.573    -18.753    527.064    537.372    527.064    532.262    527.064
 30.470    530.000    544.302    -14.302    526.791    540.357    526.791    530.729    526.791
 30.570    558.000    550.713      7.287    526.518    547.591    526.518    529.628    526.518
 30.670    589.672    563.990     25.682    526.247    561.422    526.247    528.792    526.247
 30.770    627.451    583.930     43.521    525.976    581.752    525.976    528.116    525.976
 30.870    628.000    604.603     23.397    525.707    602.717    525.707    527.541    525.707
 30.970    617.987    614.040      3.948    525.438    612.388    525.438    527.034    525.438
 31.070    627.875    604.315     23.560    525.170    602.865    525.170    526.575    525.170
 31.170    587.000    582.780      4.220    524.904    581.503    524.904    526.152    524.904
 31.270    603.386    561.403     41.983    524.638    560.268    524.638    525.756    524.638
 31.370    540.000    546.361     -6.361    524.373    545.343    524.373    525.384    524.373
 31.470    526.000    537.966    -11.966    524.109    537.042    524.109    525.028    524.109
 31.570    503.164    533.915    -30.751    523.846    533.071    523.846    524.688    523.846
 31.670    527.000    531.995     -4.995    523.585    531.218    523.585    524.360    523.585
 31.770    544.667    530.964     13.704    523.324    530.244    523.324    524.042    523.324
 31.870    525.000    530.306     -5.306    523.064    529.636    523.064    523.732    523.064
 31.970    555.000    529.845     25.155    522.806    529.220    522.806    523.430    522.806
 32.070    528.000    529.525     -1.525    522.548    528.938    522.548    523.134    522.548
 32.170    570.000    529.323     40.677    522.292    528.769    522.292    522.844    522.292
 32.270    540.000    529.230     10.770    522.036    528.706    522.036    522.559    522.036
 32.370    563.000    529.246     33.754    521.782    528.749    521.782    522.278    521.782
 32.470    518.145    529.381    -11.235    521.529    528.907    521.529    522.001    521.529
 32.570    485.000    529.649    -44.649    521.276    529.197    521.276    521.727    521.276
 32.670    499.000    530.078    -31.078    521.025    529.645    521.025    521.457    521.025
 32.770    552.000    530.705     21.295    520.776    530.289    520.776    521.190    520.776
 32.870    526.328    531.586     -5.257    520.527    531.185    520.527    520.926    520.527
 32.970    563.179    532.803     30.376    520.279    532.416    520.279    520.664    520.279
 33.070    533.000    534.484     -1.484    520.033    534.110    520.033    520.405    520.033
 33.170    493.204    536.862    -43.658    519.787    536.499    519.787    520.148    519.787
 33.270    590.000    540.473     49.527    519.543    540.120    519.543    519.894    519.543
 33.370    581.681    546.774     34.907    519.300    546.430    519.300    519.641    519.300
 33.470    566.000    559.592      6.408    519.059    559.254    519.059    519.391    519.059
 33.570    613.220    587.203     26.017    518.818    586.868    518.818    519.142    518.818
 33.670    634.000    642.673     -8.673    518.579    642.334    518.579    518.896    518.579
 33.770    749.000    737.800     11.200    518.340    737.453    518.340    518.651    518.340
 33.870    877.000    868.785      8.215    518.103    868.427    518.103    518.408    518.103
 33.970    990.000   1000.080    -10.080    517.868    999.718    517.868    518.166    517.868
 34.070   1066.000   1064.407      1.593    517.633   1064.058    517.633    517.927    517.633
 34.170    991.000   1016.097    -25.097    517.400   1015.779    517.400    517.689    517.400
 34.270    876.000    890.933    -14.933    517.168    890.645    517.168    517.452    517.168
 34.370    750.605    756.619     -6.013    516.937    756.345    516.937    517.217    516.937
 34.470    670.000    654.350     15.650    516.707    654.081    516.707    516.984    516.707
 34.570    600.000    592.294      7.706    516.479    592.026    516.479    516.753    516.479
 34.670    587.000    560.286     26.714    516.252    560.017    516.252    516.523    516.252
 34.770    586.323    545.000     41.323    516.026    544.733    516.026    516.294    516.026
 34.870    552.000    537.337     14.663    515.802    537.071    515.802    516.067    515.802
 34.970    521.000    532.848    -11.848    515.579    532.584    515.579    515.842    515.579
 35.070    491.660    529.770    -38.110    515.357    529.509    515.357    515.618    515.357
 35.170    519.000    527.454     -8.454    515.136    527.194    515.136    515.396    515.136
 35.270    526.984    525.627      1.357    514.917    525.369    514.917    515.175    514.917
 35.370    549.000    524.146     24.854    514.699    523.890    514.699    514.955    514.699
 35.470    544.850    522.921     21.929    514.482    522.666    514.482    514.737    514.482
 35.570    512.000    521.890     -9.890    514.267    521.636    514.267    514.521    514.267
 35.670    483.000    521.008    -38.008    514.053    520.754    514.053    514.306    514.053
 35.770    521.000    520.243      0.757    513.840    519.990    513.840    514.092    513.840
 35.870    529.000    519.572      9.428    513.629    519.320    513.629    513.880    513.629
 35.970    493.007    518.978    -25.970    513.419    518.726    513.419    513.670    513.419
 36.070    542.000    518.446     23.554    513.210    518.196    513.210    513.461    513.210
 36.170    535.000    517.969     17.031    513.003    517.718    513.003    513.253    513.003
 36.270    515.880    517.537     -1.657    512.797    517.287    512.797    513.047    512.797
 36.370    521.000    517.146      3.854    512.593    516.896    512.593    512.843    512.593
 36.470    512.000    516.794     -4.794    512.389    516.543    512.389    512.639    512.389
 36.570    496.000    516.477    -20.477    512.187    516.227    512.187    512.438    512.187
 36.670    511.000    516.197     -5.197    511.987    515.947    511.987    512.237    511.987
 36.770    543.000    515.961     27.039    511.788    515.710    511.788    512.039    511.788
 36.870    544.354    515.785     28.569    511.590    515.534    511.590    511.842    511.590
 36.970    501.346    515.720    -14.374    511.394    515.468    511.394    511.646    511.394
 37.070    538.158    515.887     22.271    511.199    515.635    511.199    511.451    511.199
 37.170    556.208    516.525     39.683    511.006    516.272    511.006    511.259    511.006
 37.270    495.000    517.983    -22.983    510.813    517.730    510.813    511.067    510.813
 37.370    532.361    520.558     11.803    510.623    520.304    510.623    510.878    510.623
 37.470    519.000    524.167     -5.167    510.433    523.913    510.433    510.689    510.433
 37.570    524.000    527.977     -3.977    510.246    527.723    510.246    510.502    510.246
 37.670    468.000    530.372    -62.372    510.059    530.118    510.059    510.317    510.059
 37.770    524.000    529.998     -5.998    509.874    529.745    509.874    510.133    509.874
 37.870    521.000    527.203     -6.203    509.691    526.951    509.691    509.951    509.691
 37.970    495.100    523.474    -28.374    509.508    523.222    509.508    509.770    509.508
 38.070    523.140    519.969      3.170    509.328    519.717    509.328    509.591    509.328
 38.170    527.367    517.145     10.222    509.148    516.889    509.148    509.413    509.148
 38.270    526.529    515.081     11.448    508.970    514.821    508.970    509.237    508.970
 38.370    473.261    513.674    -40.413    508.794    513.411    508.794    509.062    508.794
 38.470    516.414    512.748      3.666    508.619    512.481    508.619    508.889    508.619
 38.570    500.303    512.136    -11.833    508.445    511.866    508.445    508.717    508.445
 38.670    519.965    511.715      8.250    508.273    511.442    508.273    508.547    508.273
 38.770    545.208    511.399     33.808    508.103    511.125    508.103    508.378    508.103
 38.870    528.080    511.141     16.938    507.934    510.864    507.934    508.211    507.934
 38.970    532.000    510.915     21.085    507.766    510.636    507.766    508.045    507.766
 39.070    513.588    510.709      2.879    507.600    510.428    507.600    507.881    507.600
 39.170    557.000    510.519     46.481    507.435    510.235    507.435    507.719    507.435
 39.270    476.318    510.340    -34.022    507.271    510.053    507.271    507.558    507.271
 39.370    544.580    510.171     34.409    507.109    509.882    507.109    507.398    507.109
 39.470    514.000    510.012      3.988    506.949    509.721    506.949    507.240    506.949
 39.570    514.000    509.861      4.139    506.790    509.567    506.790    507.084    506.790
 39.670    525.000    509.718     15.282    506.633    509.421    506.633    506.929    506.633
 39.770    508.000    509.583     -1.583    506.477    509.283    506.477    506.776    506.477
 39.870    484.000    509.455    -25.455    506.322    509.153    506.322    506.625    506.322
 39.970    534.653    509.335     25.318    506.169    509.030    506.169    506.475    506.169
 40.070    494.000    509.223    -15.223    506.017    508.915    506.017    506.326    506.017
 40.170    529.881    509.120     20.761    505.867    508.808    505.867    506.179    505.867
 40.270    546.231    509.025     37.206    505.719    508.710    505.719    506.034    505.719
 40.370    519.000    508.941     10.059    505.571    508.622    505.571    505.890    505.571
 40.470    523.000    508.867     14.133    505.426    508.545    505.426    505.748    505.426
 40.570    497.000    508.805    -11.805    505.282    508.479    505.282    505.608    505.282
 40.670    486.000    508.756    -22.756    505.139    508.427    505.139    505.469    505.139
 40.770    536.858    508.724     28.134    504.998    508.391    504.998    505.331    504.998
 40.870    541.080    508.710     32.370    504.858    508.373    504.858    505.196    504.858
 40.970    509.000    508.718      0.282    504.720    508.377    504.720    505.062    504.720
 41.070    492.000    508.752    -16.752    504.583    508.407    504.583    504.929    504.583
 41.170    519.000    508.819     10.181    504.448    508.470    504.448    504.798    504.448
 41.270    483.000    508.927    -25.927    504.314    508.573    504.314    504.669    504.314
 41.370    547.851    509.086     38.765    504.182    508.727    504.182    504.542    504.182
 41.470    516.000    509.313      6.687    504.051    508.949    504.051    504.416    504.051
 41.570    493.000    509.631    -16.631    503.921    509.262    503.921    504.291    503.921
 41.670    543.000    510.084     32.916    503.794    509.711    503.794    504.169    503.794
 41.770    509.452    510.772     -1.320    503.667    510.394    503.667    504.048    503.667
 41.870    490.000    511.932    -21.932    503.542    511.548    503.542    503.929    503.542
 41.970    528.086    514.113     13.973    503.419    513.725    503.419    503.811    503.419
 42.070    489.000    518.415    -29.415    503.297    518.023    503.297    503.695    503.297
 42.170    528.000    526.597      1.403    503.177    526.202    503.177    503.581    503.177
 42.270    566.432    540.680     25.753    503.058    540.285    503.058    503.468    503.058
 42.370    503.000    561.717    -58.717    502.940    561.326    502.940    503.358    502.940
 42.470    596.011    587.973      8.038    502.824    587.588    502.824    503.249    502.824
 42.570    622.000    613.329      8.671    502.710    612.950    502.710    503.141    502.710
 42.670    617.000    627.833    -10.833    502.597    627.458    502.597    503.036    502.597
 42.770    600.393    623.894    -23.500    502.485    623.512    502.485    502.932    502.485
 42.870    539.000    603.823    -64.823    502.375    603.425    502.375    502.830    502.375
 42.970    532.928    577.092    -44.164    502.267    576.672    502.267    502.730    502.267
 43.070    546.000    552.362     -6.362    502.160    551.919    502.160    502.631    502.160
 43.170    558.000    533.914     24.086    502.054    533.451    502.054    502.535    502.054
 43.270    492.584    522.188    -29.605    501.950    521.709    501.950    502.440    501.950
 43.370    503.182    515.585    -12.404    501.847    515.092    501.847    502.347    501.847
 43.470    556.000    512.113     43.887    501.746    511.607    501.746    502.256    501.746
 43.570    488.000    510.270    -22.270    501.647    509.752    501.647    502.167    501.647
 43.670    494.000    509.197    -15.197    501.548    508.667    501.548    502.080    501.548
 43.770    501.000    508.485     -7.485    501.452    507.944    501.452    501.995    501.452
 43.870    537.543    507.965     29.579    501.356    507.411    501.356    501.912    501.356
 43.970    540.000    507.563     32.437    501.263    506.995    501.263    501.831    501.263
 44.070    531.480    507.243     24.236    501.170    506.662    501.170    501.752    501.170
 44.170    499.000    506.987     -7.987    501.080    506.392    501.080    501.675    501.080
 44.270    519.000    506.781     12.219    500.990    506.171    500.990    501.601    500.990
 44.370    548.229    506.615     41.614    500.902    505.990    500.902    501.528    500.902
 44.470    486.000    506.482    -20.482    500.816    505.841    500.816    501.458    500.816
 44.570    504.869    506.378     -1.509    500.731    505.719    500.731    501.390    500.731
 44.670    508.000    506.299      1.701    500.647    505.622    500.647    501.324    500.647
 44.770    499.158    506.241     -7.083    500.565    505.545    500.565    501.261    500.565
 44.870    504.000    506.203     -2.203    500.484    505.487    500.484    501.201    500.484
 44.970    469.364    506.184    -36.820    500.405    505.446    500.405    501.143    500.405
 45.070    546.168    506.182     39.986    500.327    505.422    500.327    501.088    500.327
 45.170    488.000    506.197    -18.197    500.251    505.413    500.251    501.035    500.251
 45.270    543.458    506.229     37.230    500.176    505.419    500.176    500.986    500.176
 45.370    502.000    506.277     -4.277    500.103    505.441    500.103    500.939    500.103
 45.470    533.213    506.344     26.869    500.031    505.478    500.031    500.896    500.031
 45.570    501.167    506.428     -5.260    499.960    505.531    499.960    500.857    499.960
 45.670    511.000    506.531      4.469    499.891    505.601    499.891    500.820    499.891
 45.770    509.000    506.654      2.346    499.823    505.689    499.823    500.788    499.823
 45.870    537.755    506.800     30.956    499.757    505.797    499.757    500.760    499.757
 45.970    530.000    506.970     23.030    499.692    505.926    499.692    500.736    499.692
 46.070    488.008    507.167    -19.158    499.629    506.079    499.629    500.716    499.629
 46.170    503.000    507.395     -4.395    499.567    506.259    499.567    500.702    499.567
 46.270    528.000    507.658     20.342    499.506    506.471    499.506    500.693    499.506
 46.370    515.000    507.963      7.037    499.447    506.719    499.447    500.690    499.447
 46.470    488.000    508.316    -20.316    499.389    507.011    499.389    500.693    499.389
 46.570    536.508    508.728     27.780    499.333    507.357    499.333    500.703    499.333
 46.670    493.000    509.215    -16.215    499.278    507.770    499.278    500.721    499.278
 46.770    534.000    509.803     24.197    499.224    508.277    499.224    500.748    499.224
 46.870    550.241    510.546     39.695    499.172    508.931    499.172    500.785    499.172
 46.970    516.000    511.566      4.434    499.121    509.852    499.121    500.832    499.121
 47.070    499.000    513.123    -14.123    499.072    511.299    499.072    500.892    499.072
 47.170    544.000    515.735     28.265    499.023    513.786    499.023    500.967    499.023
 47.270    484.381    520.232    -35.851    498.977    518.143    498.977    501.057    498.977
 47.370    521.841    527.666     -5.824    498.931    525.417    498.931    501.166    498.931
 47.470    510.000    538.887    -28.887    498.887    536.456    498.887    501.297    498.887
 47.570    562.000    553.818      8.182    498.845    551.176    498.845    501.454    498.845
 47.670    565.521    570.659     -5.138    498.804    567.776    498.804    501.642    498.804
 47.770    623.000    585.454     37.546    498.764    582.297    498.764    501.866    498.764
 47.870    595.000    592.917      2.083    498.725    589.450    498.725    502.135    498.725
 47.970    619.855    589.920     29.935    498.688    586.097    498.688    502.458    498.688
 48.070    580.000    578.595      1.405    498.652    574.354    498.652    502.851    498.652
 48.170    552.000    564.096    -12.096    498.618    559.348    498.618    503.334    498.618
 48.270    575.000    550.903     24.097    498.585    545.524    498.585    503.942    498.585
 48.370    496.820    541.415    -44.595    498.553    535.221    498.553    504.733    498.553
 48.470    530.000    536.216     -6.216    498.522    528.927    498.522    505.803    498.522
 48.570    533.000    534.841     -1.841    498.493    526.010    498.493    507.318    498.493
 48.670    516.000    536.575    -20.575    498.465    525.497    498.465    509.538    498.465
 48.770    537.000    540.983     -3.983    498.439    526.580    498.439    512.837    498.439
 48.870    540.000    548.083     -8.083    498.413    528.796    498.413    517.696    498.413
 48.970    552.000    558.260     -6.260    498.389    532.013    498.389    524.631    498.389
 49.070    585.120    572.108     13.012    498.367    536.414    498.367    534.055    498.367
 49.170    598.709    590.390      8.319    498.345    542.672    498.345    546.056    498.345
 49.270    652.150    614.405     37.745    498.325    552.610    498.325    560.109    498.325
 49.370    689.000    647.184     41.816    498.306    570.765    498.306    574.709    498.306
 49.470    712.000    695.939     16.061    498.289    607.131    498.289    587.069    498.289
 49.570    784.000    775.638      8.362    498.273    680.249    498.273    593.613    498.273
 49.670    918.000    911.293      6.707    498.258    817.535    498.258    591.935    498.258
 49.770   1215.000   1132.393     82.607    498.244   1047.793    498.244    582.723    498.244
 49.870   1428.000   1454.083    -26.083    498.231   1383.034    498.231    569.121    498.231
 49.970   1836.000   1851.207    -15.207    498.220   1794.753    498.220    554.502    498.220
 50.070   2242.500   2241.815      0.684    498.210   2198.757    498.210    541.133    498.210
 50.170   2551.341   2499.769     51.572    498.201   2467.829    498.201    530.101    498.201
 50.270   2494.086   2515.265    -21.179    498.194   2491.881    498.194    521.659    498.194
 50.370   2284.000   2277.331      6.669    498.188   2260.124    498.188    515.567    498.188
 50.470   1815.090   1884.819    -69.729    498.183   1871.850    498.183    511.354    498.183
 50.570   1446.217   1468.729    -22.512    498.179   1458.586    498.179    508.505    498.179
 50.670   1045.000   1122.766    -77.766    498.176   1114.502    498.176    506.580    498.176
 50.770    751.000    883.842   -132.842    498.175    876.866    498.175    505.248    498.175
 50.870    717.000    743.775    -26.775    498.175    737.726    498.175    504.289    498.175
 50.970    641.000    672.527    -31.527    498.175    667.184    498.175    503.567    498.175
 51.070    670.000    638.328     31.672    498.178    633.543    498.178    503.003    498.178
 51.170    575.000    618.390    -43.390    498.181    614.057    498.181    502.549    498.181
 51.270    626.898    601.445     25.452    498.186    597.483    498.186    502.177    498.186
 51.370    574.000    584.820    -10.820    498.191    581.165    498.191    501.869    498.191
 51.470    600.266    569.526     30.740    498.198    566.129    498.198    501.612    498.198
 51.570    576.000    556.944     19.056    498.206    553.766    498.206    501.396    498.206
 51.670    552.000    547.686      4.314    498.215    544.694    498.215    501.215    498.215
 51.770    569.000    541.556     27.444    498.226    538.724    498.226    501.063    498.226
 51.870    578.723    537.905     40.818    498.237    535.210    498.237    500.935    498.237
 51.970    563.000    536.015     26.985    498.250    533.438    498.250    500.829    498.250
 52.070    560.000    535.343     24.657    498.263    532.867    498.263    500.742    498.263
 52.170    514.416    535.600    -21.183    498.278    533.210    498.278    500.670    498.278
 52.270    507.121    536.736    -29.616    498.294    534.419    498.294    500.613    498.294
 52.370    576.353    538.968     37.384    498.311    536.712    498.311    500.568    498.311
 52.470    523.000    542.930    -19.930    498.329    540.725    498.329    500.535    498.329
 52.570    560.000    550.027      9.973    498.349    547.864    498.349    500.512    498.349
 52.670    596.000    562.985     33.015    498.369    560.855    498.369    500.498    498.369
 52.770    585.000    586.372     -1.372    498.390    584.268    498.390    500.493    498.390
 52.870    603.346    626.580    -23.233    498.413    624.493    498.413    500.496    498.413
 52.970    666.784    690.499    -23.715    498.436    688.424    498.436    500.506    498.436
 53.070    840.000    782.470     57.530    498.461    780.401    498.461    500.523    498.461
 53.170    923.000    899.977     23.023    498.487    897.910    498.487    500.547    498.487
 53.270   1006.000   1029.550    -23.550    498.513   1027.483    498.513    500.578    498.513
 53.370   1096.064   1144.896    -48.832    498.541   1142.828    498.541    500.615    498.541
 53.470   1218.327   1211.644      6.683    498.570   1209.574    498.570    500.658    498.570
 53.570   1138.916   1204.582    -65.667    498.600   1202.505    498.600    500.707    498.600
 53.670   1132.442   1126.887      5.555    498.631   1124.793    498.631    500.762    498.631
 53.770    997.000   1007.161    -10.161    498.663   1005.038    498.663    500.823    498.663
 53.870    904.000    878.938     25.062    498.695    876.776    498.695    500.890    498.695
 53.970    786.062    766.153     19.909    498.729    763.944    498.729    500.964    498.729
 54.070    692.009    680.019     11.990    498.764    677.758    498.764    501.043    498.764
 54.170    650.904    621.468     29.436    498.800    619.150    498.800    501.129    498.800
 54.270    626.000    585.417     40.583    498.837    583.039    498.837    501.222    498.837
 54.370    547.000    564.919    -17.919    498.875    562.477    498.875    501.321    498.875
 54.470    571.000    553.885     17.115    498.913    551.373    498.913    501.428    498.913
 54.570    518.848    548.111    -29.263    498.953    545.524    498.953    501.542    498.953
 54.670    525.000    545.153    -20.153    498.994    542.484    498.994    501.664    498.994
 54.770    563.000    543.768     19.232    499.035    541.009    499.035    501.795    499.035
 54.870    552.000    543.388      8.612    499.078    540.531    499.078    501.935    499.078
 54.970    546.000    543.775      2.225    499.121    540.812    499.121    502.085    499.121
 55.070    562.000    544.843     17.157    499.166    541.764    499.166    502.246    499.166
 55.170    501.000    546.583    -45.583    499.211    543.378    499.211    502.418    499.211
 55.270    544.000    549.038     -5.038    499.257    545.694    499.257    502.602    499.257
 55.370    570.000    552.299     17.701    499.304    548.804    499.304    502.800    499.304
 55.470    515.658    556.537    -40.879    499.352    552.877    499.352    503.013    499.352
 55.570    540.866    562.074    -21.208    499.401    558.234    499.401    503.242    499.401
 55.670    596.000    569.582     26.418    499.451    565.543    499.451    503.489    499.451
 55.770    631.000    580.508     50.492    499.501    576.252    499.501    503.757    499.501
 55.870    559.282    597.910    -38.628    499.553    593.413    499.553    504.047    499.553
 55.970    645.000    627.763     17.237    499.605    623.000    499.605    504.363    499.605
 56.070    689.000    680.477      8.523    499.658    675.416    499.658    504.707    499.658
 56.170    803.828    771.667     32.161    499.712    766.274    499.712    505.083    499.712
 56.270    932.316    920.511     11.806    499.767    914.745    499.767    505.496    499.767
 56.370   1134.000   1144.083    -10.083    499.823   1137.903    499.823    505.951    499.823
 56.470   1430.000   1447.632    -17.632    499.879   1440.995    499.879    506.454    499.879
 56.570   1828.000   1813.456     14.544    499.936   1806.322    499.936    507.013    499.936
 56.670   2000.000   2192.799   -192.799    499.994   2185.126    499.994    507.636    499.994
 56.770   2485.000   2505.997    -20.997    500.053   2497.741    500.053    508.335    500.053
 56.870   2727.000   2661.787     65.213    500.113   2652.884    500.113    509.123    500.113
 56.970   2510.022   2605.327    -95.306    500.173   2595.676    500.173    510.017    500.173
 57.070   2370.353   2359.015     11.338    500.234   2348.458    500.234    511.037    500.234
 57.170   1979.648   2003.639    -23.991    500.296   1991.977    500.296    512.213    500.296
 57.270   1616.000   1627.580    -11.580    500.359   1614.583    500.359    513.584    500.359
 57.370   1325.000   1294.833     30.167    500.422   1280.228    500.422    515.208    500.422
 57.470   1037.000   1037.275     -0.275    500.486   1020.713    500.486    517.178    500.486
 57.570    890.000    859.556     30.444    500.551    840.547    500.551    519.645    500.551
 57.670    715.842    749.491    -33.649    500.617    727.298    500.617    522.860    500.617
 57.770    674.000    689.069    -15.069    500.683    662.555    500.683    527.224    500.683
 57.870    657.015    662.406     -5.391    500.750    629.815    500.750    533.352    500.750
 57.970    696.000    659.401     36.599    500.817    618.098    500.817    542.121    500.817
 58.070    705.440    676.005     29.435    500.886    622.213    500.886    554.667    500.886
 58.170    678.991    712.608    -33.617    500.955    641.242    500.955    572.300    500.955
 58.270    754.024    771.681    -17.656    501.024    676.385    501.024    596.288    501.024
 58.370    841.000    855.247    -14.247    501.095    728.783    501.095    627.514    501.095
 58.470    961.000    962.547     -1.547    501.166    797.625    501.166    666.034    501.166
 58.570   1100.000   1088.203     11.797    501.237    878.831    501.237    710.551    501.237
 58.670   1278.695   1221.246     57.449    501.309    964.690    501.309    757.809    501.309
 58.770   1331.000   1346.340    -15.340    501.382   1045.712    501.382    801.963    501.382
 58.870   1398.000   1446.949    -48.949    501.456   1113.739    501.456    834.634    501.456
 58.970   1651.000   1508.250    142.750    501.530   1162.506    501.530    847.262    501.530
 59.070   1523.000   1520.086      2.914    501.604   1185.780    501.604    835.919    501.604
 59.170   1479.293   1481.875     -2.582    501.680   1179.361    501.680    804.219    501.680
 59.270   1377.494   1405.597    -28.103    501.755   1146.776    501.755    760.604    501.755
 59.370   1360.000   1311.724     48.276    501.832   1100.052    501.832    713.522    501.832
 59.470   1285.000   1221.230     63.770    501.909   1054.185    501.909    668.947    501.909
 59.570   1159.000   1151.607      7.393    501.986   1023.299    501.986    630.252    501.986
 59.670   1120.000   1117.571      2.429    502.064   1020.731    502.064    598.819    502.064
 59.770   1149.516   1130.313     19.203    502.143   1057.671    502.143    574.648    502.143
 59.870   1182.000   1192.808    -10.808    502.222   1137.949    502.222    556.888    502.222
 59.970   1377.000   1295.138     81.862    502.302   1252.912    502.302    544.282    502.302
 60.070   1457.000   1413.076     43.924    502.382   1379.656    502.382    535.518    502.382
 60.170   1501.255   1510.735     -9.480    502.462   1483.452    502.462    529.449    502.462
 60.270   1488.271   1550.023    -61.753    502.544   1527.107    502.544    525.187    502.544
 60.370   1509.110   1508.735      0.374    502.625   1489.035    502.625    522.106    502.625
 60.470   1331.000   1394.150    -63.150    502.707   1376.905    502.707    519.799    502.707
 60.570   1202.000   1235.869    -33.869    502.790   1220.553    502.790    518.012    502.790
 60.670   1180.000   1067.884    112.116    502.873   1054.108    502.873    516.599    502.873
 60.770    897.000    916.509    -19.509    502.956    903.971    502.956    515.473    502.956
 60.870    791.000    796.443     -5.443    503.040    784.889    503.040    514.587    503.040
 60.970    736.000    711.700     24.300    503.125    700.904    503.125    513.917    503.125
 61.070    683.000    659.221     23.779    503.209    648.976    503.209    513.449    503.209
 61.170    652.000    633.372     18.628    503.295    623.479    503.295    513.175    503.295
 61.270    600.122    629.679    -29.557    503.380    619.951    503.380    513.088    503.380
 61.370    695.505    646.883     48.622    503.466    637.148    503.466    513.169    503.466
 61.470    682.289    687.102     -4.813    503.552    677.217    503.552    513.388    503.552
 61.570    753.000    754.281     -1.281    503.639    744.157    503.639    513.689    503.639
 61.670    850.483    851.286     -0.803    503.726    840.919    503.726    513.991    503.726
 61.770    984.876    976.339      8.537    503.814    965.835    503.814    514.183    503.814
 61.870   1104.000   1119.847    -15.847    503.902   1109.431    503.902    514.154    503.902
 61.970   1244.000   1262.794    -18.794    503.990   1252.759    503.990    513.844    503.990
 62.070   1319.012   1377.903    -58.891    504.078   1368.524    504.078    513.278    504.078
 62.170   1452.533   1436.096     16.438    504.167   1427.560    504.167    512.547    504.167
 62.270   1362.000   1419.697    -57.697    504.256   1412.081    504.256    511.758    504.256
 62.370   1370.252   1333.560     36.692    504.346   1326.844    504.346    510.994    504.346
 62.470   1204.362   1201.576      2.786    504.436   1195.674    504.436    510.307    504.436
 62.570   1071.000   1053.163     17.837    504.526   1047.960    504.526    509.723    504.526
 62.670    877.000    912.636    -35.636    504.616    908.011    504.616    509.250    504.616
 62.770    787.556    795.075     -7.518    504.707    790.912    504.707    508.882    504.707
 62.870    680.970    706.300    -25.330    504.797    702.504    504.797    508.605    504.797
 62.970    646.874    645.048      1.826    504.889    641.541    504.889    508.403    504.889
 63.070    613.000    606.073      6.927    504.980    602.797    504.980    508.259    504.980
 63.170    590.000    583.039      6.961    505.072    579.952    505.072    508.158    505.072
 63.270    579.607    570.443      9.164    505.163    567.514    505.163    508.089    505.163
 63.370    533.619    564.461    -30.842    505.255    561.668    505.255    508.043    505.255
 63.470    552.000    563.044    -11.044    505.348    560.369    505.348    508.015    505.348
 63.570    601.000    565.689     35.311    505.440    563.118    505.440    508.001    505.440
 63.670    613.410    573.169     40.241    505.533    570.691    505.533    507.997    505.533
 63.770    564.927    587.264    -22.337    505.626    584.866    505.626    508.003    505.626
 63.870    658.000    610.402     47.598    505.719    608.075    505.719    508.016    505.719
 63.970    654.689    645.059      9.630    505.812    642.791    505.812    508.036    505.812
 64.070    656.494    692.848    -36.355    505.905    690.630    505.905    508.062    505.905
 64.170    733.000    753.421    -20.421    505.999    751.245    505.999    508.093    505.999
 64.270    876.105    823.412     52.693    506.092    821.272    506.092    508.130    506.092
 64.370    925.000    895.759     29.241    506.186    893.654    506.186    508.171    506.186
 64.470    995.000    959.916     35.084    506.280    957.849    506.280    508.216    506.280
 64.570    975.172   1004.046    -28.875    506.374   1002.027    506.374    508.265    506.374
 64.670   1040.958   1019.607     21.351    506.468   1017.643    506.468    508.317    506.468
 64.770   1062.000   1005.128     56.872    506.562   1003.225    506.562    508.373    506.562
 64.870    961.215    965.824     -4.609    506.656    963.985    506.656    508.432    506.656
 64.970    892.000    910.769    -18.769    506.750    908.991    506.750    508.494    506.750
 65.070    839.000    849.896    -10.896    506.845    848.171    506.845    508.559    506.845
 65.170    757.175    791.249    -34.074    506.939    789.571    506.939    508.626    506.939
 65.270    733.000    739.434     -6.434    507.034    737.792    507.034    508.696    507.034
 65.370    699.594    695.864      3.729    507.128    694.251    507.128    508.768    507.128
 65.470    684.000    660.186     23.814    507.223    658.593    507.223    508.842    507.223
 65.570    602.000    631.567    -29.567    507.317    629.989    507.317    508.919    507.317
 65.670    587.418    609.155    -21.737    507.412    607.588    507.412    508.997    507.412
 65.770    576.000    592.095    -16.095    507.507    590.536    507.507    509.077    507.507
 65.870    560.000    579.553    -19.553    507.601    578.002    507.601    509.159    507.601
 65.970    598.000    570.769     27.231    507.696    569.225    507.696    509.243    507.696
 66.070    540.000    565.062    -25.062    507.790    563.524    507.790    509.329    507.790
 66.170    567.619    561.840      5.780    507.885    560.308    507.885    509.416    507.885
 66.270    569.000    560.605      8.395    507.979    559.080    507.979    509.504    507.979
 66.370    588.189    560.991     27.197    508.074    559.469    508.074    509.595    508.074
 66.470    563.000    562.794      0.206    508.168    561.275    508.168    509.688    508.168
 66.570    595.761    566.044     29.717    508.262    564.524    508.262    509.782    508.262
 66.670    521.000    571.107    -50.107    508.356    569.586    508.356    509.878    508.356
 66.770    564.000    578.895    -14.895    508.451    577.370    508.451    509.976    508.451
 66.870    541.000    591.198    -50.198    508.545    589.668    508.545    510.075    508.545
 66.970    624.119    611.163     12.957    508.638    609.624    508.638    510.176    508.638
 67.070    642.000    643.798     -1.798    508.732    642.247    508.732    510.279    508.732
 67.170    660.000    696.289    -36.289    508.826    694.722    508.826    510.384    508.826
 67.270    783.000    777.719      5.281    508.919    776.134    508.919    510.491    508.919
 67.370    888.000    897.779     -9.779    509.013    896.175    509.013    510.599    509.013
 67.470   1106.795   1064.236     42.559    509.106   1062.612    509.106    510.710    509.106
 67.570   1308.000   1279.370     28.630    509.199   1277.732    509.199    510.822    509.199
 67.670   1520.000   1536.203    -16.203    509.292   1534.560    509.292    510.937    509.292
 67.770   1808.000   1815.611     -7.611    509.385   1813.974    509.385    511.054    509.385
 67.870   1998.898   2085.383    -86.485    509.478   2083.768    509.478    511.174    509.478
 67.970   2387.000   2302.728     84.272    509.570   2301.147    509.570    511.296    509.570
 68.070   2496.000   2423.263     72.737    509.662   2421.721    509.662    511.421    509.662
 68.170   2406.000   2417.868    -11.868    509.754   2416.354    509.754    511.549    509.754
 68.270   2241.447   2288.029    -46.582    509.846   2286.515    509.846    511.680    509.846
 68.370   2005.155   2064.908    -59.752    509.937   2063.357    509.937    511.814    509.937
 68.470   1852.000   1793.243     58.757    510.029   1791.624    510.029    511.952    510.029
 68.570   1526.000   1515.120     10.880    510.120   1513.408    510.120    512.094    510.120
 68.670   1264.000   1261.667      2.333    510.210   1259.848    510.210    512.241    510.210
 68.770   1077.000   1050.914     26.086    510.301   1048.984    510.301    512.392    510.301
 68.870    872.991    888.931    -15.940    510.391    886.890    510.391    512.548    510.391
 68.970    712.000    772.830    -60.830    510.481    770.680    510.481    512.709    510.481
 69.070    723.000    694.566     28.434    510.571    692.311    510.571    512.877    510.571
 69.170    654.000    644.423      9.577    510.660    642.065    510.660    513.052    510.660
 69.270    645.000    613.447     31.553    510.749    610.984    510.749    513.234    510.749
 69.370    637.000    594.628     42.372    510.838    592.056    510.838    513.424    510.838
 69.470    616.000    583.111     32.889    510.927    580.423    510.927    513.624    510.927
 69.570    599.000    575.851     23.149    511.015    573.039    511.015    513.834    511.015
 69.670    605.000    571.089     33.911    511.102    568.141    511.102    514.055    511.102
 69.770    559.000    567.874     -8.874    511.190    564.778    511.190    514.289    511.190
 69.870    589.545    565.716     23.829    511.277    562.457    511.277    514.538    511.277
 69.970    571.000    564.373      6.627    511.364    560.934    511.364    514.804    511.364
 70.070    569.000    563.731      5.269    511.450    560.094    511.450    515.088    511.450
 70.170    592.289    563.756     28.533    511.536    559.898    511.536    515.394    511.536
 70.270    561.000    564.478     -3.478    511.622    560.374    511.622    515.724    511.622
 70.370    562.000    566.009     -4.009    511.707    561.631    511.707    516.083    511.707
 70.470    592.000    568.603     23.397    511.791    563.917    511.791    516.475    511.791
 70.570    568.000    572.755     -4.755    511.876    567.721    511.876    516.904    511.876
 70.670    604.676    579.365     25.311    511.960    573.938    511.960    517.379    511.960
 70.770    613.304    589.972     23.332    512.043    584.095    512.043    517.908    512.043
 70.870    593.000    607.019    -14.019    512.126    600.623    512.126    518.504    512.126
 70.970    627.000    634.075     -7.075    512.209    627.071    512.209    519.186    512.209
 71.070    657.000    675.859    -18.859    512.291    668.128    512.291    519.980    512.291
 71.170    753.278    737.898     15.380    512.373    729.276    512.373    520.934    512.373
 71.270    796.000    825.640    -29.640    512.454    815.889    512.454    522.119    512.454
 71.370    923.000    942.986    -19.986    512.535    931.753    512.535    523.652    512.535
 71.470   1130.000   1090.448     39.552    512.615   1077.204    512.615    525.712    512.615
 71.570   1267.000   1263.326      3.674    512.695   1247.281    512.695    528.562    512.695
 71.670   1429.000   1450.414    -21.414    512.774   1430.413    512.774    532.574    512.774
 71.770   1602.000   1633.657    -31.657    512.853   1608.070    512.853    538.226    512.853
 71.870   1823.000   1789.377     33.623    512.931   1756.004    512.931    546.094    512.931
 71.970   1819.027   1892.332    -73.306    513.008   1848.362    513.008    556.790    513.008
 72.070   1913.000   1923.668    -10.668    513.086   1865.732    513.086    570.869    513.086
 72.170   1861.000   1879.658    -18.658    513.162   1804.020    513.162    588.687    513.162
 72.270   1791.181   1773.838     17.343    513.238   1676.759    513.238    610.241    513.238
 72.370   1621.000   1630.036     -9.036    513.314   1508.300    513.314    635.004    513.314
 72.470   1478.000   1472.840      5.160    513.389   1324.433    513.389    661.770    513.389
 72.570   1374.550   1321.551     53.000    513.463   1146.460    513.463    688.539    513.463
 72.670   1245.528   1187.917     57.611    513.537    988.960    513.537    712.485    513.537
 72.770   1039.000   1076.196    -37.196    513.610    859.602    513.610    730.196    513.610
 72.870    920.000    984.917    -64.917    513.682    760.109    513.682    738.483    513.682
 72.970    893.295    909.833    -16.538    513.754    687.936    513.754    735.643    513.754
 73.070    807.044    846.688    -39.645    513.826    638.191    513.826    722.314    513.826
 73.170    810.721    792.550     18.171    513.896    605.310    513.896    701.129    513.896
 73.270    772.778    745.763     27.015    513.967    584.216    513.967    675.507    513.967
 73.370    631.000    705.467    -74.467    514.036    570.895    514.036    648.604    514.036
 73.470    634.000    671.233    -37.233    514.105    562.510    514.105    622.825    514.105
 73.570    683.485    642.822     40.662    514.173    557.243    514.173    599.751    514.173
 73.670    621.000    620.018      0.982    514.240    554.034    514.240    580.225    514.240
 73.770    632.029    602.489     29.540    514.307    552.314    514.307    564.487    514.307
 73.870    599.000    589.743      9.257    514.373    551.789    514.373    552.336    514.373
 73.970    597.000    581.132     15.868    514.439    552.288    514.439    543.296    514.439
 74.070    586.000    575.897     10.103    514.504    553.650    514.504    536.769    514.504
 74.170    573.554    573.219      0.335    514.568    555.657    514.568    532.153    514.568
 74.270    570.000    572.258     -2.258    514.631    557.998    514.631    528.921    514.631
 74.370    635.000    572.180     62.820    514.694    560.263    514.694    526.646    514.694
 74.470    624.000    572.191     51.809    514.756    561.970    514.756    525.017    514.756
 74.570    647.000    571.615     75.385    514.817    562.660    514.817    523.815    514.817
 74.670    629.000    570.017     58.983    514.878    562.043    514.878    522.894    514.878
 74.770    642.000    567.317     74.683    514.937    560.132    514.937    522.165    514.937
 74.870    625.000    563.773     61.227    514.996    557.238    514.996    521.568    514.996
 74.970    559.528    559.838     -0.310    515.055    553.856    515.055    521.069    515.055
 75.070    552.000    556.029     -4.029    515.112    550.522    515.112    520.644    515.112
 75.170    557.000    552.844      4.156    515.169    547.753    515.169    520.279    515.169
 75.270    595.663    550.758     44.905    515.225    546.033    515.225    519.963    515.225
 75.370    566.000    550.237     15.763    515.280    545.836    515.280    519.688    515.280
 75.470    571.000    551.763     19.237    515.334    547.651    515.334    519.448    515.334
 75.570    520.000    555.848    -35.848    515.388    551.994    515.388    519.237    515.388
 75.670    588.000    563.003     24.997    515.441    559.381    515.441    519.053    515.441
 75.770    589.935    573.661     16.275    515.493    570.246    515.493    518.890    515.493
 75.870    558.334    588.041    -29.706    515.544    584.812    515.544    518.748    515.544
 75.970    628.000    605.985     22.015    515.594    602.924    515.594    518.622    515.594
 76.070    626.000    626.799     -0.799    515.644    623.889    515.644    518.511    515.644
 76.170    650.077    649.144      0.933    515.692    646.372    515.692    518.414    515.692
 76.270    615.000    671.012    -56.012    515.740    668.367    515.740    518.328    515.740
 76.370    707.000    689.820     17.180    515.787    687.293    515.787    518.252    515.787
 76.470    660.230    702.741    -42.511    515.833    700.325    515.833    518.185    515.833
 76.570    724.616    707.402     17.214    515.879    705.092    515.879    518.126    515.879
 76.670    679.000    702.812    -23.812    515.923    700.604    515.923    518.075    515.923
 76.770    730.832    689.845     40.987    515.967    687.733    515.967    518.030    515.967
 76.870    673.000    670.798      2.202    516.009    668.778    516.009    517.990    516.009
 76.970    602.561    648.479    -45.918    516.051    646.544    516.051    517.956    516.051
 77.070    644.858    625.478     19.380    516.092    623.622    516.092    517.926    516.092
 77.170    588.000    603.815    -15.815    516.132    602.032    516.132    517.900    516.132
 77.270    573.000    584.831    -11.831    516.171    583.114    516.171    517.877    516.171
 77.370    542.519    569.196    -26.677    516.209    567.540    516.209    517.858    516.209
 77.470    539.000    557.017    -18.017    516.246    555.417    516.246    517.842    516.246
 77.570    566.375    547.995     18.380    516.283    546.446    516.283    517.828    516.283
 77.670    472.000    541.601    -69.601    516.318    540.100    516.318    517.817    516.318
 77.770    561.000    537.235     23.765    516.353    535.778    516.353    517.808    516.353
 77.870    493.000    534.334    -41.334    516.386    532.918    516.386    517.800    516.386
 77.970    523.000    532.435     -9.435    516.419    531.058    516.419    517.795    516.419
 78.070    490.491    531.192    -40.701    516.450    529.851    516.450    517.790    516.450
 78.170    506.000    530.368    -24.368    516.481    529.061    516.481    517.787    516.481
 78.270    493.554    529.810    -36.256    516.511    528.535    516.511    517.786    516.511
 78.370    504.000    529.428    -25.428    516.540    528.182    516.540    517.785    516.540
 78.470    538.459    529.170      9.290    516.567    527.951    516.567    517.785    516.567
 78.570    527.000    528.998     -1.998    516.594    527.805    516.594    517.786    516.594
 78.670    511.000    528.921    -17.921    516.620    527.752    516.620    517.789    516.620
 78.770    532.000    528.979      3.021    516.645    527.832    516.645    517.792    516.645
 78.870    488.435    529.168    -40.733    516.669    528.039    516.669    517.796    516.669
 78.970    471.000    529.509    -58.509    516.692    528.398    516.692    517.802    516.692
 79.070    558.000    530.034     27.966    516.713    528.937    516.713    517.809    516.713
 79.170    522.000    530.774     -8.774    516.734    529.687    516.734    517.819    516.734
 79.270    556.187    531.760     24.427    516.754    530.681    516.754    517.831    516.754
 79.370    548.000    533.020     14.980    516.773    531.943    516.773    517.847    516.773
 79.470    540.000    534.581      5.419    516.791    533.501    516.791    517.867    516.791
 79.570    527.241    536.474     -9.233    516.807    535.384    516.807    517.893    516.807
 79.670    555.773    538.746     17.027    516.823    537.638    516.823    517.926    516.823
 79.770    507.475    541.477    -34.002    516.838    540.344    516.838    517.965    516.838
 79.870    525.000    544.802    -19.802    516.852    543.635    516.852    518.012    516.852
 79.970    534.000    548.936    -14.936    516.864    547.728    516.864    518.066    516.864
 80.070    533.855    554.201    -20.346    516.876    552.945    516.876    518.126    516.876
 80.170    574.000    561.025     12.975    516.886    559.717    516.886    518.191    516.886
 80.270    598.233    569.894     28.339    516.896    568.532    516.896    518.257    516.896
 80.370    595.965    581.256     14.709    516.904    579.842    516.904    518.320    516.904
 80.470    594.000    595.402     -1.402    516.911    593.944    516.911    518.374    516.911
 80.570    573.000    612.358    -39.358    516.917    610.870    516.917    518.414    516.917
 80.670    603.000    631.798    -28.798    516.923    630.301    516.923    518.434    516.923
 80.770    679.000    653.004     25.996    516.927    651.521    516.927    518.429    516.927
 80.870    625.000    674.883    -49.883    516.930    673.437    516.930    518.401    516.930
 80.970    652.000    696.083    -44.083    516.931    694.695    516.931    518.351    516.931
 81.070    683.528    715.196    -31.669    516.932    713.880    516.932    518.287    516.932
 81.170    763.882    730.943     32.939    516.932    729.706    516.932    518.214    516.932
 81.270    683.000    742.287    -59.287    516.930    741.131    516.930    518.138    516.930
 81.370    736.000    748.516    -12.516    516.928    747.438    516.928    518.063    516.928
 81.470    743.000    749.321     -6.321    516.924    748.316    516.924    517.992    516.924
 81.570    833.000    744.815     88.185    516.919    743.874    516.919    517.926    516.919
 81.670    777.000    735.483     41.517    516.914    734.597    516.914    517.868    516.914
 81.770    751.000    722.156     28.844    516.907    721.315    516.907    517.816    516.907
 81.870    700.000    705.982     -5.982    516.898    705.176    516.898    517.771    516.898
 81.970    713.000    688.265     24.735    516.889    687.488    516.889    517.731    516.889
 82.070    723.000    670.193     52.807    516.879    669.437    516.879    517.697    516.879
 82.170    656.936    652.620      4.316    516.867    651.880    516.867    517.666    516.867
 82.270    649.000    636.014     12.986    516.855    635.285    516.855    517.638    516.855
 82.370    637.000    620.568     16.432    516.841    619.846    516.841    517.612    516.841
 82.470    604.000    606.374     -2.374    516.826    605.657    516.826    517.587    516.826
 82.570    558.805    593.548    -34.744    516.810    592.834    516.810    517.563    516.810
 82.670    612.000    582.258     29.742    516.792    581.543    516.792    517.540    516.792
 82.770    532.213    572.677    -40.464    516.774    571.961    516.774    517.516    516.774
 82.870    545.000    564.959    -19.959    516.755    564.241    516.755    517.491    516.755
 82.970    575.106    559.216     15.890    516.734    558.495    516.734    517.467    516.734
 83.070    602.000    555.504     46.496    516.712    554.779    516.712    517.441    516.712
 83.170    545.000    553.812     -8.812    516.689    553.083    516.689    517.415    516.689
 83.270    546.000    554.041     -8.041    516.665    553.307    516.665    517.388    516.665
 83.370    549.000    555.985     -6.985    516.639    555.246    516.639    517.361    516.639
 83.470    551.000    559.322     -8.322    516.613    558.578    516.613    517.332    516.613
 83.570    537.000    563.613    -26.613    516.585    562.864    516.585    517.303    516.585
 83.670    608.302    568.315     39.987    516.556    567.561    516.556    517.273    516.556
 83.770    561.000    572.805    -11.805    516.526    572.047    516.526    517.242    516.526
 83.870    604.959    576.431     28.528    516.495    575.671    516.495    517.210    516.495
 83.970    582.000    578.595      3.405    516.462    577.834    516.462    517.178    516.462
 84.070    542.959    578.876    -35.917    516.428    578.116    516.428    517.144    516.428
 84.170    590.692    577.146     13.546    516.394    576.388    516.394    517.110    516.394
 84.270    536.000    573.602    -37.602    516.358    572.848    516.358    517.074    516.358
 84.370    523.283    568.684    -45.402    516.320    567.934    516.320    517.038    516.320
 84.470    561.243    562.936     -1.692    516.282    562.189    516.282    517.001    516.282
 84.570    581.000    556.891     24.109    516.242    556.148    516.242    516.962    516.242
 84.670    537.000    551.004    -14.004    516.201    550.263    516.201    516.923    516.201
 84.770    543.000    545.617     -2.617    516.159    544.879    516.159    516.883    516.159
 84.870    529.000    540.950    -11.950    516.116    540.213    516.116    516.842    516.116
 84.970    566.647    537.106     29.541    516.072    536.369    516.072    516.800    516.072
 85.070    504.000    534.091    -30.091    516.026    533.354    516.026    516.757    516.026
 85.170    538.000    531.844      6.156    515.979    531.105    515.979    516.713    515.979
 85.270    562.975    530.263     32.712    515.931    529.521    515.931    516.668    515.931
 85.370    550.000    529.236     20.764    515.882    528.491    515.882    516.623    515.882
 85.470    529.000    528.661      0.339    515.831    527.912    515.831    516.576    515.831
 85.570    542.000    528.462     13.538    515.780    527.708    515.780    516.528    515.780
 85.670    525.000    528.597     -3.597    515.727    527.839    515.727    516.480    515.727
 85.770    514.000    529.066    -15.066    515.673    528.303    515.673    516.430    515.673
 85.870    520.000    529.911     -9.911    515.617    529.141    515.617    516.380    515.617
 85.970    542.250    531.216     11.034    515.561    530.440    515.561    516.329    515.561
 86.070    569.962    533.111     36.852    515.503    532.326    515.503    516.276    515.503
 86.170    534.037    535.758     -1.721    515.444    534.963    515.444    516.223    515.444
 86.270    533.000    539.346     -6.346    515.384    538.540    515.384    516.169    515.384
 86.370    522.000    544.068    -22.068    515.323    543.250    515.323    516.114    515.323
 86.470    584.000    550.092     33.908    515.260    549.259    515.260    516.059    515.260
 86.570    563.000    557.525      5.475    515.196    556.676    515.196    516.002    515.196
 86.670    608.762    566.371     42.390    515.131    565.505    515.131    515.945    515.131
 86.770    541.476    576.492    -35.015    515.065    575.606    515.065    515.886    515.065
 86.870    545.035    587.568    -42.533    514.997    586.662    514.997    515.827    514.997
 86.970    597.000    599.083     -2.083    514.929    598.156    514.929    515.767    514.929
 87.070    622.000    610.356     11.644    514.859    609.409    514.859    515.707    514.859
 87.170    659.000    620.539     38.461    514.788    619.573    514.788    515.645    514.788
 87.270    681.000    628.692     52.308    514.715    627.710    514.715    515.583    514.715
 87.370    692.000    633.947     58.053    514.642    632.952    514.642    515.520    514.642
 87.470    566.000    635.707    -69.707    514.567    634.704    514.567    515.457    514.567
 87.570    670.000    633.818     36.182    514.491    632.810    514.491    515.393    514.491
 87.670    626.000    628.621     -2.621    514.414    627.611    514.414    515.328    514.414
 87.770    620.677    620.838     -0.161    514.335    619.827    514.335    515.263    514.335
 87.870    634.000    611.398     22.602    514.256    610.387    514.256    515.197    514.256
 87.970    609.877    601.278      8.599    514.175    600.266    514.175    515.130    514.175
 88.070    569.269    591.398    -22.129    514.093    590.384    514.093    515.064    514.093
 88.170    632.000    582.552     49.448    514.010    581.534    514.010    514.996    514.010
 88.270    575.143    575.363     -0.220    513.925    574.338    513.925    514.929    513.925
 88.370    607.000    570.257     36.743    513.839    569.224    513.839    514.861    513.839
 88.470    602.522    567.459     35.063    513.753    566.416    513.753    514.792    513.753
 88.570    534.855    566.998    -32.143    513.664    565.944    513.664    514.724    513.664
 88.670    571.000    568.720      2.280    513.575    567.653    513.575    514.656    513.575
 88.770    589.000    572.306     16.694    513.485    571.224    513.485    514.587    513.485
 88.870    538.454    577.297    -38.843    513.393    576.199    513.393    514.519    513.393
 88.970    595.442    583.114     12.329    513.300    581.999    513.300    514.450    513.300
 89.070    548.762    589.092    -40.330    513.206    587.959    513.206    514.382    513.206
 89.170    613.000    594.513     18.487    513.111    593.360    513.111    514.313    513.111
 89.270    615.000    598.672     16.328    513.014    597.496    513.014    514.246    513.014
 89.370    605.076    600.963      4.113    512.917    599.760    512.917    514.179    512.917
 89.470    626.000    600.997     25.003    512.818    599.763    512.818    514.114    512.818
 89.570    612.000    598.693     13.307    512.718    597.423    512.718    514.049    512.718
 89.670    548.000    594.281    -46.281    512.617    592.972    512.617    513.986    512.617
 89.770    573.000    588.228    -15.228    512.514    586.874    512.514    513.924    512.514
 89.870    562.000    581.106    -19.106    512.411    579.703    512.411    513.864    512.411
 89.970    590.863    573.492     17.371    512.306    572.036    512.306    513.806    512.306
 90.070    608.843    565.896     42.947    512.200    564.383    512.200    513.750    512.200
 90.170    543.000    558.730    -15.730    512.093    557.156    512.093    513.698    512.093
 90.270    557.219    552.288      4.930    511.984    550.650    511.984    513.648    511.984
 90.370    512.354    546.751    -34.396    511.875    545.042    511.875    513.603    511.875
 90.470    531.000    542.191    -11.191    511.764    540.407    511.764    513.562    511.764
 90.570    582.000    538.596     43.404    511.653    536.732    511.653    513.527    511.653
 90.670    568.516    535.894     32.622    511.540    533.942    511.540    513.500    511.540
 90.770    510.000    533.979    -23.979    511.426    531.928    511.426    513.481    511.426
 90.870    513.000    532.733    -19.733    511.311    530.572    511.311    513.475    511.311
 90.970    487.296    532.050    -44.754    511.194    529.762    511.194    513.483    511.194
 91.070    557.909    531.845     26.064    511.077    529.409    511.077    513.512    511.077
 91.170    566.048    532.069     33.979    510.958    529.458    510.958    513.568    510.958
 91.270    545.000    532.709     12.291    510.838    529.885    510.838    513.660    510.838
 91.370    555.000    533.762     21.238    510.717    530.676    510.717    513.800    510.717
 91.470    532.000    535.377     -3.377    510.595    531.965    510.595    514.003    510.595
 91.570    557.945    537.670     20.275    510.472    533.849    510.472    514.287    510.472
 91.670    514.000    540.796    -26.796    510.348    536.461    510.348    514.675    510.348
 91.770    544.000    544.961     -0.961    510.223    539.980    510.223    515.194    510.223
 91.870    524.000    550.406    -26.406    510.096    544.616    510.096    515.873    510.096
 91.970    555.244    557.386     -2.142    509.969    550.595    509.969    516.742    509.969
 92.070    595.406    566.140     29.266    509.840    558.125    509.840    517.834    509.840
 92.170    586.000    576.876      9.124    509.710    567.384    509.710    519.175    509.710
 92.270    628.000    589.736     38.264    509.579    578.493    509.579    520.789    509.579
 92.370    579.000    604.765    -25.765    509.447    591.485    509.447    522.688    509.447
 92.470    609.000    621.885    -12.885    509.314    606.282    509.314    524.871    509.314
 92.570    680.000    640.874     39.126    509.180    622.679    509.180    527.322    509.180
 92.670    638.073    661.345    -23.272    509.045    640.328    509.045    530.001    509.045
 92.770    655.000    682.747    -27.747    508.909    658.741    508.909    532.848    508.909
 92.870    809.000    704.380    104.620    508.771    677.305    508.771    535.774    508.771
 92.970    720.000    725.447     -5.447    508.633    695.342    508.633    538.661    508.633
 93.070    724.000    745.150    -21.150    508.494    712.202    508.494    541.362    508.494
 93.170    763.594    762.823      0.772    508.353    727.390    508.353    543.705    508.353
 93.270    749.000    778.053    -29.053    508.212    740.679    508.212    545.505    508.212
 93.370    804.134    790.722     13.412    508.069    752.120    508.069    546.592    508.069
 93.470    806.689    800.953      5.736    507.926    761.957    507.926    546.844    507.926
 93.570    799.000    809.050    -10.050    507.781    770.534    507.781    546.222    507.781
 93.670    867.000    815.433     51.567    507.636    778.218    507.636    544.778    507.636
 93.770    848.027    820.621     27.406    507.489    785.398    507.489    542.643    507.489
 93.870    816.000    825.239     -9.239    507.341    792.525    507.341    539.988    507.341
 93.970    815.000    829.999    -14.999    507.193    800.125    507.193    537.003    507.193
 94.070    809.696    835.599    -25.903    507.043    808.725    507.043    533.855    507.043
 94.170    862.000    842.553     19.447    506.893    818.697    506.893    530.689    506.893
 94.270    849.000    851.019     -2.019    506.741    830.086    506.741    527.616    506.741
 94.370    861.559    860.685      0.874    506.589    842.496    506.589    524.722    506.589
 94.470    912.000    870.745     41.255    506.435    855.063    506.435    522.065    506.435
 94.570    832.000    879.956    -47.956    506.281    866.510    506.281    519.680    506.281
 94.670    922.000    886.781     35.219    506.126    875.285    506.126    517.581    506.126
 94.770    919.000    889.609     29.391    505.970    879.777    505.970    515.767    505.970
 94.870    934.726    887.062     47.664    505.812    878.624    505.812    514.224    505.812
 94.970    928.000    878.321     49.679    505.654    871.029    505.654    512.929    505.654
 95.070    927.000    863.351     63.649    505.495    856.984    505.495    511.853    505.495
 95.170    849.000    842.918      6.082    505.335    837.286    505.335    510.965    505.335
 95.270    819.000    818.417      0.583    505.175    813.362    505.175    510.235    505.175
 95.370    820.000    791.617     28.383    505.013    787.006    505.013    509.632    505.013
 95.470    715.492    764.424    -48.932    504.850    760.151    504.850    509.133    504.850
 95.570    704.000    738.725    -34.725    504.687    734.708    504.687    508.714    504.687
 95.670    689.833    716.284    -26.452    504.522    712.457    504.522    508.358    504.522
 95.770    702.160    698.678      3.482    504.357    694.989    504.357    508.051    504.357
 95.870    737.000    687.327     49.673    504.191    683.737    504.191    507.781    504.191
 95.970    671.000    683.411    -12.411    504.024    679.888    504.024    507.540    504.024
 96.070    662.000    687.912    -25.912    503.857    684.431    503.857    507.321    503.857
 96.170    687.000    701.619    -14.619    503.688    698.161    503.688    507.121    503.688
 96.270    728.000    725.116      2.884    503.519    721.663    503.519    506.936    503.519
 96.370    756.000    758.732     -2.732    503.349    755.270    503.349    506.764    503.349
 96.470    858.040    802.474     55.566    503.178    798.990    503.178    506.604    503.178
 96.570    904.919    855.932     48.987    503.006    852.414    503.006    506.454    503.006
 96.670    908.320    918.184     -9.864    502.833    914.623    502.833    506.314    502.833
 96.770   1013.000    987.693     25.307    502.660    984.079    502.660    506.184    502.660
 96.870   1072.268   1062.253     10.015    502.486   1058.579    502.486    506.063    502.486
 96.970   1090.000   1138.975    -48.975    502.311   1135.233    502.311    505.952    502.311
 97.070   1178.000   1214.320    -36.320    502.136   1210.503    502.136    505.850    502.136
 97.170   1324.751   1284.221     40.530    501.960   1280.323    501.960    505.759    501.960
 97.270   1325.000   1344.318    -19.318    501.783   1340.332    501.783    505.678    501.783
 97.370   1343.983   1390.376    -46.394    501.605   1386.296    501.605    505.609    501.605
 97.470   1466.201   1418.880     47.321    501.427   1414.697    501.427    505.552    501.427
 97.570   1405.000   1427.669    -22.669    501.248   1423.371    501.248    505.507    501.248
 97.670   1385.000   1416.379    -31.379    501.068   1411.953    501.068    505.478    501.068
 97.770   1321.000   1386.460    -65.460    500.888   1381.887    500.888    505.465    500.888
 97.870   1408.779   1340.792     67.987    500.707   1336.051    500.707    505.470    500.707
 97.970   1325.551   1283.116     42.435    500.525   1278.180    500.525    505.498    500.525
 98.070   1235.000   1217.512     17.488    500.343   1212.350    500.343    505.551    500.343
 98.170   1113.000   1148.025    -35.025    500.160   1142.602    500.160    505.636    500.160
 98.270   1103.000   1078.431     24.569    499.976   1072.702    499.976    505.760    499.976
 98.370   1032.927   1012.084     20.843    499.792   1005.996    499.792    505.934    499.792
 98.470    979.000    951.847     27.153    499.607    945.332    499.607    506.171    499.607
 98.570    917.589    900.070     17.518    499.422    893.044    499.422    506.491    499.422
 98.670    868.000    858.612      9.388    499.236    850.967    499.236    506.916    499.236
 98.770    793.000    828.888    -35.888    499.050    820.485    499.050    507.478    499.050
 98.870    803.000    811.945     -8.945    498.863    802.607    498.863    508.216    498.863
 98.970    788.000    808.532    -20.532    498.676    798.034    498.676    509.178    498.676
 99.070    783.000    819.164    -36.164    498.488    807.224    498.488    510.424    498.488
 99.170    887.000    844.158     42.842    498.299    830.424    498.299    512.021    498.299
 99.270    874.321    883.621     -9.300    498.110    867.667    498.110    514.047    498.110
 99.370    956.081    937.409     18.672    497.921    918.719    497.921    516.587    497.921
 99.470    963.000   1005.090    -42.090    497.731    983.062    497.731    519.732    497.731
 99.570   1038.687   1085.803    -47.116    497.541   1059.746    497.541    523.571    497.541
 99.670   1166.000   1178.174    -12.174    497.350   1147.312    497.350    528.188    497.350
 99.770   1282.624   1280.232      2.392    497.159   1243.721    497.159    533.652    497.159
 99.870   1369.000   1389.345    -20.345    496.967   1346.293    496.967    540.012    496.967
 99.970   1532.000   1502.198     29.802    496.775   1451.694    496.775    547.286    496.775
100.070   1651.000   1614.863     36.137    496.583   1556.021    496.583    555.451    496.583
100.170   1726.072   1722.992      3.080    496.390   1654.992    496.390    564.438    496.390
100.270   1834.871   1822.141     12.730    496.197   1744.289    496.197    574.120    496.197
100.370   1959.000   1908.172     50.828    496.004   1819.960    496.004    584.313    496.004
100.470   2028.000   1977.598     50.402    495.810   1878.768    495.810    594.763    495.810
100.570   2145.000   2027.742    117.258    495.616   1918.357    495.616    605.148    495.616
100.670   2065.000   2056.722      8.278    495.421   1937.237    495.421    615.074    495.421
100.770   2114.000   2063.406     50.594    495.227   1934.731    495.227    624.088    495.227
100.870   2089.498   2047.504     41.994    495.032   1911.042    495.032    631.693    495.032
100.970   2080.000   2009.823     70.177    494.837   1867.469    494.837    637.397    494.837
101.070   1967.000   1952.511     14.489    494.641   1806.586    494.641    640.776    494.641
101.170   1894.000   1879.079     14.921    494.446   1732.187    494.446    641.545    494.446
101.270   1777.139   1794.089    -16.950    494.250   1648.912    494.250    639.627    494.250
101.370   1703.036   1702.606      0.430    494.054   1561.687    494.054    635.162    494.054
101.470   1618.000   1609.614      8.386    493.857   1475.166    493.857    628.482    493.857
101.570   1486.000   1519.539    -33.539    493.661   1393.322    493.661    620.038    493.661
101.670   1446.000   1435.938     10.062    493.465   1319.214    493.465    610.332    493.465
101.770   1394.000   1361.340     32.660    493.268   1254.886    493.268    599.851    493.268
101.870   1280.000   1297.202    -17.202    493.071   1201.354    493.071    589.033    493.071
101.970   1223.000   1243.935    -20.935    492.874   1158.659    492.874    578.251    492.874
102.070   1222.000   1201.000     21.000    492.677   1125.960    492.677    567.808    492.677
102.170   1117.000   1167.041    -50.041    492.480   1101.669    492.480    557.936    492.480
102.270   1078.000   1140.063    -62.063    492.283   1083.621    492.283    548.804    492.283
102.370   1120.000   1117.649      2.351    492.086   1069.292    492.086    540.519    492.086
102.470   1059.282   1097.237    -37.955    491.889   1056.064    491.889    533.137    491.889
102.570   1056.830   1076.429    -19.599    491.692   1041.529    491.692    526.668    491.692
102.670   1022.038   1053.300    -31.262    491.495   1023.788    491.495    521.085    491.495
102.770   1034.000   1026.631      7.369    491.298   1001.677    491.298    516.331    491.298
102.870    988.000    995.983     -7.983    491.101    974.831    491.101    512.332    491.101
102.970    958.000    961.615     -3.615    490.904    943.596    490.904    509.002    490.904
103.070    865.000    924.292    -59.292    490.707    908.825    490.707    506.250    490.707
103.170    888.000    885.064      2.936    490.510    871.659    490.510    503.989    490.510
103.270    876.000    845.089     30.911    490.313    833.338    490.313    502.133    490.313
103.370    827.400    805.499     21.901    490.117    795.071    490.117    500.608    490.117
103.470    764.000    767.316     -3.316    489.921    757.945    489.921    499.348    489.921
103.570    807.000    731.396     75.604    489.724    722.871    489.724    498.299    489.724
103.670    724.035    698.394     25.641    489.529    690.553    489.529    497.413    489.529
103.770    717.474    668.756     48.718    489.333    661.470    489.333    496.655    489.333
103.870    668.415    642.713     25.702    489.137    635.885    489.137    495.996    489.137
103.970    626.000    620.307      5.693    488.942    613.861    488.942    495.414    488.942
104.070    640.000    601.418     38.582    488.747    595.295    488.747    494.890    488.747
104.170    631.000    585.806     45.194    488.552    579.960    488.552    494.414    488.552
104.270    565.000    573.150     -8.150    488.358    567.546    488.358    493.975    488.358
104.370    538.000    563.078    -25.078    488.164    557.685    488.164    493.566    488.164
104.470    575.232    555.226     20.007    487.970    550.020    487.970    493.182    487.970
104.570    529.000    549.232    -20.232    487.777    544.194    487.777    492.819    487.777
104.670    522.000    544.771    -22.771    487.584    539.883    487.584    492.475    487.584
104.770    537.000    541.568     -4.568    487.391    536.813    487.391    492.146    487.391
104.870    506.614    539.398    -32.785    487.199    534.765    487.199    491.832    487.199
104.970    584.000    538.094     45.906    487.007    533.569    487.007    491.530    487.007
105.070    513.000    537.539    -24.539    486.816    533.111    486.816    491.240    486.816
105.170    571.000    537.666     33.334    486.625    533.325    486.625    490.961    486.625
105.270    583.332    538.451     44.880    486.435    534.187    486.435    490.692    486.435
105.370    500.739    539.912    -39.174    486.245    535.717    486.245    490.433    486.245
105.470    530.000    542.098    -12.098    486.056    537.963    486.056    490.182    486.056
105.570    538.000    545.087     -7.087    485.867    541.004    485.867    489.939    485.867
105.670    549.000    548.973      0.027    485.679    544.935    485.679    489.704    485.679
105.770    522.305    553.854    -31.549    485.492    549.854    485.492    489.476    485.492
105.870    572.834    559.820     13.014    485.305    555.851    485.305    489.255    485.305
105.970    567.000    566.936      0.064    485.119    562.992    485.119    489.042    485.119
106.070    582.000    575.230      6.770    484.934    571.305    484.934    488.834    484.934
106.170    652.000    584.682     67.318    484.749    580.769    484.749    488.633    484.749
106.270    565.736    595.208    -29.472    484.565    591.304    484.565    488.437    484.565
106.370    592.310    606.659    -14.349    484.382    602.763    484.382    488.244    484.382
106.470    612.000    618.830     -6.830    484.199    614.932    484.199    488.060    484.199
106.570    610.000    631.436    -21.436    484.018    627.531    484.018    487.882    484.018
106.670    626.000    644.138    -18.138    483.837    640.222    483.837    487.710    483.837
106.770    651.230    656.551     -5.321    483.657    652.620    483.657    487.544    483.657
106.870    680.000    668.256     11.744    483.477    664.306    483.477    487.383    483.477
106.970    647.908    678.833    -30.925    483.299    674.859    483.299    487.228    483.299
107.070    665.000    687.893    -22.893    483.122    683.893    483.122    487.078    483.122
107.170    674.000    695.131    -21.131    482.945    691.101    482.945    486.934    482.945
107.270    660.000    700.372    -40.372    482.770    696.308    482.770    486.794    482.770
107.370    664.000    703.607    -39.607    482.595    699.515    482.595    486.652    482.595
107.470    736.782    705.031     31.751    482.422    700.897    482.422    486.524    482.422
107.570    684.000    704.966    -20.966    482.249    700.784    482.249    486.402    482.249
107.670    700.000    703.838     -3.838    482.078    699.605    482.078    486.287    482.078
107.770    727.917    702.106     25.811    481.907    697.815    481.907    486.178    481.907
107.870    729.872    700.201     29.671    481.738    695.848    481.738    486.075    481.738
107.970    675.000    698.483    -23.483    481.570    694.062    481.570    485.979    481.570
108.070    659.659    697.210    -37.552    481.403    692.716    481.403    485.889    481.403
108.170    638.000    696.524    -58.524    481.237    691.949    481.237    485.807    481.237
108.270    708.001    696.435     11.565    481.072    691.775    481.072    485.731    481.072
108.370    690.000    696.832     -6.832    480.909    692.080    480.909    485.663    480.909
108.470    648.000    697.484    -49.484    480.746    692.633    480.746    485.603    480.746
108.570    653.000    698.061    -45.061    480.585    693.105    480.585    485.550    480.585
108.670    679.000    698.170    -19.170    480.426    693.101    480.426    485.506    480.426
108.770    732.040    697.394     34.647    480.267    692.204    480.267    485.471    480.267
108.870    670.000    695.348    -25.348    480.110    690.029    480.110    485.446    480.110
108.970    645.188    691.741    -46.553    479.955    686.285    479.955    485.430    479.955
109.070    644.000    686.419    -42.419    479.801    680.816    479.801    485.424    479.801
109.170    647.000    679.383    -32.383    479.648    673.623    479.648    485.429    479.648
109.270    709.227    670.782     38.445    479.496    664.855    479.496    485.446    479.496
109.370    619.859    660.876    -41.018    479.347    654.770    479.347    485.474    479.347
109.470    635.094    649.997    -14.903    479.198    643.700    479.198    485.516    479.198
109.570    621.200    638.503    -17.303    479.052    632.002    479.052    485.572    479.052
109.670    668.406    626.753     41.652    478.906    620.036    478.906    485.642    478.906
109.770    651.000    615.085     35.915    478.763    608.136    478.763    485.728    478.763
109.870    627.000    603.795     23.205    478.621    596.599    478.621    485.832    478.621
109.970    640.000    593.114     46.886    478.480    585.653    478.480    485.954    478.480
110.070    606.000    583.272     22.728    478.342    575.529    478.342    486.096    478.342
110.170    621.463    574.438     47.025    478.205    566.391    478.205    486.261    478.205
110.270    598.593    566.685     31.907    478.069    558.310    478.069    486.452    478.069
110.370    610.000    560.058     49.942    477.936    551.329    477.936    486.670    477.936
110.470    533.000    554.557    -21.557    477.804    545.444    477.804    486.921    477.804
110.570    557.456    550.149      7.307    477.674    540.617    477.674    487.209    477.674
110.670    548.000    546.774      1.226    477.546    536.780    477.546    487.540    477.546
110.770    531.314    544.352    -13.038    477.420    533.847    477.420    487.923    477.420
110.870    508.000    542.794    -34.794    477.296    531.720    477.296    488.368    477.296
110.970    558.000    542.010     15.990    477.174    530.295    477.174    488.886    477.174
111.070    537.000    541.913     -4.913    477.053    529.469    477.053    489.493    477.053
111.170    516.000    542.426    -26.426    476.935    529.145    476.935    490.210    476.935
111.270    556.537    543.483     13.054    476.819    529.234    476.819    491.061    476.819
111.370    528.279    545.035    -16.756    476.704    529.657    476.704    492.075    476.704
111.470    556.000    547.050      8.950    476.592    530.345    476.592    493.289    476.592
111.570    514.569    549.511    -34.942    476.482    531.241    476.482    494.745    476.482
111.670    519.407    552.425    -33.018    476.374    532.296    476.374    496.494    476.374
111.770    528.223    555.814    -27.591    476.268    533.477    476.268    498.596    476.268
111.870    598.101    559.721     38.379    476.165    534.757    476.165    501.119    476.165
111.970    546.000    564.210    -18.210    476.063    536.124    476.063    504.140    476.063
112.070    568.000    569.361     -1.361    475.964    537.573    475.964    507.742    475.964
112.170    541.878    575.273    -33.395    475.868    539.113    475.868    512.017    475.868
112.270    567.000    582.058    -15.058    475.773    540.758    475.773    517.062    475.773
112.370    620.886    589.841     31.045    475.681    542.535    475.681    522.976    475.681
112.470    663.000    598.750     64.250    475.591    544.474    475.591    529.856    475.591
112.570    653.823    608.921     44.901    475.504    546.617    475.504    537.796    475.504
112.670    575.000    620.488    -45.488    475.419    549.014    475.419    546.880    475.419
112.770    629.000    633.584     -4.584    475.337    551.731    475.337    557.176    475.337
112.870    684.129    648.338     35.791    475.257    554.847    475.257    568.733    475.257
112.970    636.000    664.875    -28.875    475.180    558.470    475.180    581.569    475.180
113.070    722.000    683.323     38.677    475.106    562.735    475.106    595.675    475.106
113.170    662.456    703.811    -41.355    475.034    567.824    475.034    611.001    475.034
113.270    695.405    726.483    -31.078    474.964    573.975    474.964    627.452    474.964
113.370    798.000    751.511     46.489    474.898    581.497    474.898    644.887    474.898
113.470    799.000    779.105     19.895    474.834    590.797    474.834    663.114    474.834
113.570    844.000    809.539     34.461    474.773    602.395    474.773    681.885    474.773
113.670    804.000    843.172    -39.172    474.714    616.957    474.714    700.894    474.714
113.770    874.000    880.477     -6.477    474.659    635.315    474.659    719.779    474.659
113.870    916.000    922.064     -6.064    474.606    658.503    474.606    738.118    474.606
113.970    988.959    968.716     20.242    474.557    687.776    474.557    755.439    474.557
114.070   1024.840   1021.419      3.421    474.510    724.635    474.510    771.224    474.510
114.170   1068.000   1081.393    -13.393    474.466    770.838    474.466    784.937    474.466
114.270   1175.645   1150.130     25.515    474.425    828.404    474.425    796.050    474.425
114.370   1166.593   1229.414    -62.821    474.387    899.592    474.387    804.087    474.387
114.470   1287.569   1321.341    -33.771    474.353    986.871    474.353    808.675    474.353
114.570   1421.000   1428.297     -7.297    474.321   1092.855    474.321    809.588    474.321
114.670   1601.000   1552.907     48.093    474.292   1220.213    474.292    806.777    474.292
114.770   1771.000   1697.918     73.082    474.267   1371.556    474.267    800.382    474.267
114.870   1836.000   1866.038    -30.038    474.245   1549.289    474.245    790.705    474.245
114.970   2144.610   2059.728     84.882    474.226   1755.442    474.226    778.176    474.226
115.070   2297.546   2280.961     16.586    474.211   1991.482    474.211    763.304    474.211
115.170   2594.000   2530.981     63.019    474.199   2258.116    474.199    746.626    474.199
115.270   2849.000   2810.075     38.925    474.190   2555.102    474.190    728.673    474.190
115.370   3154.000   3117.371     36.629    474.184   2881.073    474.184    709.941    474.184
115.470   3478.042   3450.676     27.366    474.182   3233.389    474.182    690.880    474.182
115.570   3787.000   3806.373    -19.373    474.184   3608.042    474.184    671.881    474.184
115.670   4060.000   4179.364   -119.364    474.189   3999.603    474.189    653.280    474.189
115.770   4503.000   4563.091    -60.091    474.197   4401.239    474.197    635.354    474.197
115.870   4793.000   4949.615   -156.615    474.209   4804.792    474.209    618.322    474.209
115.970   5206.000   5329.764   -123.764    474.225   5200.926    474.225    602.352    474.225
116.070   5583.013   5693.367   -110.355    474.244   5579.355    474.244    587.560    474.244
116.170   6077.000   6029.564     47.436    474.268   5929.148    474.268    574.019    474.268
116.270   6323.000   6327.231     -4.231    474.294   6239.152    474.294    561.759    474.294
116.370   6704.000   6575.540    128.460    474.325   6498.543    474.325    550.774    474.325
116.470   6890.101   6764.650    125.452    474.359   6697.514    474.359    541.031    474.359
116.570   6959.000   6886.501     72.499    474.398   6828.062    474.398    532.469    474.398
116.670   6785.348   6935.596   -150.247    474.440   6884.761    474.440    525.012    474.440
116.770   6921.000   6909.599     11.401    474.486   6865.361    474.486    518.572    474.486
116.870   6833.000   6809.607     23.393    474.536   6771.049    474.536    513.052    474.536
116.970   6744.000   6639.984    104.016    474.590   6606.285    474.590    508.353    474.590
117.070   6312.078   6407.865    -95.787    474.649   6378.295    474.649    504.378    474.649
117.170   6172.000   6122.436     49.564    474.711   6096.357    474.711    501.032    474.711
117.270   5615.000   5794.054   -179.054    474.777   5770.913    474.777    498.226    474.777
117.370   5395.954   5433.593    -37.639    474.848   5412.920    474.848    495.881    474.848
117.470   4976.000   5051.850    -75.850    474.923   5033.245    474.923    493.924    474.923
117.570   4533.000   4659.083   -126.083    475.002   4642.211    475.002    492.291    475.002
117.670   4329.000   4264.681     64.319    475.085   4249.262    475.085    490.928    475.085
117.770   3968.000   3876.920     91.080    475.173   3862.725    475.173    489.787    475.173
117.870   3517.495   3502.805     14.690    475.265   3489.643    475.265    488.830    475.265
117.970   3176.994   3147.980     29.014    475.362   3135.698    475.362    488.023    475.362
118.070   3014.000   2816.716    197.284    475.463   2805.188    475.463    487.339    475.463
118.170   2576.000   2511.951     64.049    475.568   2501.078    475.568    486.756    475.568
118.270   2333.000   2235.396     97.604    475.678   2225.094    475.678    486.258    475.678
118.370   2049.231   1987.663     61.567    475.793   1977.867    475.793    485.830    475.793
118.470   1796.466   1768.436     28.030    475.912   1759.092    475.912    485.461    475.912
118.570   1521.000   1576.640    -55.640    476.036   1567.704    476.036    485.142    476.036
118.670   1342.935   1410.620    -67.685    476.165   1402.058    476.165    484.867    476.165
118.770   1261.000   1268.317     -7.317    476.299   1260.098    476.299    484.629    476.299
118.870   1066.000   1147.427    -81.427    476.437   1139.526    476.437    484.425    476.437
118.970   1072.000   1045.537     26.463    476.580   1037.932    476.580    484.252    476.580
119.070   1001.000    960.247     40.753    476.728    952.920    476.728    484.106    476.728
119.170    835.328    889.260    -53.932    476.881    882.192    476.881    483.986    476.881
119.270    879.465    830.442     49.023    477.039    823.617    477.039    483.889    477.039
119.370    736.226    781.868    -45.643    477.202    775.272    477.202    483.816    477.202
119.470    728.739    741.841    -13.102    477.371    735.459    477.371    483.764    477.371
119.570    659.183    708.893    -49.710    477.544    702.711    477.544    483.733    477.544
119.670    710.000    681.777     28.223    477.722    675.781    477.722    483.723    477.722
119.770    683.000    659.454     23.546    477.906    653.630    477.906    483.733    477.906
119.870    675.644    641.064     34.581    478.095    635.398    478.095    483.763    478.095
119.970    603.000    625.909    -22.909    478.289    620.387    478.289    483.813    478.289
120.070    578.054    613.427    -35.373    478.489    608.034    478.489    483.883    478.489
120.170    616.000    603.167     12.833    478.694    597.889    478.694    483.974    478.694
120.270    571.000    594.774    -23.774    478.904    589.595    478.904    484.086    478.904
120.370    581.000    587.967     -6.967    479.120    582.870    479.120    484.219    479.120
120.470    602.143    582.525     19.618    479.341    577.494    479.341    484.375    479.341
120.570    600.047    578.277     21.770    479.568    573.295    479.568    484.553    479.568
120.670    575.000    575.088     -0.088    479.801    570.138    479.801    484.756    479.801
120.770    606.000    572.855     33.145    480.039    567.917    480.039    484.982    480.039
120.870    574.259    571.495      2.763    480.284    566.550    480.284    485.234    480.284
120.970    587.000    570.942     16.058    480.533    565.969    480.533    485.513    480.533
121.070    533.000    571.141    -38.141    480.789    566.120    480.789    485.817    480.789
121.170    589.000    572.042     16.958    481.051    566.953    481.051    486.149    481.051
121.270    549.512    573.602    -24.090    481.318    568.422    481.318    486.509    481.318
121.370    529.210    575.773    -46.563    481.591    570.481    481.591    486.895    481.591
121.470    558.000    578.506    -20.506    481.871    573.081    481.871    487.309    481.871
121.570    563.129    581.746    -18.617    482.156    576.168    482.156    487.750    482.156
121.670    591.000    585.431      5.569    482.448    579.681    482.448    488.215    482.448
121.770    605.000    589.491     15.509    482.746    583.552    482.746    488.706    482.746
121.870    635.680    593.848     41.832    483.050    587.703    483.050    489.218    483.050
121.970    607.314    598.413      8.901    483.360    592.048    483.360    489.750    483.360
122.070    581.459    603.089    -21.630    483.677    596.495    483.677    490.299    483.677
122.170    576.000    607.773    -31.773    484.000    600.941    484.000    490.862    484.000
122.270    634.000    612.352     21.648    484.329    605.280    484.329    491.435    484.329
122.370    587.253    616.713    -29.461    484.665    609.401    484.665    492.013    484.665
122.470    618.050    620.741     -2.691    485.007    613.196    485.007    492.591    485.007
122.570    612.000    624.324    -12.324    485.356    616.556    485.356    493.164    485.356
122.670    660.000    627.359     32.641    485.712    619.387    485.712    493.726    485.712
122.770    598.596    629.760    -31.164    486.074    621.607    486.074    494.271    486.074
122.870    611.000    631.459    -20.459    486.443    623.155    486.443    494.793    486.443
122.970    672.803    632.415     40.388    486.818    623.995    486.818    495.285    486.818
123.070    625.640    632.613     -6.973    487.201    624.117    487.201    495.744    487.201
123.170    629.000    632.066     -3.066    487.590    623.539    487.590    496.164    487.590
123.270    636.000    630.811      5.189    487.987    622.301    487.987    496.543    487.987
123.370    657.816    628.904     28.913    488.390    620.460    488.390    496.878    488.390
123.470    653.000    626.418     26.582    488.800    618.089    488.800    497.173    488.800
123.570    615.000    623.437     -8.437    489.218    615.266    489.218    497.429    489.218
123.670    604.000    620.045    -16.045    489.642    612.074    489.642    497.651    489.642
123.770    648.000    616.330     31.670    490.074    608.597    490.074    497.843    490.074
123.870    630.000    612.379     17.621    490.513    604.914    490.513    498.011    490.513
123.970    615.000    608.271      6.729    490.959    601.099    490.959    498.161    490.959
124.070    622.000    604.078     17.922    491.413    597.220    491.413    498.298    491.413
124.170    610.000    599.865     10.135    491.874    593.333    491.874    498.430    491.874
124.270    607.000    595.684     11.316    492.343    589.487    492.343    498.560    492.343
124.370    588.641    591.576     -2.935    492.819    585.718    492.819    498.695    492.819
124.470    595.409    587.572      7.837    493.302    582.052    493.302    498.839    493.302
124.570    568.000    583.693    -15.693    493.793    578.505    493.793    498.995    493.793
124.670    601.000    579.950     21.050    494.292    575.087    494.292    499.167    494.292
124.770    615.000    576.347     38.653    494.799    571.797    494.799    499.358    494.799
124.870    555.000    572.883    -17.883    495.314    568.633    495.314    499.570    495.314
124.970    568.000    569.552     -1.552    495.836    565.588    495.836    499.806    495.836
